# field on trajectory
# s[mm] rx[mm] ry[mm] rz[mm] bx[T] by[T] bz[T]
0.0000000000000000e+00 +9.1076201166355002e+00 +0.0000000000000000e+00 +0.0000000000000000e+00 +1.1165194935396505e-02 -1.0335781746288026e+00 -5.8792612154240649e-02
1.0005104645227200e-01 +9.1076196006322601e+00 +0.0000000000000000e+00 +1.0005104645049701e-01 +1.1164903143664594e-02 -1.0335716408894604e+00 -5.8790311480255868e-02
2.0010209290454301e-01 +9.1076180526189905e+00 +0.0000000000000000e+00 +2.0010209289035000e-01 +1.1164611494894524e-02 -1.0335651787086058e+00 -5.8788000776993532e-02
3.0015313935681498e-01 +9.1076154725992300e+00 +0.0000000000000000e+00 +3.0015313930891202e-01 +1.1164320081729056e-02 -1.0335588035137810e+00 -5.8785680358189027e-02
4.0020418580908601e-01 +9.1076118605712200e+00 +0.0000000000000000e+00 +4.0020418569554000e-01 +1.1164028996824915e-02 -1.0335525307346953e+00 -5.8783350537605319e-02
5.0025523226135804e-01 +9.1076072165331805e+00 +0.0000000000000000e+00 +5.0025523203958799e-01 +1.1163738332856884e-02 -1.0335463758035486e+00 -5.8781011629039620e-02
6.0030627871362996e-01 +9.1076015404886608e+00 +0.0000000000000000e+00 +6.0030627833041095e-01 +1.1163448237011221e-02 -1.0335403515613775e+00 -5.8778663861290582e-02
7.0035732516590099e-01 +9.1075948324376501e+00 +0.0000000000000000e+00 +7.0035732455736299e-01 +1.1163159072791171e-02 -1.0335344605551631e+00 -5.8776307125630360e-02
8.0040837161817302e-01 +9.1075870923766207e+00 +0.0000000000000000e+00 +8.0040837070980198e-01 +1.1162871257375393e-02 -1.0335287027794684e+00 -5.8773941229604526e-02
9.0045941807044405e-01 +9.1075783203073204e+00 +0.0000000000000000e+00 +9.0045941677707997e-01 +1.1162585207953305e-02 -1.0335230782307840e+00 -5.8771565980771608e-02
1.0005104645227201e+00 +9.1075685162297706e+00 +0.0000000000000000e+00 +1.0005104627485499e+00 +1.1162301341723503e-02 -1.0335175869074040e+00 -5.8769181186698834e-02
1.1005615109749900e+00 +9.1075576801457405e+00 +0.0000000000000000e+00 +1.1005615086135800e+00 +1.1162020075891866e-02 -1.0335122288092815e+00 -5.8766786654956465e-02
1.2006125574272599e+00 +9.1075458120516792e+00 +0.0000000000000000e+00 +1.2006125543615100e+00 +1.1161741827669968e-02 -1.0335070039379046e+00 -5.8764382193113536e-02
1.3006636038795301e+00 +9.1075329119511395e+00 +0.0000000000000000e+00 +1.3006635999817000e+00 +1.1161467014272935e-02 -1.0335019122961306e+00 -5.8761967608731147e-02
1.4007146503318000e+00 +9.1075189798405596e+00 +0.0000000000000000e+00 +1.4007146454635000e+00 +1.1161196052918080e-02 -1.0334969538880812e+00 -5.8759542709359069e-02
1.5007656967840699e+00 +9.1075040157234994e+00 +0.0000000000000000e+00 +1.5007656907962801e+00 +1.1160929360822686e-02 -1.0334921287189724e+00 -5.8757107302528894e-02
1.6008167432363500e+00 +9.1074880195981898e+00 +0.0000000000000000e+00 +1.6008167359693799e+00 +1.1160667355202597e-02 -1.0334874367950029e+00 -5.8754661195750242e-02
1.7008677896886200e+00 +9.1074709914646199e+00 +0.0000000000000000e+00 +1.7008677809721600e+00 +1.1160410453270203e-02 -1.0334828781232008e+00 -5.8752204196504898e-02
1.8009188361408901e+00 +9.1074529313228005e+00 +0.0000000000000000e+00 +1.8009188257939699e+00 +1.1160159072232728e-02 -1.0334784527112888e+00 -5.8749736112241754e-02
1.9009698825931600e+00 +9.1074338391727103e+00 +0.0000000000000000e+00 +1.9009698704241800e+00 +1.1159913629290433e-02 -1.0334741605675484e+00 -5.8747256750371783e-02
2.0010209290454299e+00 +9.1074137150161505e+00 +0.0000000000000000e+00 +2.0010209148521301e+00 +1.1159674541634771e-02 -1.0334700017006739e+00 -5.8744765918262457e-02
2.1010719754977001e+00 +9.1073925588495506e+00 +0.0000000000000000e+00 +2.1010719590671898e+00 +1.1159442226446816e-02 -1.0334659761196554e+00 -5.8742263423233687e-02
2.2011230219499698e+00 +9.1073703706746993e+00 +0.0000000000000000e+00 +2.2011230030586999e+00 +1.1159217100895173e-02 -1.0334620838336104e+00 -5.8739749072551230e-02
2.3011740684022501e+00 +9.1073471504933696e+00 +0.0000000000000000e+00 +2.3011740468160200e+00 +1.1158999582134330e-02 -1.0334583248516638e+00 -5.8737222673422226e-02
2.4012251148545198e+00 +9.1073228983037797e+00 +0.0000000000000000e+00 +2.4012250903285000e+00 +1.1158790087302988e-02 -1.0334546991828133e+00 -5.8734684032990460e-02
2.5012761613067900e+00 +9.1072976141041497e+00 +0.0000000000000000e+00 +2.5012761335854998e+00 +1.1158589033521743e-02 -1.0334512068357840e+00 -5.8732132958331087e-02
2.6013272077590601e+00 +9.1072712978980501e+00 +0.0000000000000000e+00 +2.6013271765763899e+00 +1.1158396622454752e-02 -1.0334478466705865e+00 -5.8729569398337171e-02
2.7013782542113298e+00 +9.1072439496836903e+00 +0.0000000000000000e+00 +2.7013782192905000e+00 +1.1158212226356681e-02 -1.0334446131256294e+00 -5.8726993848127809e-02
2.8014293006636000e+00 +9.1072155694610704e+00 +0.0000000000000000e+00 +2.8014292617172001e+00 +1.1158035017932198e-02 -1.0334414995740755e+00 -5.8724406934282859e-02
2.9014803471158799e+00 +9.1071861572302009e+00 +0.0000000000000000e+00 +2.9014803038458301e+00 +1.1157864169906537e-02 -1.0334384993872503e+00 -5.8721809283417421e-02
3.0015313935681500e+00 +9.1071557129910694e+00 +0.0000000000000000e+00 +3.0015313456657702e+00 +1.1157698855027511e-02 -1.0334356059344216e+00 -5.8719201522187042e-02
3.1015824400204202e+00 +9.1071242367454595e+00 +0.0000000000000000e+00 +3.1015823871663502e+00 +1.1157538246067446e-02 -1.0334328125825729e+00 -5.8716584277292733e-02
3.2016334864726899e+00 +9.1070917284915893e+00 +0.0000000000000000e+00 +3.2016334283369399e+00 +1.1157381515825337e-02 -1.0334301126961927e+00 -5.8713958175486906e-02
3.3016845329249600e+00 +9.1070581882277004e+00 +0.0000000000000000e+00 +3.3016844691668901e+00 +1.1157227837128724e-02 -1.0334274996370427e+00 -5.8711323843578009e-02
3.4017355793772301e+00 +9.1070236159573206e+00 +0.0000000000000000e+00 +3.4017355096455599e+00 +1.1157076382835543e-02 -1.0334249667639259e+00 -5.8708681908435353e-02
3.5017866258295101e+00 +9.1069880116786806e+00 +0.0000000000000000e+00 +3.5017865497623002e+00 +1.1156926325836427e-02 -1.0334225074324870e+00 -5.8706032996995422e-02
3.6018376722817802e+00 +9.1069513753917892e+00 +0.0000000000000000e+00 +3.6018375895064700e+00 +1.1156776839056491e-02 -1.0334201149949731e+00 -5.8703377736266382e-02
3.7018887187340499e+00 +9.1069137070966395e+00 +0.0000000000000000e+00 +3.7018886288674100e+00 +1.1156627095457387e-02 -1.0334177828000171e+00 -5.8700716753333451e-02
3.8019397651863200e+00 +9.1068750067950095e+00 +0.0000000000000000e+00 +3.8019396678344899e+00 +1.1156476268039216e-02 -1.0334155041924082e+00 -5.8698050675363919e-02
3.9019908116385902e+00 +9.1068352744833394e+00 +0.0000000000000000e+00 +3.9019907063970600e+00 +1.1156323529842761e-02 -1.0334132725128906e+00 -5.8695380129613256e-02
4.0020418580908599e+00 +9.1067945101634198e+00 +0.0000000000000000e+00 +4.0020417445444796e+00 +1.1156168053951169e-02 -1.0334110810979118e+00 -5.8692705743429080e-02
4.1020929045431300e+00 +9.1067527138370199e+00 +0.0000000000000000e+00 +4.1020927822660997e+00 +1.1156009013492058e-02 -1.0334089232794148e+00 -5.8690028144256945e-02
4.2021439509954099e+00 +9.1067098855023705e+00 +0.0000000000000000e+00 +4.2021438195512797e+00 +1.1155845581639668e-02 -1.0334067923846231e+00 -5.8687347959646058e-02
4.3021949974476801e+00 +9.1066660251594502e+00 +0.0000000000000000e+00 +4.3021948563893604e+00 +1.1155676931616655e-02 -1.0334046817358071e+00 -5.8684665817253845e-02
4.4022460438999502e+00 +9.1066211328065094e+00 +0.0000000000000000e+00 +4.4022458927697201e+00 +1.1155502236696211e-02 -1.0334025846500681e+00 -5.8681982344851558e-02
4.5022970903522204e+00 +9.1065752084488594e+00 +0.0000000000000000e+00 +4.5022969286816901e+00 +1.1155320670206815e-02 -1.0334004944391122e+00 -5.8679298170331469e-02
4.6023481368044896e+00 +9.1065282520811692e+00 +0.0000000000000000e+00 +4.6023479641146396e+00 +1.1155131672987288e-02 -1.0333984057701904e+00 -5.8676614177040468e-02
4.7023991832567598e+00 +9.1064802637070095e+00 +0.0000000000000000e+00 +4.7023989990579196e+00 +1.1154935684547602e-02 -1.0333963183893915e+00 -5.8673932201778398e-02
4.8024502297090397e+00 +9.1064312433245895e+00 +0.0000000000000000e+00 +4.8024500335008904e+00 +1.1154733377369431e-02 -1.0333942332290673e+00 -5.8671254303793975e-02
4.9025012761613098e+00 +9.1063811909321402e+00 +0.0000000000000000e+00 +4.9025010674329002e+00 +1.1154525423845664e-02 -1.0333921512224371e+00 -5.8668582542288600e-02
5.0025523226135800e+00 +9.1063301065332105e+00 +0.0000000000000000e+00 +5.0025521008432996e+00 +1.1154312496274821e-02 -1.0333900733037154e+00 -5.8665918976411699e-02
5.1026033690658501e+00 +9.1062779901260207e+00 +0.0000000000000000e+00 +5.1026031337214599e+00 +1.1154095266855886e-02 -1.0333880004082698e+00 -5.8663265665257709e-02
5.2026544155181202e+00 +9.1062248417123506e+00 +0.0000000000000000e+00 +5.2026541660567203e+00 +1.1153874407682604e-02 -1.0333859334727351e+00 -5.8660624667860949e-02
5.3027054619703904e+00 +9.1061706612886404e+00 +0.0000000000000000e+00 +5.3027051978384501e+00 +1.1153650590738293e-02 -1.0333838734351704e+00 -5.8657998043192577e-02
5.4027565084226703e+00 +9.1061154488584606e+00 +0.0000000000000000e+00 +5.4027562290559903e+00 +1.1153424487890017e-02 -1.0333818212351649e+00 -5.8655387850154929e-02
5.5028075548749404e+00 +9.1060592044200206e+00 +0.0000000000000000e+00 +5.5028072596986997e+00 +1.1153196770883493e-02 -1.0333797778140006e+00 -5.8652796147578928e-02
5.6028586013272097e+00 +9.1060019279733204e+00 +0.0000000000000000e+00 +5.6028582897559396e+00 +1.1152968111337444e-02 -1.0333777441147733e+00 -5.8650224994218986e-02
5.7029096477794798e+00 +9.1059436195183707e+00 +0.0000000000000000e+00 +5.7029093192170599e+00 +1.1152739180738202e-02 -1.0333757210825296e+00 -5.8647676448749228e-02
5.8029606942317500e+00 +9.1058842790551608e+00 +0.0000000000000000e+00 +5.8029603480714202e+00 +1.1152510650434251e-02 -1.0333737096644040e+00 -5.8645152569759211e-02
5.9030117406840201e+00 +9.1058239065854707e+00 +0.0000000000000000e+00 +5.9030113763083696e+00 +1.1152283191630705e-02 -1.0333717108097469e+00 -5.8642655415749700e-02
6.0030627871363000e+00 +9.1057625021075204e+00 +0.0000000000000000e+00 +6.0030624039172604e+00 +1.1152057475384076e-02 -1.0333697254702763e+00 -5.8640187045129077e-02
6.1031138335885702e+00 +9.1057000656213205e+00 +0.0000000000000000e+00 +6.1031134308874604e+00 +1.1151834172596600e-02 -1.0333677546001983e+00 -5.8637749516208558e-02
6.2031648800408403e+00 +9.1056365971268605e+00 +0.0000000000000000e+00 +6.2031644572083096e+00 +1.1151613954010891e-02 -1.0333657991563456e+00 -5.8635344887198279e-02
6.3032159264931096e+00 +9.1055720966241402e+00 +0.0000000000000000e+00 +6.3032154828691800e+00 +1.1151397490204475e-02 -1.0333638600983133e+00 -5.8632975216203198e-02
6.4032669729453797e+00 +9.1055065641149504e+00 +0.0000000000000000e+00 +6.4032665078594100e+00 +1.1151185451584293e-02 -1.0333619383885906e+00 -5.8630642561218672e-02
6.5033180193976499e+00 +9.1054399995957205e+00 +0.0000000000000000e+00 +6.5033175321683601e+00 +1.1150978508374713e-02 -1.0333600349927112e+00 -5.8628348980112162e-02
6.6033690658499298e+00 +9.1053724030699996e+00 +0.0000000000000000e+00 +6.6033685557853898e+00 +1.1150777125527006e-02 -1.0333581507984173e+00 -5.8626096077460499e-02
6.7034201123021999e+00 +9.1053037745378091e+00 +0.0000000000000000e+00 +6.7034195786998501e+00 +1.1150581025146549e-02 -1.0333562864022394e+00 -5.8623883816462871e-02
6.8034711587544701e+00 +9.1052341139955892e+00 +0.0000000000000000e+00 +6.8034706009011003e+00 +1.1150389761366591e-02 -1.0333544423340970e+00 -5.8621711788741024e-02
6.9035222052067402e+00 +9.1051634214468908e+00 +0.0000000000000000e+00 +6.9035216223784897e+00 +1.1150202888481316e-02 -1.0333526191233100e+00 -5.8619579585769833e-02
7.0035732516590103e+00 +9.1050916968899305e+00 +0.0000000000000000e+00 +7.0035726431213803e+00 +1.1150019960953560e-02 -1.0333508172986183e+00 -5.8617486798874005e-02
7.1036242981112796e+00 +9.1050189403247099e+00 +0.0000000000000000e+00 +7.1036236631191203e+00 +1.1149840533421941e-02 -1.0333490373881484e+00 -5.8615433019222694e-02
7.2036753445635497e+00 +9.1049451517530091e+00 +0.0000000000000000e+00 +7.2036746823610702e+00 +1.1149664160708181e-02 -1.0333472799194043e+00 -5.8613417837824706e-02
7.3037263910158297e+00 +9.1048703311712806e+00 +0.0000000000000000e+00 +7.3037257008365799e+00 +1.1149490397824658e-02 -1.0333455454192664e+00 -5.8611440845524755e-02
7.4037774374680998e+00 +9.1047944785830701e+00 +0.0000000000000000e+00 +7.4037767185350001e+00 +1.1149318799981338e-02 -1.0333438344139527e+00 -5.8609501632997267e-02
7.5038284839203699e+00 +9.1047175939865994e+00 +0.0000000000000000e+00 +7.5038277354457001e+00 +1.1149148922593515e-02 -1.0333421474290343e+00 -5.8607599790743210e-02
7.6038795303726401e+00 +9.1046396773836609e+00 +0.0000000000000000e+00 +7.6038787515580202e+00 +1.1148980321288844e-02 -1.0333404849894006e+00 -5.8605734909084391e-02
7.7039305768249102e+00 +9.1045607287706805e+00 +0.0000000000000000e+00 +7.7039297668613296e+00 +1.1148812551914926e-02 -1.0333388476192682e+00 -5.8603906578159788e-02
7.8039816232771804e+00 +9.1044807481512198e+00 +0.0000000000000000e+00 +7.8039807813449800e+00 +1.1148645170546274e-02 -1.0333372358421373e+00 -5.8602114387919492e-02
7.9040326697294496e+00 +9.1043997355235007e+00 +0.0000000000000000e+00 +7.9040317949983097e+00 +1.1148477733491985e-02 -1.0333356501808089e+00 -5.8600357928121495e-02
8.0040837161817304e+00 +9.1043176908892995e+00 +0.0000000000000000e+00 +8.0040828078106898e+00 +1.1148309797302809e-02 -1.0333340911573510e+00 -5.8598636788325970e-02
8.1041347626340006e+00 +9.1042346142468507e+00 +0.0000000000000000e+00 +8.1041338197714801e+00 +1.1148140918778656e-02 -1.0333325592931011e+00 -5.8596950557891457e-02
8.2041858090862707e+00 +9.1041505055961398e+00 +0.0000000000000000e+00 +8.2041848308700196e+00 +1.1147970654975761e-02 -1.0333310551086416e+00 -5.8595298825969609e-02
8.3042368555385409e+00 +9.1040653649371706e+00 +0.0000000000000000e+00 +8.3042358410956805e+00 +1.1147798563214064e-02 -1.0333295791237924e+00 -5.8593681181500767e-02
8.4042879019908092e+00 +9.1039791922699393e+00 +0.0000000000000000e+00 +8.4042868504377992e+00 +1.1147624201084467e-02 -1.0333281318575931e+00 -5.8592097213209293e-02
8.5043389484430794e+00 +9.1038919875980202e+00 +0.0000000000000000e+00 +8.5043378588857408e+00 +1.1147447126466188e-02 -1.0333267138282849e+00 -5.8590546509628874e-02
8.6043899948953602e+00 +9.1038037509160592e+00 +0.0000000000000000e+00 +8.6043888664288701e+00 +1.1147267038298606e-02 -1.0333253255141708e+00 -5.8589029081815243e-02
8.7044410413476303e+00 +9.1037144822276108e+00 +0.0000000000000000e+00 +8.7044398730565202e+00 +1.1147084130207605e-02 -1.0333239672560386e+00 -5.8587546426008948e-02
8.8044920877999004e+00 +9.1036241815309200e+00 +0.0000000000000000e+00 +8.8044908787580596e+00 +1.1146898704248794e-02 -1.0333226393659936e+00 -5.8586100364907273e-02
8.9045431342521706e+00 +9.1035328488259601e+00 +0.0000000000000000e+00 +8.9045418835228496e+00 +1.1146711062327778e-02 -1.0333213421578618e+00 -5.8584692721783335e-02
9.0045941807044407e+00 +9.1034404841127508e+00 +0.0000000000000000e+00 +9.0045928873402303e+00 +1.1146521506194915e-02 -1.0333200759472558e+00 -5.8583325320504122e-02
9.1046452271567109e+00 +9.1033470873930593e+00 +0.0000000000000000e+00 +9.1046438901995597e+00 +1.1146330337439881e-02 -1.0333188410516276e+00 -5.8581999985548340e-02
9.2046962736089899e+00 +9.1032526586651095e+00 +0.0000000000000000e+00 +9.2046948920902096e+00 +1.1146137857486532e-02 -1.0333176377903384e+00 -5.8580718542024866e-02
9.3047473200612600e+00 +9.1031571979306793e+00 +0.0000000000000000e+00 +9.3047458930015097e+00 +1.1145944367587327e-02 -1.0333164664847017e+00 -5.8579482815689900e-02
9.4047983665135302e+00 +9.1030607051879997e+00 +0.0000000000000000e+00 +9.4047968929228301e+00 +1.1145750168818198e-02 -1.0333153274580547e+00 -5.8578294632965724e-02
9.5048494129658003e+00 +9.1029631804370599e+00 +0.0000000000000000e+00 +9.5048478918435304e+00 +1.1145555562073100e-02 -1.0333142210358077e+00 -5.8577155820958071e-02
9.6049004594180705e+00 +9.1028646236796291e+00 +0.0000000000000000e+00 +9.6048988897529508e+00 +1.1145360848058639e-02 -1.0333131475455000e+00 -5.8576068207473991e-02
9.7049515058703406e+00 +9.1027650349139595e+00 +0.0000000000000000e+00 +9.7049498866404598e+00 +1.1145166327288892e-02 -1.0333121073168685e+00 -5.8575033621040391e-02
9.8050025523226108e+00 +9.1026644141418007e+00 +0.0000000000000000e+00 +9.8050008824953991e+00 +1.1144972300079929e-02 -1.0333111006818934e+00 -5.8574053890921268e-02
9.9050535987748898e+00 +9.1025627613596107e+00 +0.0000000000000000e+00 +9.9050518773071392e+00 +1.1144779066544689e-02 -1.0333101279748740e+00 -5.8573130847136563e-02
1.0005104645227201e+01 +9.1024600765709298e+00 +0.0000000000000000e+00 +1.0005102871065001e+01 +1.1144586926587312e-02 -1.0333091895324569e+00 -5.8572266320478704e-02
1.0105155691679400e+01 +9.1023563597757793e+00 +0.0000000000000000e+00 +1.0105153863758400e+01 +1.1144396179898125e-02 -1.0333082856937201e+00 -5.8571462142531699e-02
1.0205206738131700e+01 +9.1022516109723703e+00 +0.0000000000000000e+00 +1.0205204855376600e+01 +1.1144207125948276e-02 -1.0333074168002272e+00 -5.8570720145689002e-02
1.0305257784584001e+01 +9.1021458301607101e+00 +0.0000000000000000e+00 +1.0305255845909100e+01 +1.1144020063984310e-02 -1.0333065831960755e+00 -5.8570042163170841e-02
1.0405308831036200e+01 +9.1020390173425607e+00 +0.0000000000000000e+00 +1.0405306835345099e+01 +1.1143835293022847e-02 -1.0333057852279550e+00 -5.8569430029042385e-02
1.0505359877488500e+01 +9.1019311725161600e+00 +0.0000000000000000e+00 +1.0505357823674100e+01 +1.1143653111836176e-02 -1.0333050232452501e+00 -5.8568885578168264e-02
1.0605410923940800e+01 +9.1018222956832808e+00 +0.0000000000000000e+00 +1.0605408810885301e+01 +1.1143473748563178e-02 -1.0333042978531271e+00 -5.8568410160660556e-02
1.0705461970393101e+01 +9.1017123868421397e+00 +0.0000000000000000e+00 +1.0705459796968199e+01 +1.1143297191321035e-02 -1.0333036105207751e+00 -5.8568003472105785e-02
1.0805513016845300e+01 +9.1016014459927401e+00 +0.0000000000000000e+00 +1.0805510781912000e+01 +1.1143123377235581e-02 -1.0333029629005608e+00 -5.8567664855739478e-02
1.0905564063297600e+01 +9.1014894731368603e+00 +0.0000000000000000e+00 +1.0905561765706199e+01 +1.1142952243527762e-02 -1.0333023566441921e+00 -5.8567393654622706e-02
1.1005615109749900e+01 +9.1013764682745109e+00 +0.0000000000000000e+00 +1.1005612748340100e+01 +1.1142783727516333e-02 -1.0333017934027062e+00 -5.8567189211635173e-02
1.1105666156202100e+01 +9.1012624314038906e+00 +0.0000000000000000e+00 +1.1105663729803000e+01 +1.1142617766620519e-02 -1.0333012748264470e+00 -5.8567050869468104e-02
1.1205717202654400e+01 +9.1011473625250208e+00 +0.0000000000000000e+00 +1.1205714710084401e+01 +1.1142454298362485e-02 -1.0333008025650334e+00 -5.8566977970616385e-02
1.1305768249106700e+01 +9.1010312616396707e+00 +0.0000000000000000e+00 +1.1305765689173500e+01 +1.1142293260370030e-02 -1.0333003782673389e+00 -5.8566969857371504e-02
1.1405819295559001e+01 +9.1009141287460693e+00 +0.0000000000000000e+00 +1.1405816667059700e+01 +1.1142134590379309e-02 -1.0333000035814799e+00 -5.8567025871814851e-02
1.1505870342011200e+01 +9.1007959638459806e+00 +0.0000000000000000e+00 +1.1505867643732399e+01 +1.1141978226237277e-02 -1.0332996801547776e+00 -5.8567145355809501e-02
1.1605921388463500e+01 +9.1006767669376405e+00 +0.0000000000000000e+00 +1.1605918619181001e+01 +1.1141824105904521e-02 -1.0332994096337529e+00 -5.8567327650994025e-02
1.1705972434915800e+01 +9.1005565380228095e+00 +0.0000000000000000e+00 +1.1705969593394700e+01 +1.1141672167457655e-02 -1.0332991936640863e+00 -5.8567572098774175e-02
1.1806023481367999e+01 +9.1004352770997308e+00 +0.0000000000000000e+00 +1.1806020566362900e+01 +1.1141522349092178e-02 -1.0332990338906116e+00 -5.8567878040316594e-02
