# field on trajectory
# s[mm] rx[mm] ry[mm] rz[mm] bx[T] by[T] bz[T]
0.0000000000000000e+00 +9.1076201166355002e+00 +0.0000000000000000e+00 +0.0000000000000000e+00 +1.1602069144223504e-02 -1.0328355533757694e+00 -5.9271991936725860e-02
1.0005104645227200e-01 +9.1076196006322601e+00 +0.0000000000000000e+00 +1.0005104645049701e-01 +1.1602058453315857e-02 -1.0328389272206855e+00 -5.9272937464458685e-02
2.0010209290454301e-01 +9.1076180526189905e+00 +0.0000000000000000e+00 +2.0010209289035000e-01 +1.1602039357931894e-02 -1.0328423757638598e+00 -5.9273891291357565e-02
3.0015313935681498e-01 +9.1076154725992300e+00 +0.0000000000000000e+00 +3.0015313930891202e-01 +1.1602011520177372e-02 -1.0328458945320975e+00 -5.9274853076147098e-02
4.0020418580908601e-01 +9.1076118605712200e+00 +0.0000000000000000e+00 +4.0020418569554000e-01 +1.1601974602138436e-02 -1.0328494790522187e+00 -5.9275822477607834e-02
5.0025523226135804e-01 +9.1076072165331805e+00 +0.0000000000000000e+00 +5.0025523203958799e-01 +1.1601928265876563e-02 -1.0328531248510919e+00 -5.9276799154583719e-02
6.0030627871362996e-01 +9.1076015404886608e+00 +0.0000000000000000e+00 +6.0030627833041095e-01 +1.1601872427665758e-02 -1.0328568273225576e+00 -5.9277783030342736e-02
7.0035732516590099e-01 +9.1075948324376501e+00 +0.0000000000000000e+00 +7.0035732455736299e-01 +1.1601808012967535e-02 -1.0328605813321987e+00 -5.9278775077573113e-02
8.0040837161817302e-01 +9.1075870923766207e+00 +0.0000000000000000e+00 +8.0040837070980198e-01 +1.1601736197604070e-02 -1.0328643816147043e+00 -5.9279776529358702e-02
9.0045941807044405e-01 +9.1075783203073204e+00 +0.0000000000000000e+00 +9.0045941677707997e-01 +1.1601658157380542e-02 -1.0328682229049901e+00 -5.9280788618836636e-02
1.0005104645227201e+00 +9.1075685162297706e+00 +0.0000000000000000e+00 +1.0005104627485499e+00 +1.1601575068087379e-02 -1.0328720999382630e+00 -5.9281812579195466e-02
1.1005615109749900e+00 +9.1075576801457405e+00 +0.0000000000000000e+00 +1.1005615086135800e+00 +1.1601488105502093e-02 -1.0328760074500591e+00 -5.9282849643672524e-02
1.2006125574272599e+00 +9.1075458120516792e+00 +0.0000000000000000e+00 +1.2006125543615100e+00 +1.1601398445391535e-02 -1.0328799401763109e+00 -5.9283901045552131e-02
1.3006636038795301e+00 +9.1075329119511395e+00 +0.0000000000000000e+00 +1.3006635999817000e+00 +1.1601307263513329e-02 -1.0328838928533588e+00 -5.9284968018161806e-02
1.4007146503318000e+00 +9.1075189798405596e+00 +0.0000000000000000e+00 +1.4007146454635000e+00 +1.1601215735618462e-02 -1.0328878602180387e+00 -5.9286051794871453e-02
1.5007656967840699e+00 +9.1075040157234994e+00 +0.0000000000000000e+00 +1.5007656907962801e+00 +1.1601125037452626e-02 -1.0328918370076925e+00 -5.9287153609089344e-02
1.6008167432363500e+00 +9.1074880195981898e+00 +0.0000000000000000e+00 +1.6008167359693799e+00 +1.1601036344758727e-02 -1.0328958179602459e+00 -5.9288274694261012e-02
1.7008677896886200e+00 +9.1074709914646199e+00 +0.0000000000000000e+00 +1.7008677809721600e+00 +1.1600950833278532e-02 -1.0328997978142360e+00 -5.9289416283866019e-02
1.8009188361408901e+00 +9.1074529313228005e+00 +0.0000000000000000e+00 +1.8009188257939699e+00 +1.1600869678754733e-02 -1.0329037713088667e+00 -5.9290579611415727e-02
1.9009698825931600e+00 +9.1074338391727103e+00 +0.0000000000000000e+00 +1.9009698704241800e+00 +1.1600794056932902e-02 -1.0329077331840544e+00 -5.9291765910450912e-02
2.0010209290454299e+00 +9.1074137150161505e+00 +0.0000000000000000e+00 +2.0010209148521301e+00 +1.1600725143563365e-02 -1.0329116781804699e+00 -5.9292976414539074e-02
2.1010719754977001e+00 +9.1073925588495506e+00 +0.0000000000000000e+00 +2.1010719590671898e+00 +1.1600664114403509e-02 -1.0329156010396052e+00 -5.9294212357272745e-02
2.2011230219499698e+00 +9.1073703706746993e+00 +0.0000000000000000e+00 +2.2011230030586999e+00 +1.1600612145219253e-02 -1.0329194965037933e+00 -5.9295474972265977e-02
2.3011740684022501e+00 +9.1073471504933696e+00 +0.0000000000000000e+00 +2.3011740468160200e+00 +1.1600570411787267e-02 -1.0329233593162686e+00 -5.9296765493152409e-02
2.4012251148545198e+00 +9.1073228983037797e+00 +0.0000000000000000e+00 +2.4012250903285000e+00 +1.1600540089897072e-02 -1.0329271842212229e+00 -5.9298085153583174e-02
2.5012761613067900e+00 +9.1072976141041497e+00 +0.0000000000000000e+00 +2.5012761335854998e+00 +1.1600522355351910e-02 -1.0329309659638470e+00 -5.9299435187223214e-02
2.6013272077590601e+00 +9.1072712978980501e+00 +0.0000000000000000e+00 +2.6013271765763899e+00 +1.1600517901476521e-02 -1.0329347000914155e+00 -5.9300816330005383e-02
2.7013782542113298e+00 +9.1072439496836903e+00 +0.0000000000000000e+00 +2.7013782192905000e+00 +1.1600525564072785e-02 -1.0329383852358422e+00 -5.9302227401629527e-02
2.8014293006636000e+00 +9.1072155694610704e+00 +0.0000000000000000e+00 +2.8014292617172001e+00 +1.1600543732005759e-02 -1.0329420207710449e+00 -5.9303666760732010e-02
2.9014803471158799e+00 +9.1071861572302009e+00 +0.0000000000000000e+00 +2.9014803038458301e+00 +1.1600570794153614e-02 -1.0329456060707500e+00 -5.9305132765958980e-02
3.0015313935681500e+00 +9.1071557129910694e+00 +0.0000000000000000e+00 +3.0015313456657702e+00 +1.1600605139408837e-02 -1.0329491405084263e+00 -5.9306623775964337e-02
3.1015824400204202e+00 +9.1071242367454595e+00 +0.0000000000000000e+00 +3.1015823871663502e+00 +1.1600645156679339e-02 -1.0329526234572135e+00 -5.9308138149407517e-02
3.2016334864726899e+00 +9.1070917284915893e+00 +0.0000000000000000e+00 +3.2016334283369399e+00 +1.1600689234889867e-02 -1.0329560542898653e+00 -5.9309674244951968e-02
3.3016845329249600e+00 +9.1070581882277004e+00 +0.0000000000000000e+00 +3.3016844691668901e+00 +1.1600735762983016e-02 -1.0329594323786759e+00 -5.9311230421262816e-02
3.4017355793772301e+00 +9.1070236159573206e+00 +0.0000000000000000e+00 +3.4017355096455599e+00 +1.1600783129920231e-02 -1.0329627570954016e+00 -5.9312805037004222e-02
3.5017866258295101e+00 +9.1069880116786806e+00 +0.0000000000000000e+00 +3.5017865497623002e+00 +1.1600829724683409e-02 -1.0329660278112138e+00 -5.9314396450838476e-02
3.6018376722817802e+00 +9.1069513753917892e+00 +0.0000000000000000e+00 +3.6018375895064700e+00 +1.1600873936275796e-02 -1.0329692438966194e+00 -5.9316003021423216e-02
3.7018887187340499e+00 +9.1069137070966395e+00 +0.0000000000000000e+00 +3.7018886288674100e+00 +1.1600914153723274e-02 -1.0329724047213964e+00 -5.9317623107409650e-02
3.8019397651863200e+00 +9.1068750067950095e+00 +0.0000000000000000e+00 +3.8019396678344899e+00 +1.1600948766075425e-02 -1.0329755096545219e+00 -5.9319255067440201e-02
3.9019908116385902e+00 +9.1068352744833394e+00 +0.0000000000000000e+00 +3.9019907063970600e+00 +1.1600976162407071e-02 -1.0329785580641222e+00 -5.9320897260147339e-02
4.0020418580908599e+00 +9.1067945101634198e+00 +0.0000000000000000e+00 +4.0020417445444796e+00 +1.1600994731818991e-02 -1.0329815493173793e+00 -5.9322548044150450e-02
4.1020929045431300e+00 +9.1067527138370199e+00 +0.0000000000000000e+00 +4.1020927822660997e+00 +1.1601002863439333e-02 -1.0329844827804782e+00 -5.9324205778054223e-02
4.2021439509954099e+00 +9.1067098855023705e+00 +0.0000000000000000e+00 +4.2021438195512797e+00 +1.1600998946424976e-02 -1.0329873578185480e+00 -5.9325868820447207e-02
4.3021949974476801e+00 +9.1066660251594502e+00 +0.0000000000000000e+00 +4.3021948563893604e+00 +1.1600981369962475e-02 -1.0329901737955782e+00 -5.9327535529898993e-02
4.4022460438999502e+00 +9.1066211328065094e+00 +0.0000000000000000e+00 +4.4022458927697201e+00 +1.1600948523269429e-02 -1.0329929300743657e+00 -5.9329204264958808e-02
4.5022970903522204e+00 +9.1065752084488594e+00 +0.0000000000000000e+00 +4.5022969286816901e+00 +1.1600898795601949e-02 -1.0329956260164355e+00 -5.9330873384156269e-02
4.6023481368044896e+00 +9.1065282520811692e+00 +0.0000000000000000e+00 +4.6023479641146396e+00 +1.1600831164749144e-02 -1.0329982621071763e+00 -5.9332541590498125e-02
4.7023991832567598e+00 +9.1064802637070095e+00 +0.0000000000000000e+00 +4.7023989990579196e+00 +1.1600746805945802e-02 -1.0330008430321080e+00 -5.9334208873279871e-02
4.8024502297090397e+00 +9.1064312433245895e+00 +0.0000000000000000e+00 +4.8024500335008904e+00 +1.1600647407220839e-02 -1.0330033744563203e+00 -5.9335875521867455e-02
4.9025012761613098e+00 +9.1063811909321402e+00 +0.0000000000000000e+00 +4.9025010674329002e+00 +1.1600534656612767e-02 -1.0330058620440687e+00 -5.9337541825507170e-02
5.0025523226135800e+00 +9.1063301065332105e+00 +0.0000000000000000e+00 +5.0025521008432996e+00 +1.1600410242169320e-02 -1.0330083114587310e+00 -5.9339208073318668e-02
5.1026033690658501e+00 +9.1062779901260207e+00 +0.0000000000000000e+00 +5.1026031337214599e+00 +1.1600275851947702e-02 -1.0330107283627989e+00 -5.9340874554289560e-02
5.2026544155181202e+00 +9.1062248417123506e+00 +0.0000000000000000e+00 +5.2026541660567203e+00 +1.1600133174014024e-02 -1.0330131184178262e+00 -5.9342541557267932e-02
5.3027054619703904e+00 +9.1061706612886404e+00 +0.0000000000000000e+00 +5.3027051978384501e+00 +1.1599983896443494e-02 -1.0330154872844159e+00 -5.9344209370956989e-02
5.4027565084226703e+00 +9.1061154488584606e+00 +0.0000000000000000e+00 +5.4027562290559903e+00 +1.1599829707319717e-02 -1.0330178406221604e+00 -5.9345878283907111e-02
5.5028075548749404e+00 +9.1060592044200206e+00 +0.0000000000000000e+00 +5.5028072596986997e+00 +1.1599672294735021e-02 -1.0330201840896365e+00 -5.9347548584510704e-02
5.6028586013272097e+00 +9.1060019279733204e+00 +0.0000000000000000e+00 +5.6028582897559396e+00 +1.1599513346789964e-02 -1.0330225233443571e+00 -5.9349220560994995e-02
5.7029096477794798e+00 +9.1059436195183707e+00 +0.0000000000000000e+00 +5.7029093192170599e+00 +1.1599354551593220e-02 -1.0330248640427446e+00 -5.9350894501415716e-02
5.8029606942317500e+00 +9.1058842790551608e+00 +0.0000000000000000e+00 +5.8029603480714202e+00 +1.1599197597261393e-02 -1.0330272118400949e+00 -5.9352570693650644e-02
5.9030117406840201e+00 +9.1058239065854707e+00 +0.0000000000000000e+00 +5.9030113763083696e+00 +1.1599044171918746e-02 -1.0330295723905440e+00 -5.9354249425392872e-02
6.0030627871363000e+00 +9.1057625021075204e+00 +0.0000000000000000e+00 +6.0030624039172604e+00 +1.1598895963697209e-02 -1.0330319513470476e+00 -5.9355930984144933e-02
6.1031138335885702e+00 +9.1057000656213205e+00 +0.0000000000000000e+00 +6.1031134308874604e+00 +1.1598754660735984e-02 -1.0330343543613345e+00 -5.9357615657211753e-02
6.2031648800408403e+00 +9.1056365971268605e+00 +0.0000000000000000e+00 +6.2031644572083096e+00 +1.1598621951181408e-02 -1.0330367870838797e+00 -5.9359303731694221e-02
6.3032159264931096e+00 +9.1055720966241402e+00 +0.0000000000000000e+00 +6.3032154828691800e+00 +1.1598499523186746e-02 -1.0330392551638716e+00 -5.9360995494482892e-02
6.4032669729453797e+00 +9.1055065641149504e+00 +0.0000000000000000e+00 +6.4032665078594100e+00 +1.1598389064911932e-02 -1.0330417642491749e+00 -5.9362691232251089e-02
6.5033180193976499e+00 +9.1054399995957205e+00 +0.0000000000000000e+00 +6.5033175321683601e+00 +1.1598292264505631e-02 -1.0330443199862378e+00 -5.9364391231439995e-02
6.6033690658499298e+00 +9.1053724030699996e+00 +0.0000000000000000e+00 +6.6033685557853898e+00 +1.1598210265690278e-02 -1.0330469256584518e+00 -5.9366095494502835e-02
6.7034201123021999e+00 +9.1053037745378091e+00 +0.0000000000000000e+00 +6.7034195786998501e+00 +1.1598142240402416e-02 -1.0330495759953713e+00 -5.9367802996075018e-02
6.8034711587544701e+00 +9.1052341139955892e+00 +0.0000000000000000e+00 +6.8034706009011003e+00 +1.1598086914279273e-02 -1.0330522637914510e+00 -5.9369512478239350e-02
6.9035222052067402e+00 +9.1051634214468908e+00 +0.0000000000000000e+00 +6.9035216223784897e+00 +1.1598043012888146e-02 -1.0330549818419361e+00 -5.9371222683128722e-02
7.0035732516590103e+00 +9.1050916968899305e+00 +0.0000000000000000e+00 +7.0035726431213803e+00 +1.1598009261724062e-02 -1.0330577229429385e+00 -5.9372932352931541e-02
7.1036242981112796e+00 +9.1050189403247099e+00 +0.0000000000000000e+00 +7.1036236631191203e+00 +1.1597984386206609e-02 -1.0330604798914740e+00 -5.9374640229895387e-02
7.2036753445635497e+00 +9.1049451517530091e+00 +0.0000000000000000e+00 +7.2036746823610702e+00 +1.1597967111677076e-02 -1.0330632454855071e+00 -5.9376345056330986e-02
7.3037263910158297e+00 +9.1048703311712806e+00 +0.0000000000000000e+00 +7.3037257008365799e+00 +1.1597956163395876e-02 -1.0330660125240192e+00 -5.9378045574617531e-02
7.4037774374680998e+00 +9.1047944785830701e+00 +0.0000000000000000e+00 +7.4037767185350001e+00 +1.1597950266539175e-02 -1.0330687738070286e+00 -5.9379740527205231e-02
7.5038284839203699e+00 +9.1047175939865994e+00 +0.0000000000000000e+00 +7.5038277354457001e+00 +1.1597948146196548e-02 -1.0330715221356686e+00 -5.9381428656621181e-02
7.6038795303726401e+00 +9.1046396773836609e+00 +0.0000000000000000e+00 +7.6038787515580202e+00 +1.1597948527367730e-02 -1.0330742503122168e+00 -5.9383108705472504e-02
7.7039305768249102e+00 +9.1045607287706805e+00 +0.0000000000000000e+00 +7.7039297668613296e+00 +1.1597950134960150e-02 -1.0330769511401654e+00 -5.9384779416451511e-02
7.8039816232771804e+00 +9.1044807481512198e+00 +0.0000000000000000e+00 +7.8039807813449800e+00 +1.1597951693785547e-02 -1.0330796174242411e+00 -5.9386439532338742e-02
7.9040326697294496e+00 +9.1043997355235007e+00 +0.0000000000000000e+00 +7.9040317949983097e+00 +1.1597951928557605e-02 -1.0330822419704826e+00 -5.9388087796008342e-02
8.0040837161817304e+00 +9.1043176908892995e+00 +0.0000000000000000e+00 +8.0040828078106898e+00 +1.1597949563888784e-02 -1.0330848175862717e+00 -5.9389722950431538e-02
8.1041347626340006e+00 +9.1042346142468507e+00 +0.0000000000000000e+00 +8.1041338197714801e+00 +1.1597943324287692e-02 -1.0330873370803968e+00 -5.9391343738681539e-02
8.2041858090862707e+00 +9.1041505055961398e+00 +0.0000000000000000e+00 +8.2041848308700196e+00 +1.1597931934156064e-02 -1.0330897932630922e+00 -5.9392948903937197e-02
8.3042368555385409e+00 +9.1040653649371706e+00 +0.0000000000000000e+00 +8.3042358410956805e+00 +1.1597914117785961e-02 -1.0330921789460905e+00 -5.9394537189487527e-02
8.4042879019908092e+00 +9.1039791922699393e+00 +0.0000000000000000e+00 +8.4042868504377992e+00 +1.1597888599356915e-02 -1.0330944869426708e+00 -5.9396107338735807e-02
8.5043389484430794e+00 +9.1038919875980202e+00 +0.0000000000000000e+00 +8.5043378588857408e+00 +1.1597854102959557e-02 -1.0330967100678796e+00 -5.9397658095214453e-02
8.6043899948953602e+00 +9.1038037509160592e+00 +0.0000000000000000e+00 +8.6043888664288701e+00 +1.1597809723146602e-02 -1.0330988436007558e+00 -5.9399188354910107e-02
8.7044410413476303e+00 +9.1037144822276108e+00 +0.0000000000000000e+00 +8.7044398730565202e+00 +1.1597755856287537e-02 -1.0331008914711344e+00 -5.9400697549035514e-02
8.8044920877999004e+00 +9.1036241815309200e+00 +0.0000000000000000e+00 +8.8044908787580596e+00 +1.1597693184531478e-02 -1.0331028595059848e+00 -5.9402185226262935e-02
8.9045431342521706e+00 +9.1035328488259601e+00 +0.0000000000000000e+00 +8.9045418835228496e+00 +1.1597622390090342e-02 -1.0331047535305502e+00 -5.9403650935261447e-02
9.0045941807044407e+00 +9.1034404841127508e+00 +0.0000000000000000e+00 +9.0045928873402303e+00 +1.1597544155241300e-02 -1.0331065793683059e+00 -5.9405094224697447e-02
9.1046452271567109e+00 +9.1033470873930593e+00 +0.0000000000000000e+00 +9.1046438901995597e+00 +1.1597459162329123e-02 -1.0331083428409047e+00 -5.9406514643234841e-02
9.2046962736089899e+00 +9.1032526586651095e+00 +0.0000000000000000e+00 +9.2046948920902096e+00 +1.1597368093768755e-02 -1.0331100497681436e+00 -5.9407911739536030e-02
9.3047473200612600e+00 +9.1031571979306793e+00 +0.0000000000000000e+00 +9.3047458930015097e+00 +1.1597271632047450e-02 -1.0331117059678945e+00 -5.9409285062261487e-02
9.4047983665135302e+00 +9.1030607051879997e+00 +0.0000000000000000e+00 +9.4047968929228301e+00 +1.1597170459727401e-02 -1.0331133172560778e+00 -5.9410634160070835e-02
9.5048494129658003e+00 +9.1029631804370599e+00 +0.0000000000000000e+00 +9.5048478918435304e+00 +1.1597065259447958e-02 -1.0331148894465982e+00 -5.9411958581622792e-02
9.6049004594180705e+00 +9.1028646236796291e+00 +0.0000000000000000e+00 +9.6048988897529508e+00 +1.1596956713927997e-02 -1.0331164283512981e+00 -5.9413257875575380e-02
9.7049515058703406e+00 +9.1027650349139595e+00 +0.0000000000000000e+00 +9.7049498866404598e+00 +1.1596845505968499e-02 -1.0331179397799179e+00 -5.9414531590586905e-02
9.8050025523226108e+00 +9.1026644141418007e+00 +0.0000000000000000e+00 +9.8050008824953991e+00 +1.1596732318454707e-02 -1.0331194295400383e+00 -5.9415779275315640e-02
9.9050535987748898e+00 +9.1025627613596107e+00 +0.0000000000000000e+00 +9.9050518773071392e+00 +1.1596617834358813e-02 -1.0331209034370452e+00 -5.9417000478421120e-02
1.0005104645227201e+01 +9.1024600765709298e+00 +0.0000000000000000e+00 +1.0005102871065001e+01 +1.1596502736741857e-02 -1.0331223672740566e+00 -5.9418194748563004e-02
1.0105155691679400e+01 +9.1023563597757793e+00 +0.0000000000000000e+00 +1.0105153863758400e+01 +1.1596387708756557e-02 -1.0331238268518987e+00 -5.9419361634402805e-02
1.0205206738131700e+01 +9.1022516109723703e+00 +0.0000000000000000e+00 +1.0205204855376600e+01 +1.1596273433649610e-02 -1.0331252879690513e+00 -5.9420500684603972e-02
1.0305257784584001e+01 +9.1021458301607101e+00 +0.0000000000000000e+00 +1.0305255845909100e+01 +1.1596160594763930e-02 -1.0331267564215927e+00 -5.9421611447831778e-02
1.0405308831036200e+01 +9.1020390173425607e+00 +0.0000000000000000e+00 +1.0405306835345099e+01 +1.1596049875541038e-02 -1.0331282380031528e+00 -5.9422693472753849e-02
1.0505359877488500e+01 +9.1019311725161600e+00 +0.0000000000000000e+00 +1.0505357823674100e+01 +1.1595941959501775e-02 -1.0331297385046028e+00 -5.9423746308031912e-02
1.0605410923940800e+01 +9.1018222956832808e+00 +0.0000000000000000e+00 +1.0605408810885301e+01 +1.1595837363901500e-02 -1.0331312616547528e+00 -5.9424769433427886e-02
1.0705461970393101e+01 +9.1017123868421397e+00 +0.0000000000000000e+00 +1.0705459796968199e+01 +1.1595736039068605e-02 -1.0331328041629375e+00 -5.9425762093961124e-02
1.0805513016845300e+01 +9.1016014459927401e+00 +0.0000000000000000e+00 +1.0805510781912000e+01 +1.1595637814637395e-02 -1.0331343612469754e+00 -5.9426723484867126e-02
1.0905564063297600e+01 +9.1014894731368603e+00 +0.0000000000000000e+00 +1.0905561765706199e+01 +1.1595542520215286e-02 -1.0331359281275079e+00 -5.9427652801596099e-02
1.1005615109749900e+01 +9.1013764682745109e+00 +0.0000000000000000e+00 +1.1005612748340100e+01 +1.1595449985382235e-02 -1.0331375000280802e+00 -5.9428549239818468e-02
1.1105666156202100e+01 +9.1012624314038906e+00 +0.0000000000000000e+00 +1.1105663729803000e+01 +1.1595360039690018e-02 -1.0331390721752221e+00 -5.9429411995430240e-02
1.1205717202654400e+01 +9.1011473625250208e+00 +0.0000000000000000e+00 +1.1205714710084401e+01 +1.1595272512661356e-02 -1.0331406397985137e+00 -5.9430240264557524e-02
1.1305768249106700e+01 +9.1010312616396707e+00 +0.0000000000000000e+00 +1.1305765689173500e+01 +1.1595187233789215e-02 -1.0331421981306670e+00 -5.9431033243561956e-02
1.1405819295559001e+01 +9.1009141287460693e+00 +0.0000000000000000e+00 +1.1405816667059700e+01 +1.1595104032536304e-02 -1.0331437424076118e+00 -5.9431790129046355e-02
1.1505870342011200e+01 +9.1007959638459806e+00 +0.0000000000000000e+00 +1.1505867643732399e+01 +1.1595022738334040e-02 -1.0331452678685582e+00 -5.9432510117859154e-02
1.1605921388463500e+01 +9.1006767669376405e+00 +0.0000000000000000e+00 +1.1605918619181001e+01 +1.1594943180582169e-02 -1.0331467697560923e+00 -5.9433192407100419e-02
1.1705972434915800e+01 +9.1005565380228095e+00 +0.0000000000000000e+00 +1.1705969593394700e+01 +1.1594865188647711e-02 -1.0331482433162318e+00 -5.9433836194126198e-02
1.1806023481367999e+01 +9.1004352770997308e+00 +0.0000000000000000e+00 +1.1806020566362900e+01 +1.1594788591864566e-02 -1.0331496837985279e+00 -5.9434440676554512e-02
