# multipoles
# s[mm] polynom_b[n=0][T/m^n] polynom_b[n=1][T/m^n] polynom_b[n=2][T/m^n] polynom_b[n=3][T/m^n] polynom_b[n=4][T/m^n] polynom_b[n=5][T/m^n] polynom_b[n=6][T/m^n] 
+0.0000000000000000e+00 -1.0332101357810242e+00 +2.3184232191117800e+00 +3.2010756371330437e+01 -4.1916920415892417e+02 -1.6289269874705220e+05 +3.3264195927904090e+06 +6.4311505647712588e+08 
+1.0005104645227200e-01 -1.0332129603165645e+00 +2.3183409643068948e+00 +3.2135163304424445e+01 -4.1763522721402154e+02 -1.6442016409232572e+05 +3.3210052057537572e+06 +6.4780723771723080e+08 
+2.0010209290454301e-01 -1.0332157013381360e+00 +2.3182589494702142e+00 +3.2252440656034423e+01 -4.1623008546774224e+02 -1.6586149252172146e+05 +3.3164036627047895e+06 +6.5222542386880636e+08 
+3.0015313935681498e-01 -1.0332183506921593e+00 +2.3181770391988619e+00 +3.2361774164423828e+01 -4.1495398394990042e+02 -1.6720433357354344e+05 +3.3126276822185386e+06 +6.5632082589965606e+08 
+4.0020418580908601e-01 -1.0332209002250172e+00 +2.3180950982125061e+00 +3.2462349562011291e+01 -4.1380713103128414e+02 -1.6843633661065824e+05 +3.3096900010936968e+06 +6.6004465360163045e+08 
+5.0025523226135804e-01 -1.0332233417830483e+00 +2.3180129913729308e+00 +3.2553352575343176e+01 -4.1278973895133856e+02 -1.6954515081791801e+05 +3.3076033772584866e+06 +6.6334811557087564e+08 
+6.0030627871362996e-01 -1.0332256692827277e+00 +2.3179306811414513e+00 +3.2634176480158665e+01 -4.1190255050256178e+02 -1.7052146917276370e+05 +3.3063749608691111e+06 +6.6619383226579607e+08 
+7.0035732516590099e-01 -1.0332278848541749e+00 +2.3178485111170137e+00 +3.2705037279372625e+01 -4.1114854781167935e+02 -1.7136805274049641e+05 +3.3059914927156931e+06 +6.6858970348322093e+08 
+8.0040837161817302e-01 -1.0332299926643864e+00 +2.3177669180871874e+00 +3.2766354819389029e+01 -4.1053130644684586e+02 -1.7209065313490451e+05 +3.3064351336102365e+06 +6.7055485700019944e+08 
+9.0045941807044405e-01 -1.0332319968803454e+00 +2.3176863389341071e+00 +3.2818548945107175e+01 -4.1005440436736029e+02 -1.7269502187480507e+05 +3.3076880568312220e+06 +6.7210841986833358e+08 
+1.0005104645227201e+00 -1.0332339016690455e+00 +2.3176072106154875e+00 +3.2862039500970127e+01 -4.0972142136991516e+02 -1.7318691040403009e+05 +3.3097324449317367e+06 +6.7326951852870166e+08 
+1.1005615109749900e+00 -1.0332357111974286e+00 +2.3175299701660865e+00 +3.2897246323921784e+01 -4.0953593910880375e+02 -1.7357206995934990e+05 +3.3125504898366905e+06 +6.7405727820588470e+08 
+1.2006125574272599e+00 -1.0332374296325115e+00 +2.3174550546699830e+00 +3.2924589256885660e+01 -4.0950154025613426e+02 -1.7385625182788711e+05 +3.3161243878913634e+06 +6.7449082415557528e+08 
+1.3006636038795301e+00 -1.0332390611412530e+00 +2.3173829012610159e+00 +3.2944488135349758e+01 -4.0962180849040897e+02 -1.7404520708741824e+05 +3.3204363398061292e+06 +6.7458928043582034e+08 
+1.4007146503318000e+00 -1.0332406098906759e+00 +2.3173139470991440e+00 +3.2957362797550644e+01 -4.0990032778875013e+02 -1.7414468680097093e+05 +3.3254685464807898e+06 +6.7437177085428905e+08 
+1.5007656967840699e+00 -1.0332420800478219e+00 +2.3172486293689585e+00 +3.2963633084678392e+01 -4.1034068235162397e+02 -1.7416044202903955e+05 +3.3312032085651807e+06 +6.7385741906684363e+08 
+1.6008167432363500e+00 -1.0332434757797955e+00 +2.3171873852615184e+00 +3.2963718840145674e+01 -4.1094645607238982e+02 -1.7409822380523969e+05 +3.3376225233732341e+06 +6.7306534845502830e+08 
+1.7008677896886200e+00 -1.0332448012536588e+00 +2.3171306519663739e+00 +3.2958039899503390e+01 -4.1172123223899553e+02 -1.7396378294859827e+05 +3.3447086830174057e+06 +6.7201468125893426e+08 
+1.8009188361408901e+00 -1.0332460606366678e+00 +2.3170788666521376e+00 +3.2947016119659629e+01 -4.1266859299032285e+02 -1.7376287062682438e+05 +3.3524438713582056e+06 +6.7072454130163383e+08 
+1.9009698825931600e+00 -1.0332472580959742e+00 +2.3170324664632798e+00 +3.2931067339604468e+01 -4.1379211916965801e+02 -1.7350123759447224e+05 +3.3608102630336941e+06 +6.6921405033833265e+08 
+2.0010209290454299e+00 -1.0332483977989102e+00 +2.3169918885030678e+00 +3.2910613417701448e+01 -4.1509538980773743e+02 -1.7318463491528839e+05 +3.3697900204424802e+06 +6.6750233155271006e+08 
+2.1010719754977001e+00 -1.0332494839128763e+00 +2.3169575698192881e+00 +3.2886074215080903e+01 -4.1658198169540071e+02 -1.7281881364108654e+05 +3.3793652912493683e+06 +6.6560850802859914e+08 
+2.2011230219499698e+00 -1.0332505206052887e+00 +2.3169299474006664e+00 +3.2857869591348553e+01 -4.1825546924342660e+02 -1.7240952473147927e+05 +3.3895182075452679e+06 +6.6355170239547801e+08 
+2.3011740684022501e+00 -1.0332515120436967e+00 +2.3169094581559659e+00 +3.2826419418093209e+01 -4.2011942384674086e+02 -1.7196251931089876e+05 +3.4002308820958151e+06 +6.6135103806672907e+08 
+2.4012251148545198e+00 -1.0332524623957724e+00 +2.3168965389033693e+00 +3.2792143575767369e+01 -4.2217741356924375e+02 -1.7148354860886899e+05 +3.4114854065142036e+06 +6.5902563897675204e+08 
+2.5012761613067900e+00 -1.0332533758292268e+00 +2.3168916263628709e+00 +3.2755461943970616e+01 -4.2443300303421103e+02 -1.7097836379107161e+05 +3.4232638514013910e+06 +6.5659462888869131e+08 
+2.6013272077590601e+00 -1.0332542555993434e+00 +2.3168949022938352e+00 +3.2716712129350164e+01 -4.2688658318242062e+02 -1.7045175846541507e+05 +3.4355437632454848e+06 +6.5407529066820025e+08 
+2.7013782542113298e+00 -1.0332551014295959e+00 +2.3169055546120387e+00 +3.2675919941764320e+01 -4.2952480012678205e+02 -1.6990488620407588e+05 +3.4482702445958033e+06 +6.5147774791267073e+08 
+2.8014293006636000e+00 -1.0332559121872498e+00 +2.3169225291136204e+00 +3.2633037127176593e+01 -4.3233063371545290e+02 -1.6933803344264528e+05 +3.4613770642011371e+06 +6.4881038528196812e+08 
+2.9014803471158799e+00 -1.0332566867394890e+00 +2.3169447716751770e+00 +3.2588015426407345e+01 -4.3528706591519517e+02 -1.6875148649841329e+05 +3.4747980006878767e+06 +6.4608158677335298e+08 
+3.0015313935681500e+00 -1.0332574239533387e+00 +2.3169712282567172e+00 +3.2540806565141402e+01 -4.3837708091133914e+02 -1.6814553137278196e+05 +3.4884668430577316e+06 +6.4329973474909675e+08 
+3.1015824400204202e+00 -1.0332581226956572e+00 +2.3170008449137720e+00 +3.2491362254376092e+01 -4.4158366551791323e+02 -1.6752045376853467e+05 +3.5023173931006277e+06 +6.4047321003317153e+08 
+3.2016334864726899e+00 -1.0332587818331462e+00 +2.3170325677957657e+00 +3.2439634190729450e+01 -4.4488980911721433e+02 -1.6687653909321688e+05 +3.5162834648422878e+06 +6.3761039191141379e+08 
+3.3016845329249600e+00 -1.0332594002323401e+00 +2.3170653431601513e+00 +3.2385574057189444e+01 -4.4827850413587333e+02 -1.6621407248663635e+05 +3.5302988873754488e+06 +6.3471965829290795e+08 
+3.4017355793772301e+00 -1.0332599767595325e+00 +2.3170981173787148e+00 +3.2329133515734377e+01 -4.5173274621493744e+02 -1.6553333867297947e+05 +3.5442975056761508e+06 +6.3180938497241402e+08 
+3.5017866258295101e+00 -1.0332605102808416e+00 +2.3171298369384443e+00 +3.2270264212384475e+01 -4.5523553429793429e+02 -1.6483462206180749e+05 +3.5582131811286816e+06 +6.2888794611807251e+08 
+3.6018376722817802e+00 -1.0332609996621640e+00 +2.3171594484559184e+00 +3.2208917775994578e+01 -4.5876987105248537e+02 -1.6411820673662127e+05 +3.5719797938564131e+06 +6.2596371423944461e+08 
+3.7018887187340499e+00 -1.0332614437690966e+00 +2.3171858986809211e+00 +3.2145045806575183e+01 -4.6231876301796279e+02 -1.6338437622434841e+05 +3.5855312435628795e+06 +6.2304505905863500e+08 
+3.8019397651863200e+00 -1.0332618414670287e+00 +2.3172081345011595e+00 +3.2078599888998774e+01 -4.6586522073955001e+02 -1.6263341376480396e+05 +3.5988014501581741e+06 +6.2014034880687606e+08 
+3.9019908116385902e+00 -1.0332621916211033e+00 +2.3172251029524631e+00 +3.2009531586989816e+01 -4.6939225914364471e+02 -1.6186560220176770e+05 +3.6117243560080891e+06 +6.1725794971329474e+08 
+4.0020418580908599e+00 -1.0332624930961123e+00 +2.3172357512227970e+00 +3.1937792432796567e+01 -4.7288289761896743e+02 -1.6108122378298489e+05 +3.6242339261946450e+06 +6.1440622503371799e+08 
+4.1020929045431300e+00 -1.0332627447566105e+00 +2.3172390266638381e+00 +3.1863333941695092e+01 -4.7632016042137144e+02 -1.6028056044780134e+05 +3.6362641509008030e+06 +6.1159353644419599e+08 
+4.2021439509954099e+00 -1.0332629454668101e+00 +2.3172338767905707e+00 +3.1786107597084602e+01 -4.7968707667523518e+02 -1.5946389353519439e+05 +3.6477490453054318e+06 +6.0882824261623979e+08 
+4.3021949974476801e+00 -1.0332630940905865e+00 +2.3172192492971444e+00 +3.1706064854413832e+01 -4.8296668087226254e+02 -1.5863150387088957e+05 +3.6586226524721212e+06 +6.0611869965991402e+08 
+4.4022460438999502e+00 -1.0332631894915141e+00 +2.3171940920508742e+00 +3.1623157145454787e+01 -4.8614201269783337e+02 -1.5778367185237654e+05 +3.6688190421745009e+06 +6.0347326152892733e+08 
+4.5022970903522204e+00 -1.0332632305327671e+00 +2.3171573530889376e+00 +3.1537335864585856e+01 -4.8919611627082378e+02 -1.5692067707481605e+05 +3.6782723040697575e+06 +6.0090027780547822e+08 
+4.6023481368044896e+00 -1.0332632163751545e+00 +2.3171080603151823e+00 +3.1448530072346255e+01 -4.9211022991953382e+02 -1.5604184805286900e+05 +3.6869030415699221e+06 +5.9840125094133925e+08 
+4.7023991832567598e+00 -1.0332631472986200e+00 +2.3170456473260472e+00 +3.1356581554910935e+01 -4.9486327819248675e+02 -1.5514304382167177e+05 +3.6946165205736323e+06 +5.9595266112420261e+08 
+4.8024502297090397e+00 -1.0332630238472917e+00 +2.3169696675023075e+00 +3.1261310676758335e+01 -4.9743465944739938e+02 -1.5421932333279928e+05 +3.7013226055636103e+06 +5.9352518827965450e+08 
+4.9025012761613098e+00 -1.0332628465651694e+00 +2.3168796742743902e+00 +3.1162537791862203e+01 -4.9980377415330207e+02 -1.5326574550867552e+05 +3.7069311776762004e+06 +5.9108951272813892e+08 
+5.0025523226135800e+00 -1.0332626159960325e+00 +2.3167752211398747e+00 +3.1060083234151467e+01 -5.0195002540358206e+02 -1.5227736906983773e+05 +3.7113521376897460e+06 +5.8861631441149294e+08 
+5.1026033690658501e+00 -1.0332623326835180e+00 +2.3166558616505211e+00 +3.0953767324363255e+01 -5.0385281859665315e+02 -1.5124925267915230e+05 +3.7144954045094526e+06 +5.8607627362502301e+08 
+5.2026544155181202e+00 -1.0332619971710673e+00 +2.3165211494144056e+00 +3.0843410365641514e+01 -5.0549156153115769e+02 -1.5017645486634088e+05 +3.7162709160410282e+06 +5.8344007068927753e+08 
+5.3027054619703904e+00 -1.0332616100019403e+00 +2.3163706380967040e+00 +3.0728832643582095e+01 -5.0684566447369536e+02 -1.4905403404284819e+05 +3.7165886298848563e+06 +5.8067838606464064e+08 
+5.4027565084226703e+00 -1.0332611717192186e+00 +2.3162038814171342e+00 +3.0609854429225749e+01 -5.0789454012669194e+02 -1.4787704856191136e+05 +3.7153585235130964e+06 +5.7776190065275443e+08 
+5.5028075548749404e+00 -1.0332606828657933e+00 +2.3160204331480814e+00 +3.0486295974696041e+01 -5.0861760361860922e+02 -1.4664055664936054e+05 +3.7124905945023871e+06 +5.7466129550983369e+08 
+5.6028586013272097e+00 -1.0332601439843867e+00 +2.3158198471152125e+00 +3.0357977518412266e+01 -5.0899427255675710e+02 -1.4533961651508760e+05 +3.7078948611635785e+06 +5.7134725241923416e+08 
+5.7029096477794798e+00 -1.0332595556175026e+00 +2.3156016771991568e+00 +3.0224719277615115e+01 -5.0900396713256299e+02 -1.4396928621731180e+05 +3.7014813635095768e+06 +5.6779045326858556e+08 
+5.8029606942317500e+00 -1.0332589183074601e+00 +2.3153654773268415e+00 +3.0086341452717626e+01 -5.0862610989879306e+02 -1.4252462375460187e+05 +3.6931601622478091e+06 +5.6396158052138603e+08 
+5.9030117406840201e+00 -1.0332582325963822e+00 +2.3151108014786881e+00 +2.9942664227297858e+01 -5.0784012602496614e+02 -1.4100068708021234e+05 +3.6828413405992072e+06 +5.5983131732932568e+08 
+6.0030627871363000e+00 -1.0332574990262133e+00 +2.3148372036838012e+00 +2.9793507768017321e+01 -5.0662544320403379e+02 -1.3939253410553030e+05 +3.6704350040819519e+06 +5.5537034756969202e+08 
+6.1031138335885702e+00 -1.0332567181386838e+00 +2.3145442380187822e+00 +2.9638692222184961e+01 -5.0496149166328718e+02 -1.3769522266946253e+05 +3.6558512809101790e+06 +5.5054935575049877e+08 
+6.2031648800408403e+00 -1.0332558904753013e+00 +2.3142314586068089e+00 +2.9478037715952972e+01 -5.0282770417441196e+02 -1.3590381050695907e+05 +3.6390003223609058e+06 +5.4533902687277341e+08 
+6.3032159264931096e+00 -1.0332550165774197e+00 +2.3138984196220362e+00 +2.9311364363552300e+01 -5.0020351621727502e+02 -1.3401335544265975e+05 +3.6197923040285590e+06 +5.3971004741032183e+08 
+6.4032669729453797e+00 -1.0332540969861301e+00 +2.3135446752784592e+00 +2.9138492253304779e+01 -4.9706836570603446e+02 -1.3201891512380069e+05 +3.5981374245849703e+06 +5.3363310403937721e+08 
+6.5033180193976499e+00 -1.0332531322423792e+00 +2.3131697799345354e+00 +2.8959241481592517e+01 -4.9340169581342462e+02 -1.2991554780491105e+05 +3.5739459179517240e+06 +5.2707888739263022e+08 
+6.6033690658499298e+00 -1.0332521229110223e+00 +2.3127736308559688e+00 +2.8773523623037164e+01 -4.8919206542846467e+02 -1.2770021549511056e+05 +3.5471676079601571e+06 +5.2002748181992161e+08 
+6.7034201123021999e+00 -1.0332510697889732e+00 +2.3123571923654236e+00 +2.8581579182792886e+01 -4.8445680397779756e+02 -1.2537657612254939e+05 +3.5178701898356830e+06 +5.1249244864346606e+08 
+6.8034711587544701e+00 -1.0332499737614722e+00 +2.3119216312773054e+00 +2.8383723686832777e+01 -4.7921879909619372e+02 -1.2294978350390238e+05 +3.4861418224355113e+06 +5.0449495449393815e+08 
+6.9035222052067402e+00 -1.0332488357139300e+00 +2.3114681143595806e+00 +2.8180272668453330e+01 -4.7350093746852389e+02 -1.2042499145708786e+05 +3.4520706625807052e+06 +4.9605616580429137e+08 
+7.0035732516590103e+00 -1.0332476565319884e+00 +2.3109978083338660e+00 +2.7971541669709346e+01 -4.6732610490664973e+02 -1.1780735379370596e+05 +3.4157448662731517e+06 +4.8719724862027246e+08 
+7.1036242981112796e+00 -1.0332464371014931e+00 +2.3105118798677249e+00 +2.7757846240885286e+01 -4.6071718612486552e+02 -1.1510202431568797e+05 +3.3772525875101122e+06 +4.7793936860910529e+08 
+7.2036753445635497e+00 -1.0332451783085006e+00 +2.3100114955797473e+00 +2.7539501939952569e+01 -4.5369706491223002e+02 -1.1231415678860145e+05 +3.3366819794250913e+06 +4.6830369088628781e+08 
+7.3037263910158297e+00 -1.0332438810393230e+00 +2.3094978220221125e+00 +2.7316824334745263e+01 -4.4628862361673714e+02 -1.0944890497322724e+05 +3.2941211913172491e+06 +4.5831138014760613e+08 
+7.4037774374680998e+00 -1.0332425461804948e+00 +2.3089720256889872e+00 +2.7090129002875969e+01 -4.3851474340709177e+02 -1.0651142262146417e+05 +3.2496583703582985e+06 +4.4798360064048553e+08 
+7.5038284839203699e+00 -1.0332411746188468e+00 +2.3084352730082083e+00 +2.6859731535359888e+01 -4.3039830402121783e+02 -1.0350686352830096e+05 +3.2033816601277213e+06 +4.3734151637060267e+08 
+7.6038795303726401e+00 -1.0332397672414311e+00 +2.3078887303359741e+00 +2.6625947529533242e+01 -4.2196218364366547e+02 -1.0044038139446136e+05 +3.1553792001062864e+06 +4.2640629044309819e+08 
+7.7039305768249102e+00 -1.0332383249356538e+00 +2.3073335639530073e+00 +2.6389092603000286e+01 -4.1322925878449246e+02 -9.7317130083245895e+04 +3.1057391249923394e+06 +4.1519908626451379e+08 
+7.8039816232771804e+00 -1.0332368485891763e+00 +2.3067709400607765e+00 +2.6149482382358698e+01 -4.0422240416878077e+02 -9.4142263389133572e+04 +3.0545495641811499e+06 +4.0374106639772183e+08 
+7.9040326697294496e+00 -1.0332353390899627e+00 +2.3062020247863848e+00 +2.5907432506439402e+01 -3.9496449290613953e+02 -9.0920935101636293e+04 +3.0018986428655712e+06 +3.9205339287675232e+08 
+8.0040837161817304e+00 -1.0332337973263170e+00 +2.3056279841562253e+00 +2.5663258631993383e+01 -3.8547839571693356e+02 -8.7658299096941249e+04 +2.9478744776229649e+06 +3.8015722759705538e+08 
+8.1041347626340006e+00 -1.0332322241868552e+00 +2.3050499841201932e+00 +2.5417276427037613e+01 -3.7578698164646926e+02 -8.4359509203189606e+04 +2.8925651806593114e+06 +3.6807373165776360e+08 
+8.2041858090862707e+00 -1.0332306205605721e+00 +2.3044691905263148e+00 +2.5169801580751681e+01 -3.6591311734075589e+02 -8.1029719385654113e+04 +2.8360588557323809e+06 +3.5582406623739612e+08 
+8.3042368555385409e+00 -1.0332289873368097e+00 +2.3038867691285358e+00 +2.4921149798015424e+01 -3.5587966726597358e+02 -7.7674083627886852e+04 +2.7784435994743342e+06 +3.4342939198652780e+08 
+8.4042879019908092e+00 -1.0332273254052677e+00 +2.3033038855781425e+00 +2.4671636799276381e+01 -3.4570949348403883e+02 -7.4297755923182340e+04 +2.7198075002479423e+06 +3.3091086897929406e+08 
+8.5043389484430794e+00 -1.0332256356561980e+00 +2.3027217054521452e+00 +2.4421578337008665e+01 -3.3542545966782694e+02 -7.0905890905112508e+04 +2.6602386755049140e+06 +3.1828966137941372e+08 
+8.6043899948953602e+00 -1.0332239188769015e+00 +2.3021411837092227e+00 +2.4171249795155720e+01 -3.2504867212206665e+02 -6.7502958673200701e+04 +2.5998281676797247e+06 +3.0558435131684595e+08 
+8.7044410413476303e+00 -1.0332221751710149e+00 +2.3015626020142923e+00 +2.3920757665883126e+01 -3.1459488283101422e+02 -6.4090257470408869e+04 +2.5386765385361370e+06 +2.9279967016331506e+08 
+8.8044920877999004e+00 -1.0332204044180191e+00 +2.3009861141398424e+00 +2.3670164517492754e+01 -3.0407911682301096e+02 -6.0668202120407645e+04 +2.4768882536692079e+06 +2.7993617928704137e+08 
+8.9045431342521706e+00 -1.0332186064974855e+00 +2.3004118736860493e+00 +2.3419532939496950e+01 -2.9351639348537981e+02 -5.7237207775982271e+04 +2.4145677407280966e+06 +2.6699444104872304e+08 
+9.0045941807044407e+00 -1.0332167812891202e+00 +2.2998400340587004e+00 +2.3168925548234647e+01 -2.8292172579821442e+02 -5.3797690040797243e+04 +2.3518193843908631e+06 +2.5397501942762899e+08 
+9.1046452271567109e+00 -1.0332149286727887e+00 +2.2992707484639752e+00 +2.2918404990967328e+01 -2.7231012014937323e+02 -5.0350065043073759e+04 +2.2887475250735865e+06 +2.4087848034843758e+08 
+9.2046962736089899e+00 -1.0332130485284521e+00 +2.2987041699070772e+00 +2.2668033936401070e+01 -2.6169657627797073e+02 -4.6894749254654365e+04 +2.2254564583845260e+06 +2.2770539080563658e+08 
+9.3047473200612600e+00 -1.0332111407362163e+00 +2.2981404511866730e+00 +2.2417875084106043e+01 -2.5109608705959724e+02 -4.3432159673339520e+04 +2.1620504336162456e+06 +2.1445631973207822e+08 
+9.4047983665135302e+00 -1.0332092051763335e+00 +2.2975797448813378e+00 +2.2167991162174118e+01 -2.4052363810223790e+02 -3.9962713770953713e+04 +2.0986336511982079e+06 +2.0113183771527129e+08 
+9.5048494129658003e+00 -1.0332072417291776e+00 +2.2970222033538574e+00 +2.1918444926007574e+01 -2.2999420782661502e+02 -3.6486829469448538e+04 +2.0353102629190139e+06 +1.8773251687503994e+08 
+9.6049004594180705e+00 -1.0332052502752929e+00 +2.2964679787369349e+00 +2.1669299166208624e+01 -2.1952276703273444e+02 -3.3004925298757225e+04 +1.9721843692224482e+06 +1.7425893161985639e+08 
+9.7049515058703406e+00 -1.0332032306953778e+00 +2.2959172229373253e+00 +2.1420616703585168e+01 -2.0912427897121830e+02 -2.9517420288217050e+04 +1.9093600193121363e+06 +1.6071165808527502e+08 
+9.8050025523226108e+00 -1.0332011828702521e+00 +2.2953700876162468e+00 +2.1172460388852315e+01 -1.9881369876394805e+02 -2.6024733970113935e+04 +1.8469412076485381e+06 +1.4709127416252452e+08 
+9.9050535987748898e+00 -1.0331991066809145e+00 +2.2948267241997868e+00 +2.0924893106132359e+01 -1.8860597366339701e+02 -2.2527286433061559e+04 +1.7850318751639009e+06 +1.3339835970576330e+08 
+1.0005104645227201e+01 -1.0331970020085226e+00 +2.2942872838579098e+00 +2.0677977776637459e+01 -1.7851604240928233e+02 -1.9025498407635834e+04 +1.7237359053267785e+06 +1.1963349697131903e+08 
+1.0105155691679400e+01 -1.0331948687343913e+00 +2.2937519175114915e+00 +2.0431777353621225e+01 -1.6855883541067288e+02 -1.5519791152658256e+04 +1.6631571249645639e+06 +1.0579727001668920e+08 
