# field on trajectory
# s[mm] rx[mm] ry[mm] rz[mm] bx[T] by[T] bz[T]
0.0000000000000000e+00 +9.1013000000000002e+00 +0.0000000000000000e+00 +0.0000000000000000e+00 +1.1123931113798370e-02 -1.0331530988867681e+00 -5.8656162605451777e-02
1.0000000000000001e-01 +9.1012994837347758e+00 +0.0000000000000000e+00 +9.9999999998223135e-02 +1.1123742845420734e-02 -1.0331569113380901e+00 -5.8656522500731431e-02
2.0000000000000001e-01 +9.1012979349365732e+00 +0.0000000000000000e+00 +1.9999999998578502e-01 +1.1123551159492815e-02 -1.0331606705518999e+00 -5.8656882555899827e-02
3.0000000000000004e-01 +9.1012953536016354e+00 +0.0000000000000000e+00 +2.9999999995202431e-01 +1.1123355966123561e-02 -1.0331643701857456e+00 -5.8657241058244741e-02
4.0000000000000002e-01 +9.1012917397262658e+00 +0.0000000000000000e+00 +3.9999999988627960e-01 +1.1123157175455542e-02 -1.0331680038969544e+00 -5.8657596295087537e-02
5.0000000000000000e-01 +9.1012870933068335e+00 +0.0000000000000000e+00 +4.9999999977788934e-01 +1.1122954697667975e-02 -1.0331715653426352e+00 -5.8657946553787747e-02
5.9999999999999998e-01 +9.1012814143397804e+00 +0.0000000000000000e+00 +5.9999999961619177e-01 +1.1122748561221118e-02 -1.0331750498959329e+00 -5.8658290389958484e-02
6.9999999999999996e-01 +9.1012747028216232e+00 +0.0000000000000000e+00 +6.9999999939052515e-01 +1.1122539267574647e-02 -1.0331784597947851e+00 -5.8658627432093526e-02
7.9999999999999993e-01 +9.1012669587489565e+00 +0.0000000000000000e+00 +7.9999999909022756e-01 +1.1122327436446269e-02 -1.0331817989931817e+00 -5.8658957576916353e-02
8.9999999999999991e-01 +9.1012581821184426e+00 +0.0000000000000000e+00 +8.9999999870463709e-01 +1.1122113687561342e-02 -1.0331850714449291e+00 -5.8659280721160181e-02
9.9999999999999989e-01 +9.1012483729268112e+00 +0.0000000000000000e+00 +9.9999999822309160e-01 +1.1121898640645621e-02 -1.0331882811036521e+00 -5.8659596761560795e-02
1.0999999999999999e+00 +9.1012375311708560e+00 +0.0000000000000000e+00 +1.0999999976349291e+00 +1.1121682915418053e-02 -1.0331914319228064e+00 -5.8659905594849536e-02
1.2000000000000000e+00 +9.1012256568474275e+00 +0.0000000000000000e+00 +1.1999999969294870e+00 +1.1121467131583473e-02 -1.0331945278556822e+00 -5.8660207117746048e-02
1.3000000000000000e+00 +9.1012127499534348e+00 +0.0000000000000000e+00 +1.2999999960961031e+00 +1.1121251908825411e-02 -1.0331975728554155e+00 -5.8660501226951399e-02
1.4000000000000001e+00 +9.1011988104858350e+00 +0.0000000000000000e+00 +1.3999999951241151e+00 +1.1121037866798824e-02 -1.0332005708749938e+00 -5.8660787819140761e-02
1.5000000000000002e+00 +9.1011838384416315e+00 +0.0000000000000000e+00 +1.4999999940028603e+00 +1.1120825625122850e-02 -1.0332035258672649e+00 -5.8661066790956402e-02
1.6000000000000003e+00 +9.1011678338178736e+00 +0.0000000000000000e+00 +1.5999999927216761e+00 +1.1120615803373569e-02 -1.0332064417849431e+00 -5.8661338039000609e-02
1.7000000000000004e+00 +9.1011507966116501e+00 +0.0000000000000000e+00 +1.6999999912699000e+00 +1.1120409021076744e-02 -1.0332093225806176e+00 -5.8661601459828475e-02
1.8000000000000005e+00 +9.1011327268200812e+00 +0.0000000000000000e+00 +1.7999999896368688e+00 +1.1120205897700592e-02 -1.0332121722067629e+00 -5.8661856949940944e-02
1.9000000000000006e+00 +9.1011136244403215e+00 +0.0000000000000000e+00 +1.8999999878119200e+00 +1.1120007052648522e-02 -1.0332149946157412e+00 -5.8662104405777571e-02
2.0000000000000004e+00 +9.1010934894695517e+00 +0.0000000000000000e+00 +1.9999999857843904e+00 +1.1119813105251898e-02 -1.0332177937598148e+00 -5.8662343723709542e-02
2.1000000000000005e+00 +9.1010723219049758e+00 +0.0000000000000000e+00 +2.0999999835436172e+00 +1.1119624674762780e-02 -1.0332205735911517e+00 -5.8662574800032417e-02
2.2000000000000006e+00 +9.1010501217438176e+00 +0.0000000000000000e+00 +2.1999999810789372e+00 +1.1119442380346681e-02 -1.0332233380618334e+00 -5.8662797530959175e-02
2.3000000000000007e+00 +9.1010268889833164e+00 +0.0000000000000000e+00 +2.2999999783796872e+00 +1.1119266841075323e-02 -1.0332260911238640e+00 -5.8663011812612999e-02
2.4000000000000008e+00 +9.1010026236207242e+00 +0.0000000000000000e+00 +2.3999999754352039e+00 +1.1119098675919375e-02 -1.0332288367291746e+00 -5.8663217541020295e-02
2.5000000000000009e+00 +9.1009773256532984e+00 +0.0000000000000000e+00 +2.4999999722348236e+00 +1.1118938503741202e-02 -1.0332315788296356e+00 -5.8663414612103428e-02
2.6000000000000010e+00 +9.1009509950783016e+00 +0.0000000000000000e+00 +2.5999999687678832e+00 +1.1118786691796070e-02 -1.0332343199706775e+00 -5.8663602968249857e-02
2.7000000000000011e+00 +9.1009236318929965e+00 +0.0000000000000000e+00 +2.6999999650237192e+00 +1.1118642601298500e-02 -1.0332370570722962e+00 -5.8663782738091023e-02
2.8000000000000012e+00 +9.1008952360946509e+00 +0.0000000000000000e+00 +2.7999999609916681e+00 +1.1118505341982499e-02 -1.0332397856485045e+00 -5.8663954096874978e-02
2.9000000000000012e+00 +9.1008658076805418e+00 +0.0000000000000000e+00 +2.8999999566610661e+00 +1.1118374023611781e-02 -1.0332425012138051e+00 -5.8664117219913103e-02
3.0000000000000013e+00 +9.1008353466479583e+00 +0.0000000000000000e+00 +2.9999999520212492e+00 +1.1118247755986464e-02 -1.0332451992832412e+00 -5.8664272282589178e-02
3.1000000000000014e+00 +9.1008038529942077e+00 +0.0000000000000000e+00 +3.0999999470615536e+00 +1.1118125648949729e-02 -1.0332478753724481e+00 -5.8664419460368697e-02
3.2000000000000015e+00 +9.1007713267166199e+00 +0.0000000000000000e+00 +3.1999999417713156e+00 +1.1118006812394511e-02 -1.0332505249977035e+00 -5.8664558928807981e-02
3.3000000000000016e+00 +9.1007377678125501e+00 +0.0000000000000000e+00 +3.2999999361398711e+00 +1.1117890356270145e-02 -1.0332531436759809e+00 -5.8664690863563441e-02
3.4000000000000017e+00 +9.1007031762793851e+00 +0.0000000000000000e+00 +3.3999999301565555e+00 +1.1117775390589073e-02 -1.0332557269249987e+00 -5.8664815440400718e-02
3.5000000000000018e+00 +9.1006675521145475e+00 +0.0000000000000000e+00 +3.4999999238107056e+00 +1.1117661025433493e-02 -1.0332582702632724e+00 -5.8664932835203902e-02
3.6000000000000019e+00 +9.1006308953155006e+00 +0.0000000000000000e+00 +3.5999999170916563e+00 +1.1117546370962060e-02 -1.0332607692101654e+00 -5.8665043223984761e-02
3.7000000000000020e+00 +9.1005932058797505e+00 +0.0000000000000000e+00 +3.6999999099887440e+00 +1.1117430537416531e-02 -1.0332632192859408e+00 -5.8665146782891912e-02
3.8000000000000020e+00 +9.1005544838048529e+00 +0.0000000000000000e+00 +3.7999999024913040e+00 +1.1117312635128499e-02 -1.0332656160118117e+00 -5.8665243688220042e-02
3.9000000000000021e+00 +9.1005147290884167e+00 +0.0000000000000000e+00 +3.8999998945886718e+00 +1.1117191774526011e-02 -1.0332679549099939e+00 -5.8665334116419041e-02
4.0000000000000018e+00 +9.1004739417281080e+00 +0.0000000000000000e+00 +3.9999998862701833e+00 +1.1117067066140296e-02 -1.0332702315037547e+00 -5.8665418244103262e-02
4.1000000000000014e+00 +9.1004321217216582e+00 +0.0000000000000000e+00 +4.0999998775251738e+00 +1.1116937620612426e-02 -1.0332724413174668e+00 -5.8665496248060722e-02
4.2000000000000011e+00 +9.1003892690668629e+00 +0.0000000000000000e+00 +4.1999998683429789e+00 +1.1116802548700004e-02 -1.0332745798766589e+00 -5.8665568305262275e-02
4.3000000000000007e+00 +9.1003453837615904e+00 +0.0000000000000000e+00 +4.2999998587129342e+00 +1.1116660961283864e-02 -1.0332766427080646e+00 -5.8665634592870802e-02
4.4000000000000004e+00 +9.1003004658037838e+00 +0.0000000000000000e+00 +4.3999998486243745e+00 +1.1116511969374731e-02 -1.0332786253396780e+00 -5.8665695288250413e-02
4.5000000000000000e+00 +9.1002545151914660e+00 +0.0000000000000000e+00 +4.4999998380666355e+00 +1.1116354684119931e-02 -1.0332805233007996e+00 -5.8665750568975675e-02
4.5999999999999996e+00 +9.1002075319227469e+00 +0.0000000000000000e+00 +4.5999998270290527e+00 +1.1116188528576664e-02 -1.0332823331010583e+00 -5.8665800778328954e-02
4.6999999999999993e+00 +9.1001595159958217e+00 +0.0000000000000000e+00 +4.6999998155009619e+00 +1.1116014172950486e-02 -1.0332840551666671e+00 -5.8665846921673273e-02
4.7999999999999989e+00 +9.1001104674089746e+00 +0.0000000000000000e+00 +4.7999998034716977e+00 +1.1115832599164417e-02 -1.0332856909022832e+00 -5.8665890169806265e-02
4.8999999999999986e+00 +9.1000603861605764e+00 +0.0000000000000000e+00 +4.8999997909305950e+00 +1.1115644789066138e-02 -1.0332872417117966e+00 -5.8665931693437388e-02
4.9999999999999982e+00 +9.1000092722490820e+00 +0.0000000000000000e+00 +4.9999997778669902e+00 +1.1115451724422756e-02 -1.0332887089982687e+00 -5.8665972663180618e-02
5.0999999999999979e+00 +9.0999571256730292e+00 +0.0000000000000000e+00 +5.0999997642702182e+00 +1.1115254386915529e-02 -1.0332900941638687e+00 -5.8666014249546726e-02
5.1999999999999975e+00 +9.0999039464310414e+00 +0.0000000000000000e+00 +5.1999997501296136e+00 +1.1115053758134609e-02 -1.0332913986098111e+00 -5.8666057622935718e-02
5.2999999999999972e+00 +9.0998497345218183e+00 +0.0000000000000000e+00 +5.2999997354345130e+00 +1.1114850819573760e-02 -1.0332926237362949e+00 -5.8666103953629298e-02
5.3999999999999968e+00 +9.0997944899441432e+00 +0.0000000000000000e+00 +5.3999997201742502e+00 +1.1114646552625134e-02 -1.0332937709424370e+00 -5.8666154411783321e-02
5.4999999999999964e+00 +9.0997382126968738e+00 +0.0000000000000000e+00 +5.4999997043381619e+00 +1.1114441938573957e-02 -1.0332948416262118e+00 -5.8666210167420130e-02
5.5999999999999961e+00 +9.0996809027789478e+00 +0.0000000000000000e+00 +5.5999996879155827e+00 +1.1114237958593289e-02 -1.0332958371843883e+00 -5.8666272390421055e-02
5.6999999999999957e+00 +9.0996225601893741e+00 +0.0000000000000000e+00 +5.6999996708958482e+00 +1.1114035593738735e-02 -1.0332967590124660e+00 -5.8666342250518734e-02
5.7999999999999954e+00 +9.0995631849272378e+00 +0.0000000000000000e+00 +5.7999996532682934e+00 +1.1113835824943189e-02 -1.0332976085046139e+00 -5.8666420917289602e-02
5.8999999999999950e+00 +9.0995027769916970e+00 +0.0000000000000000e+00 +5.8999996350222537e+00 +1.1113639633011570e-02 -1.0332983870536068e+00 -5.8666509560146386e-02
5.9999999999999947e+00 +9.0994413363819806e+00 +0.0000000000000000e+00 +5.9999996161470648e+00 +1.1113447998615515e-02 -1.0332990960507609e+00 -5.8666609348330331e-02
6.0999999999999943e+00 +9.0993788630973853e+00 +0.0000000000000000e+00 +6.0999995966320624e+00 +1.1113261902288139e-02 -1.0332997368858738e+00 -5.8666721450903792e-02
6.1999999999999940e+00 +9.0993153571372769e+00 +0.0000000000000000e+00 +6.1999995764665812e+00 +1.1113082324418736e-02 -1.0333003109471606e+00 -5.8666847036742527e-02
6.2999999999999936e+00 +9.0992508185010887e+00 +0.0000000000000000e+00 +6.2999995556399568e+00 +1.1112910245247494e-02 -1.0333008196211884e+00 -5.8666987274528126e-02
6.3999999999999932e+00 +9.0991852471883199e+00 +0.0000000000000000e+00 +6.3999995341415250e+00 +1.1112746644860252e-02 -1.0333012642928190e+00 -5.8667143332740528e-02
6.4999999999999929e+00 +9.0991186431985334e+00 +0.0000000000000000e+00 +6.4999995119606213e+00 +1.1112592503183168e-02 -1.0333016463451405e+00 -5.8667316379650281e-02
6.5999999999999925e+00 +9.0990510065313526e+00 +0.0000000000000000e+00 +6.5999994890865805e+00 +1.1112448461114779e-02 -1.0333019680217113e+00 -5.8667507236272176e-02
6.6999999999999922e+00 +9.0989823371864631e+00 +0.0000000000000000e+00 +6.6999994655087391e+00 +1.1112313804014786e-02 -1.0333022350140804e+00 -5.8667715335311912e-02
6.7999999999999918e+00 +9.0989126351636056e+00 +0.0000000000000000e+00 +6.7999994412164320e+00 +1.1112187478480508e-02 -1.0333024538759146e+00 -5.8667939762449467e-02
6.8999999999999915e+00 +9.0988419004625687e+00 +0.0000000000000000e+00 +6.8999994161989946e+00 +1.1112068431250665e-02 -1.0333026311608278e+00 -5.8668179603413181e-02
6.9999999999999911e+00 +9.0987701330831801e+00 +0.0000000000000000e+00 +6.9999993904457636e+00 +1.1111955609211644e-02 -1.0333027734223890e+00 -5.8668433943982398e-02
7.0999999999999908e+00 +9.0986973330253065e+00 +0.0000000000000000e+00 +7.0999993639460737e+00 +1.1111847959403749e-02 -1.0333028872141294e+00 -5.8668701869990209e-02
7.1999999999999904e+00 +9.0986235002888414e+00 +0.0000000000000000e+00 +7.1999993366892605e+00 +1.1111744429027456e-02 -1.0333029790895525e+00 -5.8668982467326269e-02
7.2999999999999901e+00 +9.0985486348736995e+00 +0.0000000000000000e+00 +7.2999993086646606e+00 +1.1111643965449700e-02 -1.0333030556021370e+00 -5.8669274821939468e-02
7.3999999999999897e+00 +9.0984727367798115e+00 +0.0000000000000000e+00 +7.3999992798616088e+00 +1.1111545516210091e-02 -1.0333031233053493e+00 -5.8669578019840643e-02
7.4999999999999893e+00 +9.0983958060071188e+00 +0.0000000000000000e+00 +7.4999992502694415e+00 +1.1111448029027214e-02 -1.0333031887526469e+00 -5.8669891147105274e-02
7.5999999999999890e+00 +9.0983178425555629e+00 +0.0000000000000000e+00 +7.5999992198774935e+00 +1.1111350451804893e-02 -1.0333032584974884e+00 -5.8670213289876399e-02
7.6999999999999886e+00 +9.0982388464250814e+00 +0.0000000000000000e+00 +7.6999991886751014e+00 +1.1111251732638425e-02 -1.0333033390933388e+00 -5.8670543534367132e-02
7.7999999999999883e+00 +9.0981588176156016e+00 +0.0000000000000000e+00 +7.7999991566515998e+00 +1.1111150819820892e-02 -1.0333034370936798e+00 -5.8670880966863591e-02
7.8999999999999879e+00 +9.0980777561270347e+00 +0.0000000000000000e+00 +7.8999991237963254e+00 +1.1111046661849389e-02 -1.0333035590520148e+00 -5.8671224673727450e-02
7.9999999999999876e+00 +9.0979956619592652e+00 +0.0000000000000000e+00 +7.9999990900986138e+00 +1.1110938207431332e-02 -1.0333037115218775e+00 -5.8671573741398884e-02
8.0999999999999872e+00 +9.0979125351121493e+00 +0.0000000000000000e+00 +8.0999990555477996e+00 +1.1110824405490702e-02 -1.0333039010568386e+00 -5.8671927256399151e-02
8.1999999999999869e+00 +9.0978283755855074e+00 +0.0000000000000000e+00 +8.1999990201332196e+00 +1.1110704205174344e-02 -1.0333041342105143e+00 -5.8672284305333465e-02
8.2999999999999865e+00 +9.0977431833791140e+00 +0.0000000000000000e+00 +8.2999989838442083e+00 +1.1110576555858228e-02 -1.0333044175365731e+00 -5.8672643974893621e-02
8.3999999999999861e+00 +9.0976569584926938e+00 +0.0000000000000000e+00 +8.3999989466701024e+00 +1.1110440407153737e-02 -1.0333047575887426e+00 -5.8673005351860881e-02
8.4999999999999858e+00 +9.0975697009259164e+00 +0.0000000000000000e+00 +8.4999989086002365e+00 +1.1110294708913941e-02 -1.0333051609208175e+00 -5.8673367523108637e-02
8.5999999999999854e+00 +9.0974814106783874e+00 +0.0000000000000000e+00 +8.5999988696239456e+00 +1.1110138750702209e-02 -1.0333056319209586e+00 -5.8673729780643856e-02
8.6999999999999851e+00 +9.0973920877496468e+00 +0.0000000000000000e+00 +8.6999988297305659e+00 +1.1109973180076269e-02 -1.0333061663147469e+00 -5.8674092236669709e-02
8.7999999999999847e+00 +9.0973017321391687e+00 +0.0000000000000000e+00 +8.7999987889094307e+00 +1.1109798983910563e-02 -1.0333067576633068e+00 -5.8674455208310744e-02
8.8999999999999844e+00 +9.0972103438463741e+00 +0.0000000000000000e+00 +8.8999987471498780e+00 +1.1109617148866878e-02 -1.0333073995293187e+00 -5.8674819012536024e-02
8.9999999999999840e+00 +9.0971179228706305e+00 +0.0000000000000000e+00 +8.9999987044412411e+00 +1.1109428661387259e-02 -1.0333080854770686e+00 -5.8675183966154648e-02
9.0999999999999837e+00 +9.0970244692112630e+00 +0.0000000000000000e+00 +9.0999986607728545e+00 +1.1109234507686885e-02 -1.0333088090724936e+00 -5.8675550385811230e-02
9.1999999999999833e+00 +9.0969299828675592e+00 +0.0000000000000000e+00 +9.1999986161340548e+00 +1.1109035673747013e-02 -1.0333095638832333e+00 -5.8675918587981463e-02
9.2999999999999829e+00 +9.0968344638387748e+00 +0.0000000000000000e+00 +9.2999985705141750e+00 +1.1108833145307867e-02 -1.0333103434786763e+00 -5.8676288888967656e-02
9.3999999999999826e+00 +9.0967379121241425e+00 +0.0000000000000000e+00 +9.3999985239025516e+00 +1.1108627907861511e-02 -1.0333111414300098e+00 -5.8676661604894279e-02
9.4999999999999822e+00 +9.0966403277228753e+00 +0.0000000000000000e+00 +9.4999984762885195e+00 +1.1108420946644791e-02 -1.0333119513102649e+00 -5.8677037051703393e-02
9.5999999999999819e+00 +9.0965417106341739e+00 +0.0000000000000000e+00 +9.5999984276614132e+00 +1.1108213246632200e-02 -1.0333127666943693e+00 -5.8677415545150324e-02
9.6999999999999815e+00 +9.0964420608572354e+00 +0.0000000000000000e+00 +9.6999983780105659e+00 +1.1108005792528762e-02 -1.0333135811591907e+00 -5.8677797400798960e-02
9.7999999999999812e+00 +9.0963413783912568e+00 +0.0000000000000000e+00 +9.7999983273253140e+00 +1.1107799568762969e-02 -1.0333143882835896e+00 -5.8678182934017602e-02
9.8999999999999808e+00 +9.0962396632354423e+00 +0.0000000000000000e+00 +9.8999982755949922e+00 +1.1107595559479608e-02 -1.0333151816484658e+00 -5.8678572459974140e-02
9.9999999999999805e+00 +9.0961369153890121e+00 +0.0000000000000000e+00 +9.9999982228089337e+00 +1.1107394748532694e-02 -1.0333159548368054e+00 -5.8678966293631805e-02
1.0099999999999980e+01 +9.0960331348512025e+00 +0.0000000000000000e+00 +1.0099998168956475e+01 +1.1107198119478325e-02 -1.0333167014337292e+00 -5.8679364749744591e-02
1.0199999999999980e+01 +9.0959283216212814e+00 +0.0000000000000000e+00 +1.0199998114026950e+01 +1.1107006655567580e-02 -1.0333174150265465e+00 -5.8679768142852834e-02
1.0299999999999979e+01 +9.0958224756985455e+00 +0.0000000000000000e+00 +1.0299998058009693e+01 +1.1106821339739389e-02 -1.0333180892047953e+00 -5.8680176787278666e-02
1.0399999999999979e+01 +9.0957155970823340e+00 +0.0000000000000000e+00 +1.0399998000894040e+01 +1.1106643154613389e-02 -1.0333187175602954e+00 -5.8680590997121515e-02
1.0499999999999979e+01 +9.0956076857720287e+00 +0.0000000000000000e+00 +1.0499997942669324e+01 +1.1106473082482851e-02 -1.0333192936871971e+00 -5.8681011086253752e-02
1.0599999999999978e+01 +9.0954987417670683e+00 +0.0000000000000000e+00 +1.0599997883324882e+01 +1.1106311806501642e-02 -1.0333198123154457e+00 -5.8681437379965437e-02
1.0699999999999978e+01 +9.0953887650669447e+00 +0.0000000000000000e+00 +1.0699997822850046e+01 +1.1106158814398050e-02 -1.0333202727099222e+00 -5.8681870250048805e-02
1.0799999999999978e+01 +9.0952777556712103e+00 +0.0000000000000000e+00 +1.0799997761234152e+01 +1.1106013295300171e-02 -1.0333206752675248e+00 -5.8682310080089777e-02
1.0899999999999977e+01 +9.0951657135794743e+00 +0.0000000000000000e+00 +1.0899997698466537e+01 +1.1105874438638858e-02 -1.0333210203832013e+00 -5.8682757253856216e-02
1.0999999999999977e+01 +9.0950526387914028e+00 +0.0000000000000000e+00 +1.0999997634536534e+01 +1.1105741434155622e-02 -1.0333213084498978e+00 -5.8683212155303317e-02
1.1099999999999977e+01 +9.0949385313067221e+00 +0.0000000000000000e+00 +1.1099997569433478e+01 +1.1105613471910579e-02 -1.0333215398585025e+00 -5.8683675168578670e-02
1.1199999999999976e+01 +9.0948233911252121e+00 +0.0000000000000000e+00 +1.1199997503146705e+01 +1.1105489742290336e-02 -1.0333217149977920e+00 -5.8684146678027641e-02
1.1299999999999976e+01 +9.0947072182467092e+00 +0.0000000000000000e+00 +1.1299997435665549e+01 +1.1105369436015951e-02 -1.0333218342543813e+00 -5.8684627068198505e-02
1.1399999999999975e+01 +9.0945900126711070e+00 +0.0000000000000000e+00 +1.1399997366979347e+01 +1.1105251744150819e-02 -1.0333218980126651e+00 -5.8685116723847776e-02
1.1499999999999975e+01 +9.0944717743983539e+00 +0.0000000000000000e+00 +1.1499997297077433e+01 +1.1105135858108647e-02 -1.0333219066547679e+00 -5.8685616029945278e-02
1.1599999999999975e+01 +9.0943525034284534e+00 +0.0000000000000000e+00 +1.1599997225949142e+01 +1.1105020969661343e-02 -1.0333218605604877e+00 -5.8686125371679540e-02
1.1699999999999974e+01 +9.0942321997614659e+00 +0.0000000000000000e+00 +1.1699997153583810e+01 +1.1104906270947006e-02 -1.0333217601072444e+00 -5.8686645134462964e-02
1.1799999999999974e+01 +9.0941108633975034e+00 +0.0000000000000000e+00 +1.1799997079970773e+01 +1.1104790954477814e-02 -1.0333216056700261e+00 -5.8687175703936965e-02
