# field on trajectory
# s[mm] rx[mm] ry[mm] rz[mm] bx[T] by[T] bz[T]
0.0000000000000000e+00 +9.0998999999999999e+00 +0.0000000000000000e+00 +0.0000000000000000e+00 +1.1211125481637857e-02 -1.0338413915053317e+00 -5.8874974362624552e-02
1.0000000000000001e-01 +9.0998994834365732e+00 +0.0000000000000000e+00 +9.9999999998221081e-02 +1.1211006071690982e-02 -1.0338432900540309e+00 -5.8874497069575329e-02
2.0000000000000001e-01 +9.0998979337450656e+00 +0.0000000000000000e+00 +1.9999999998576862e-01 +1.1210883700212068e-02 -1.0338449620634931e+00 -5.8874036917281623e-02
3.0000000000000004e-01 +9.0998953509238074e+00 +0.0000000000000000e+00 +2.9999999995196908e-01 +1.1210758115025365e-02 -1.0338463906635269e+00 -5.8873593968554912e-02
4.0000000000000002e-01 +9.0998917349713722e+00 +0.0000000000000000e+00 +3.9999999988614876e-01 +1.1210629063977705e-02 -1.0338475589845582e+00 -5.8873168286203412e-02
5.0000000000000000e-01 +9.0998870858865946e+00 +0.0000000000000000e+00 +4.9999999977763410e-01 +1.1210496294943946e-02 -1.0338484501577359e+00 -5.8872759933038553e-02
5.9999999999999998e-01 +9.0998814036685847e+00 +0.0000000000000000e+00 +5.9999999961575134e-01 +1.1210359682647192e-02 -1.0338490561985973e+00 -5.8872369012653240e-02
6.9999999999999996e-01 +9.0998746883167367e+00 +0.0000000000000000e+00 +6.9999999938982682e-01 +1.1210219609100180e-02 -1.0338494046575855e+00 -5.8871995791740107e-02
7.9999999999999993e-01 +9.0998669398306991e+00 +0.0000000000000000e+00 +7.9999999908918695e-01 +1.1210076583148204e-02 -1.0338495319688723e+00 -5.8871640577772416e-02
8.9999999999999991e-01 +9.0998581582103419e+00 +0.0000000000000000e+00 +8.9999999870315794e-01 +1.1209931113649017e-02 -1.0338494745665574e+00 -5.8871303678233337e-02
9.9999999999999989e-01 +9.0998483434557205e+00 +0.0000000000000000e+00 +9.9999999822106611e-01 +1.1209783709468854e-02 -1.0338492688844594e+00 -5.8870985400617186e-02
1.0999999999999999e+00 +9.0998374955670389e+00 +0.0000000000000000e+00 +1.0999999976322379e+00 +1.1209634879478566e-02 -1.0338489513559233e+00 -5.8870686052431231e-02
1.2000000000000000e+00 +9.0998256145446135e+00 +0.0000000000000000e+00 +1.1999999969259996e+00 +1.1209485132549728e-02 -1.0338485584136137e+00 -5.8870405941197426e-02
1.3000000000000000e+00 +9.0998127003888332e+00 +0.0000000000000000e+00 +1.2999999960916777e+00 +1.1209334977550675e-02 -1.0338481264893209e+00 -5.8870145374453814e-02
1.4000000000000001e+00 +9.0997987531001296e+00 +0.0000000000000000e+00 +1.3999999951185986e+00 +1.1209184923342665e-02 -1.0338476920137567e+00 -5.8869904659756368e-02
1.5000000000000002e+00 +9.0997837726789346e+00 +0.0000000000000000e+00 +1.4999999939960889e+00 +1.1209035478775921e-02 -1.0338472914163563e+00 -5.8869684104680499e-02
1.6000000000000003e+00 +9.0997677591256476e+00 +0.0000000000000000e+00 +1.5999999927134747e+00 +1.1208887152685735e-02 -1.0338469611250769e+00 -5.8869484016822696e-02
1.7000000000000004e+00 +9.0997507124405974e+00 +0.0000000000000000e+00 +1.6999999912600825e+00 +1.1208740453888585e-02 -1.0338467375661979e+00 -5.8869304703802236e-02
1.8000000000000005e+00 +9.0997326326240060e+00 +0.0000000000000000e+00 +1.7999999896252390e+00 +1.1208595891178185e-02 -1.0338466571641214e+00 -5.8869146473262704e-02
1.9000000000000006e+00 +9.0997135196759515e+00 +0.0000000000000000e+00 +1.8999999877982703e+00 +1.1208453973321630e-02 -1.0338467563411726e+00 -5.8869009632873753e-02
2.0000000000000004e+00 +9.0996933735963346e+00 +0.0000000000000000e+00 +1.9999999857685029e+00 +1.1208315209055436e-02 -1.0338470715173973e+00 -5.8868894490332620e-02
2.1000000000000005e+00 +9.0996721943848389e+00 +0.0000000000000000e+00 +2.0999999835252630e+00 +1.1208180107081678e-02 -1.0338476391103635e+00 -5.8868801353365814e-02
2.2000000000000006e+00 +9.0996499820408978e+00 +0.0000000000000000e+00 +2.1999999810578772e+00 +1.1208049176064050e-02 -1.0338484955349612e+00 -5.8868730529730746e-02
2.3000000000000007e+00 +9.0996267365636534e+00 +0.0000000000000000e+00 +2.2999999783556713e+00 +1.1207922924623973e-02 -1.0338496772032015e+00 -5.8868682327217356e-02
2.4000000000000008e+00 +9.0996024579519261e+00 +0.0000000000000000e+00 +2.3999999754079715e+00 +1.1207801861336677e-02 -1.0338512205240169e+00 -5.8868657053649694e-02
2.5000000000000009e+00 +9.0995771462041724e+00 +0.0000000000000000e+00 +2.4999999722041037e+00 +1.1207686494727311e-02 -1.0338531619030604e+00 -5.8868655016887678e-02
2.6000000000000010e+00 +9.0995508013184505e+00 +0.0000000000000000e+00 +2.5999999687333939e+00 +1.1207577140651234e-02 -1.0338555262671290e+00 -5.8868676492134377e-02
2.7000000000000011e+00 +9.0995234232924052e+00 +0.0000000000000000e+00 +2.6999999649851674e+00 +1.1207473344472236e-02 -1.0338582926389759e+00 -5.8868721623819065e-02
2.8000000000000012e+00 +9.0994950121232776e+00 +0.0000000000000000e+00 +2.7999999609487500e+00 +1.1207374458962832e-02 -1.0338614285654817e+00 -5.8868790523613837e-02
2.9000000000000012e+00 +9.0994655678079379e+00 +0.0000000000000000e+00 +2.8999999566134669e+00 +1.1207279836932049e-02 -1.0338649015934671e+00 -5.8868883303110742e-02
3.0000000000000013e+00 +9.0994350903429222e+00 +0.0000000000000000e+00 +2.9999999519686429e+00 +1.1207188831230059e-02 -1.0338686792698233e+00 -5.8869000073813280e-02
3.1000000000000014e+00 +9.0994035797244610e+00 +0.0000000000000000e+00 +3.0999999470036026e+00 +1.1207100794752787e-02 -1.0338727291416512e+00 -5.8869140947127828e-02
3.2000000000000015e+00 +9.0993710359485149e+00 +0.0000000000000000e+00 +3.1999999417076710e+00 +1.1207015080446527e-02 -1.0338770187563928e+00 -5.8869306034355078e-02
3.3000000000000016e+00 +9.0993374590108012e+00 +0.0000000000000000e+00 +3.2999999360701722e+00 +1.1206931041312528e-02 -1.0338815156619663e+00 -5.8869495446681359e-02
3.4000000000000017e+00 +9.0993028489068344e+00 +0.0000000000000000e+00 +3.3999999300804307e+00 +1.1206848030411646e-02 -1.0338861874069019e+00 -5.8869709295170242e-02
3.5000000000000018e+00 +9.0992672056319517e+00 +0.0000000000000000e+00 +3.4999999237277706e+00 +1.1206765400868911e-02 -1.0338910015404745e+00 -5.8869947690753793e-02
3.6000000000000019e+00 +9.0992305291813480e+00 +0.0000000000000000e+00 +3.5999999170015156e+00 +1.1206682505878184e-02 -1.0338959256128408e+00 -5.8870210744224161e-02
3.7000000000000020e+00 +9.0991928195501099e+00 +0.0000000000000000e+00 +3.6999999098909893e+00 +1.1206598698706726e-02 -1.0339009271751711e+00 -5.8870498566224887e-02
3.8000000000000020e+00 +9.0991540767332459e+00 +0.0000000000000000e+00 +3.7999999023855149e+00 +1.1206513332699852e-02 -1.0339059737797867e+00 -5.8870811267242376e-02
3.9000000000000021e+00 +9.0991143007257200e+00 +0.0000000000000000e+00 +3.8999998944744161e+00 +1.1206425761285495e-02 -1.0339110329802932e+00 -5.8871148957597333e-02
4.0000000000000018e+00 +9.0990734915224838e+00 +0.0000000000000000e+00 +3.9999998861470156e+00 +1.1206335337978865e-02 -1.0339160723317138e+00 -5.8871511747436156e-02
4.1000000000000014e+00 +9.0990316491185066e+00 +0.0000000000000000e+00 +4.0999998773926363e+00 +1.1206241416387021e-02 -1.0339210593906281e+00 -5.8871899746722391e-02
4.2000000000000011e+00 +9.0989887735088146e+00 +0.0000000000000000e+00 +4.1999998682006012e+00 +1.1206143350213532e-02 -1.0339259617153027e+00 -5.8872313065228159e-02
4.3000000000000007e+00 +9.0989448646885140e+00 +0.0000000000000000e+00 +4.2999998585602333e+00 +1.1206040493263018e-02 -1.0339307468658276e+00 -5.8872751812525527e-02
4.4000000000000004e+00 +9.0988999226528318e+00 +0.0000000000000000e+00 +4.3999998484608547e+00 +1.1205932199445842e-02 -1.0339353824042521e+00 -5.8873216097978062e-02
4.5000000000000000e+00 +9.0988539473971422e+00 +0.0000000000000000e+00 +4.4999998378917887e+00 +1.1205817822782658e-02 -1.0339398358947185e+00 -5.8873706030732054e-02
4.5999999999999996e+00 +9.0988069389170025e+00 +0.0000000000000000e+00 +4.5999998268423576e+00 +1.1205696957532613e-02 -1.0339440808599063e+00 -5.8874221621724669e-02
4.6999999999999993e+00 +9.0987588972081745e+00 +0.0000000000000000e+00 +4.6999998153018829e+00 +1.1205570158521666e-02 -1.0339481146495828e+00 -5.8874762489842067e-02
4.7999999999999989e+00 +9.0987098222666347e+00 +0.0000000000000000e+00 +4.7999998032596878e+00 +1.1205438220680087e-02 -1.0339519405706044e+00 -5.8875328156079008e-02
4.8999999999999986e+00 +9.0986597140885621e+00 +0.0000000000000000e+00 +4.8999997907050945e+00 +1.1205301938900399e-02 -1.0339555619304264e+00 -5.8875918141562684e-02
4.9999999999999982e+00 +9.0986085726703454e+00 +0.0000000000000000e+00 +4.9999997776274254e+00 +1.1205162108033642e-02 -1.0339589820371382e+00 -5.8876531967563400e-02
5.0999999999999979e+00 +9.0985563980085704e+00 +0.0000000000000000e+00 +5.0999997640160029e+00 +1.1205019522885657e-02 -1.0339622041994974e+00 -5.8877169155505095e-02
5.1999999999999975e+00 +9.0985031901000220e+00 +0.0000000000000000e+00 +5.1999997498601491e+00 +1.1204874978213398e-02 -1.0339652317269608e+00 -5.8877829226976174e-02
5.2999999999999972e+00 +9.0984489489416820e+00 +0.0000000000000000e+00 +5.2999997351491865e+00 +1.1204729268721177e-02 -1.0339680679297187e+00 -5.8878511703739936e-02
5.3999999999999968e+00 +9.0983936745307208e+00 +0.0000000000000000e+00 +5.3999997198724383e+00 +1.1204583189057000e-02 -1.0339707161187288e+00 -5.8879216107745373e-02
5.4999999999999964e+00 +9.0983373668644969e+00 +0.0000000000000000e+00 +5.4999997040192259e+00 +1.1204437533808806e-02 -1.0339731796057483e+00 -5.8879941961137716e-02
5.5999999999999961e+00 +9.0982800259405554e+00 +0.0000000000000000e+00 +5.5999996875788716e+00 +1.1204293097500793e-02 -1.0339754617033678e+00 -5.8880688786269141e-02
5.6999999999999957e+00 +9.0982216517566208e+00 +0.0000000000000000e+00 +5.6999996705406986e+00 +1.1204150674589682e-02 -1.0339775657250438e+00 -5.8881456105709405e-02
5.7999999999999954e+00 +9.0981622443105969e+00 +0.0000000000000000e+00 +5.7999996528940292e+00 +1.1204011059460997e-02 -1.0339794949851329e+00 -5.8882243442256496e-02
5.8999999999999950e+00 +9.0981018036005619e+00 +0.0000000000000000e+00 +5.8999996346281858e+00 +1.1203875046425383e-02 -1.0339812527989249e+00 -5.8883050318947257e-02
5.9999999999999947e+00 +9.0980403296247641e+00 +0.0000000000000000e+00 +5.9999996157324906e+00 +1.1203743429714868e-02 -1.0339828424826742e+00 -5.8883876259068053e-02
6.0999999999999943e+00 +9.0979778223816226e+00 +0.0000000000000000e+00 +6.0999995961962670e+00 +1.1203617003479136e-02 -1.0339842673536364e+00 -5.8884720786165447e-02
6.1999999999999940e+00 +9.0979142818697198e+00 +0.0000000000000000e+00 +6.1999995760088371e+00 +1.1203496561781864e-02 -1.0339855307300982e+00 -5.8885583424056850e-02
6.2999999999999936e+00 +9.0978497080878000e+00 +0.0000000000000000e+00 +6.2999995551595234e+00 +1.1203382898596950e-02 -1.0339866359314127e+00 -5.8886463696841126e-02
6.3999999999999932e+00 +9.0977841010347653e+00 +0.0000000000000000e+00 +6.3999995336376490e+00 +1.1203276807804833e-02 -1.0339875862780317e+00 -5.8887361128909299e-02
6.4999999999999929e+00 +9.0977174607096725e+00 +0.0000000000000000e+00 +6.4999995114325371e+00 +1.1203179083188798e-02 -1.0339883850915399e+00 -5.8888275244955324e-02
6.5999999999999925e+00 +9.0976497871117292e+00 +0.0000000000000000e+00 +6.5999994885335100e+00 +1.1203090258272484e-02 -1.0339890371386564e+00 -5.8889205600242037e-02
6.6999999999999922e+00 +9.0975810802402908e+00 +0.0000000000000000e+00 +6.6999994649298920e+00 +1.1203009825869541e-02 -1.0339895529627836e+00 -5.8890151871230922e-02
6.7999999999999918e+00 +9.0975113400948491e+00 +0.0000000000000000e+00 +6.7999994406110051e+00 +1.1202937018644273e-02 -1.0339899445512297e+00 -5.8891113764555518e-02
6.8999999999999915e+00 +9.0974405666750169e+00 +0.0000000000000000e+00 +6.8999994155661728e+00 +1.1202871069290221e-02 -1.0339902238910552e+00 -5.8892090986721976e-02
6.9999999999999911e+00 +9.0973687599805242e+00 +0.0000000000000000e+00 +6.9999993897847181e+00 +1.1202811210531530e-02 -1.0339904029690534e+00 -5.8893083244102973e-02
7.0999999999999908e+00 +9.0972959200111969e+00 +0.0000000000000000e+00 +7.0999993632559644e+00 +1.1202756675124284e-02 -1.0339904937717312e+00 -5.8894090242931428e-02
7.1999999999999904e+00 +9.0972220467669516e+00 +0.0000000000000000e+00 +7.1999993359692347e+00 +1.1202706695857817e-02 -1.0339905082852854e+00 -5.8895111689294177e-02
7.2999999999999901e+00 +9.0971471402477810e+00 +0.0000000000000000e+00 +7.2999993079138532e+00 +1.1202660505556100e-02 -1.0339904584955830e+00 -5.8896147289125768e-02
7.3999999999999897e+00 +9.0970712004537422e+00 +0.0000000000000000e+00 +7.3999992790791422e+00 +1.1202617337079036e-02 -1.0339903563881414e+00 -5.8897196748202187e-02
7.4999999999999893e+00 +9.0969942273849433e+00 +0.0000000000000000e+00 +7.4999992494544268e+00 +1.1202576423323828e-02 -1.0339902139481039e+00 -5.8898259772134587e-02
7.5999999999999890e+00 +9.0969162210415355e+00 +0.0000000000000000e+00 +7.5999992190290291e+00 +1.1202536997226309e-02 -1.0339900431602238e+00 -5.8899336066363023e-02
7.6999999999999886e+00 +9.0968371814236946e+00 +0.0000000000000000e+00 +7.6999991877922733e+00 +1.1202498291762284e-02 -1.0339898560088372e+00 -5.8900425336150197e-02
7.7999999999999883e+00 +9.0967571085316159e+00 +0.0000000000000000e+00 +7.7999991557334827e+00 +1.1202459539948875e-02 -1.0339896644778481e+00 -5.8901527286575210e-02
7.8999999999999879e+00 +9.0966760023654984e+00 +0.0000000000000000e+00 +7.8999991228419812e+00 +1.1202419974845864e-02 -1.0339894805507026e+00 -5.8902641622527244e-02
7.9999999999999876e+00 +9.0965938629255341e+00 +0.0000000000000000e+00 +7.9999990891070931e+00 +1.1202378829557026e-02 -1.0339893162103702e+00 -5.8903768048699311e-02
8.0999999999999872e+00 +9.0965106902118951e+00 +0.0000000000000000e+00 +8.0999990545181415e+00 +1.1202335337231483e-02 -1.0339891834393213e+00 -5.8904906269582002e-02
8.1999999999999869e+00 +9.0964264842247218e+00 +0.0000000000000000e+00 +8.1999990190644496e+00 +1.1202288731065057e-02 -1.0339890942195080e+00 -5.8906055989457182e-02
8.2999999999999865e+00 +9.0963412449641101e+00 +0.0000000000000000e+00 +8.2999989827353406e+00 +1.1202238244301587e-02 -1.0339890605323401e+00 -5.8907216912391723e-02
8.3999999999999861e+00 +9.0962549724301027e+00 +0.0000000000000000e+00 +8.3999989455201387e+00 +1.1202183110234305e-02 -1.0339890943586671e+00 -5.8908388742231269e-02
8.4999999999999858e+00 +9.0961676666226747e+00 +0.0000000000000000e+00 +8.4999989074081661e+00 +1.1202122562207166e-02 -1.0339892076787534e+00 -5.8909571182593823e-02
8.5999999999999854e+00 +9.0960793275417213e+00 +0.0000000000000000e+00 +8.5999988683887469e+00 +1.1202056051332713e-02 -1.0339894088615027e+00 -5.8910763710002194e-02
8.6999999999999851e+00 +9.0959899551870507e+00 +0.0000000000000000e+00 +8.6999988284512053e+00 +1.1201983899625744e-02 -1.0339896918315583e+00 -5.8911964893427940e-02
8.7999999999999847e+00 +9.0958995495583910e+00 +0.0000000000000000e+00 +8.7999987875848635e+00 +1.1201906646758892e-02 -1.0339900469015726e+00 -5.8913173075178585e-02
8.8999999999999844e+00 +9.0958081106553976e+00 +0.0000000000000000e+00 +8.8999987457790457e+00 +1.1201824832317910e-02 -1.0339904643831404e+00 -5.8914386597822367e-02
8.9999999999999840e+00 +9.0957156384776638e+00 +0.0000000000000000e+00 +8.9999987030230741e+00 +1.1201738995799045e-02 -1.0339909345867644e+00 -5.8915603804196304e-02
9.0999999999999837e+00 +9.0956221330247295e+00 +0.0000000000000000e+00 +9.0999986593062712e+00 +1.1201649676606359e-02 -1.0339914478218264e+00 -5.8916823037414162e-02
9.1999999999999833e+00 +9.0955275942960938e+00 +0.0000000000000000e+00 +9.1999986146179609e+00 +1.1201557414049081e-02 -1.0339919943965528e+00 -5.8918042640874579e-02
9.2999999999999829e+00 +9.0954320222912219e+00 +0.0000000000000000e+00 +9.2999985689474656e+00 +1.1201462747338960e-02 -1.0339925646179866e+00 -5.8919260958269000e-02
9.3999999999999826e+00 +9.0953354170095526e+00 +0.0000000000000000e+00 +9.3999985222841076e+00 +1.1201366215587582e-02 -1.0339931487919514e+00 -5.8920476333589822e-02
9.4999999999999822e+00 +9.0952377784505156e+00 +0.0000000000000000e+00 +9.4999984746172110e+00 +1.1201268357803728e-02 -1.0339937372230232e+00 -5.8921687111138391e-02
9.5999999999999819e+00 +9.0951391066135336e+00 +0.0000000000000000e+00 +9.5999984259360964e+00 +1.1201169712890698e-02 -1.0339943202144954e+00 -5.8922891635532972e-02
9.6999999999999815e+00 +9.0950394014980347e+00 +0.0000000000000000e+00 +9.6999983762300896e+00 +1.1201070819643675e-02 -1.0339948880683527e+00 -5.8924088251717001e-02
9.7999999999999812e+00 +9.0949386631034628e+00 +0.0000000000000000e+00 +9.7999983254885112e+00 +1.1200972216747018e-02 -1.0339954310852315e+00 -5.8925275304966877e-02
9.8999999999999808e+00 +9.0948368914292885e+00 +0.0000000000000000e+00 +9.8999982737006853e+00 +1.1200874442771623e-02 -1.0339959395643963e+00 -5.8926451140900234e-02
9.9999999999999805e+00 +9.0947340864750146e+00 +0.0000000000000000e+00 +9.9999982208559342e+00 +1.1200778036172242e-02 -1.0339964038037017e+00 -5.8927614105483840e-02
1.0099999999999980e+01 +9.0946302482401880e+00 +0.0000000000000000e+00 +1.0099998166943580e+01 +1.1200683535284833e-02 -1.0339968140995650e+00 -5.8928762545041799e-02
1.0199999999999980e+01 +9.0945253767244107e+00 +0.0000000000000000e+00 +1.0199998111952945e+01 +1.1200591478323854e-02 -1.0339971607469325e+00 -5.8929894806263455e-02
1.0299999999999979e+01 +9.0944194719273490e+00 +0.0000000000000000e+00 +1.0299998055873354e+01 +1.1200502403379614e-02 -1.0339974340392484e+00 -5.8931009236211578e-02
1.0399999999999979e+01 +9.0943125338487416e+00 +0.0000000000000000e+00 +1.0399997998694129e+01 +1.1200416848415589e-02 -1.0339976242684232e+00 -5.8932104182330365e-02
1.0499999999999979e+01 +9.0942045624884109e+00 +0.0000000000000000e+00 +1.0499997940404594e+01 +1.1200335351265753e-02 -1.0339977217248024e+00 -5.8933177992453525e-02
1.0599999999999978e+01 +9.0940955578462717e+00 +0.0000000000000000e+00 +1.0599997880994071e+01 +1.1200258281734689e-02 -1.0339977204137465e+00 -5.8934229646030539e-02
1.0699999999999978e+01 +9.0939855199223345e+00 +0.0000000000000000e+00 +1.0699997820451884e+01 +1.1200185337960406e-02 -1.0339976292080932e+00 -5.8935260647561105e-02
1.0799999999999978e+01 +9.0938744487167025e+00 +0.0000000000000000e+00 +1.0799997758767356e+01 +1.1200116050299677e-02 -1.0339974607009288e+00 -5.8936273132186294e-02
1.0899999999999977e+01 +9.0937623442295550e+00 +0.0000000000000000e+00 +1.0899997695929811e+01 +1.1200049949274617e-02 -1.0339972274890350e+00 -5.8937269234278729e-02
1.0999999999999977e+01 +9.0936492064611372e+00 +0.0000000000000000e+00 +1.0999997631928572e+01 +1.1199986565576995e-02 -1.0339969421729822e+00 -5.8938251087423288e-02
1.1099999999999977e+01 +9.0935350354117439e+00 +0.0000000000000000e+00 +1.1099997566752963e+01 +1.1199925430072590e-02 -1.0339966173572159e+00 -5.8939220824398085e-02
1.1199999999999976e+01 +9.0934198310817109e+00 +0.0000000000000000e+00 +1.1199997500392307e+01 +1.1199866073805517e-02 -1.0339962656501498e+00 -5.8940180577155291e-02
1.1299999999999976e+01 +9.0933035934714006e+00 +0.0000000000000000e+00 +1.1299997432835928e+01 +1.1199808028002585e-02 -1.0339958996642580e+00 -5.8941132476802070e-02
1.1399999999999975e+01 +9.0931863225811895e+00 +0.0000000000000000e+00 +1.1399997364073151e+01 +1.1199750824077597e-02 -1.0339955320161609e+00 -5.8942078653581295e-02
1.1499999999999975e+01 +9.0930680184114578e+00 +0.0000000000000000e+00 +1.1499997294093300e+01 +1.1199693993635745e-02 -1.0339951753267187e+00 -5.8943021236852522e-02
1.1599999999999975e+01 +9.0929486809625732e+00 +0.0000000000000000e+00 +1.1599997222885696e+01 +1.1199637068477925e-02 -1.0339948422211227e+00 -5.8943962355072786e-02
1.1699999999999974e+01 +9.0928283102348804e+00 +0.0000000000000000e+00 +1.1699997150439664e+01 +1.1199579580605095e-02 -1.0339945453289821e+00 -5.8944904135777437e-02
1.1799999999999974e+01 +9.0927069062286865e+00 +0.0000000000000000e+00 +1.1799997076744528e+01 +1.1199521062222618e-02 -1.0339942972844183e+00 -5.8945848705561021e-02
