# multipoles
# s[mm] polynom_b[n=0][T/m^n] polynom_b[n=1][T/m^n] polynom_b[n=2][T/m^n] polynom_b[n=3][T/m^n] polynom_b[n=4][T/m^n] polynom_b[n=5][T/m^n] polynom_b[n=6][T/m^n] 
+0.0000000000000000e+00 -1.0339477833883122e+00 +2.2912871495993770e+00 +2.7216491861072175e+01 -1.5342015290807285e+02 -1.3647483563146749e+05 +1.1490086889443817e+06 +7.0018681606972671e+08 
+1.0000000000000001e-01 -1.0339505056089524e+00 +2.2913639561876606e+00 +2.7106243443956863e+01 -1.4981112080555437e+02 -1.3370649830370198e+05 +1.1265968895446542e+06 +6.8616770545529461e+08 
+2.0000000000000001e-01 -1.0339530581642808e+00 +2.2914346828396872e+00 +2.6985985762664662e+01 -1.4606427685137879e+02 -1.3078236944247433e+05 +1.1036376924733699e+06 +6.7146431192448509e+08 
+3.0000000000000004e-01 -1.0339554310996255e+00 +2.2914993876330723e+00 +2.6855159824605693e+01 -1.4218392758305282e+02 -1.2769371790722353e+05 +1.0801835288165715e+06 +6.5603648227300131e+08 
+4.0000000000000002e-01 -1.0339576144602733e+00 +2.2915581287189135e+00 +2.6713206634909856e+01 -1.3817438123875104e+02 -1.2443181255125580e+05 +1.0562868389555041e+06 +6.3984406334863842e+08 
+5.0000000000000000e-01 -1.0339595982915357e+00 +2.2916109643323637e+00 +2.6559567204446449e+01 -1.3403994802266885e+02 -1.2098792237570485e+05 +1.0320000740510368e+06 +6.2284690278387225e+08 
+5.9999999999999998e-01 -1.0339613783387500e+00 +2.2916579334245721e+00 +2.6393973584515511e+01 -1.2978592340111371e+02 -1.1735745972687975e+05 +1.0073811295195813e+06 +6.0502252674862266e+08 
+6.9999999999999996e-01 -1.0339629731469746e+00 +2.2916990039087541e+00 +2.6217322036102509e+01 -1.2542157990006338e+02 -1.1355240268816936e+05 +9.8250912622658873e+05 +5.8641913448378265e+08 
+7.9999999999999993e-01 -1.0339644069609331e+00 +2.2917341275542893e+00 +2.6030799864207903e+01 -1.2095719570774941e+02 -1.0958886855401790e+05 +9.5746836653187627e+05 +5.6710258208029079e+08 
+8.9999999999999991e-01 -1.0339657040253698e+00 +2.2917632561573251e+00 +2.5835594382106652e+01 -1.1640304989433567e+02 -1.0548297482709007e+05 +9.3234315876605641e+05 +5.4713872669298470e+08 
+9.9999999999999989e-01 -1.0339668885849636e+00 +2.2917863415136033e+00 +2.5632892899352928e+01 -1.1176942180358085e+02 -1.0125083897510529e+05 +9.0721781417693757e+05 +5.2659342532797420e+08 
+1.0999999999999999e+00 -1.0339679848844014e+00 +2.2918033354095253e+00 +2.5423882732760418e+01 -1.0706659092194030e+02 -9.6908578651740012e+04 +8.8217664648519771e+05 +5.0553253591805655e+08 
+1.2000000000000000e+00 -1.0339690171683673e+00 +2.2918141896068711e+00 +2.5209751205262521e+01 -1.0230483661595754e+02 -9.2472311672444383e+04 +8.5730397084765485e+05 +4.8402191718766177e+08 
+1.3000000000000000e+00 -1.0339700096814688e+00 +2.2918188558279309e+00 +2.4991685636406210e+01 -9.7494437829031710e+01 -8.7958155831544078e+04 +8.3268410240434634e+05 +4.6212742776771784e+08 
+1.4000000000000001e+00 -1.0339709866683771e+00 +2.2918172857363337e+00 +2.4770873361571411e+01 -9.2645672681998846e+01 -8.3382229272397773e+04 +8.0840135437637544e+05 +4.3991492795726180e+08 
+1.5000000000000002e+00 -1.0339719723737082e+00 +2.2918094309281996e+00 +2.4548501716977896e+01 -8.7768818382059720e+01 -7.8760650202449746e+04 +7.8454003796711599e+05 +4.1745027835742646e+08 
+1.6000000000000003e+00 -1.0339729910420796e+00 +2.2917952429044228e+00 +2.4325758046851124e+01 -8.2874150549951096e+01 -7.4109537026795369e+04 +7.6118445877762977e+05 +3.9479934048749226e+08 
+1.7000000000000004e+00 -1.0339740669181092e+00 +2.2917746730774620e+00 +2.4103829704633167e+01 -7.7971943592831153e+01 -6.9445008375737190e+04 +7.3841891944971168e+05 +3.7202797691995603e+08 
+1.8000000000000005e+00 -1.0339752242464026e+00 +2.2917476727304051e+00 +2.3883904051711195e+01 -7.3072469643000019e+01 -6.4783183081547490e+04 +7.1632771380117838e+05 +3.4920205115825349e+08 
+1.9000000000000006e+00 -1.0339764872715693e+00 +2.2917141930182918e+00 +2.3667168459102587e+01 -6.8185998761645493e+01 -6.0140180207462436e+04 +6.9499512846196396e+05 +3.2638742775763488e+08 
+2.0000000000000004e+00 -1.0339778802382413e+00 +2.2916741849527469e+00 +2.3454810311810935e+01 -6.3322798658972545e+01 -5.5532119137116024e+04 +6.7450544165846764e+05 +3.0364997275512791e+08 
+2.1000000000000005e+00 -1.0339794273910081e+00 +2.2916275993742272e+00 +2.3248016999252958e+01 -5.8493134009978490e+01 -5.0975119383772391e+04 +6.5494291956655716e+05 +2.8105555272976512e+08 
+2.2000000000000006e+00 -1.0339811529744853e+00 +2.2915743869481258e+00 +2.3047975926601328e+01 -5.3707266519629378e+01 -4.6485300822043500e+04 +6.3639181713711494e+05 +2.5867003593614948e+08 
+2.3000000000000007e+00 -1.0339830812333062e+00 +2.2915144981501161e+00 +2.2855874511920714e+01 -4.8975454635561384e+01 -4.2078783616685847e+04 +6.1893637678974762e+05 +2.3655929190930521e+08 
+2.4000000000000008e+00 -1.0339852364121127e+00 +2.2914478832392460e+00 +2.2672900187700098e+01 -4.4307952924853453e+01 -3.7771688268031488e+04 +6.0266082519889961e+05 +2.1478919171285513e+08 
+2.5000000000000009e+00 -1.0339876427555206e+00 +2.2913744922559469e+00 +2.2500240395116933e+01 -3.9715012134830474e+01 -3.3580135487138919e+04 +5.8764937380364491e+05 +1.9342560727695698e+08 
+2.6000000000000010e+00 -1.0339903170854245e+00 +2.2912942374014631e+00 +2.2338739098150214e+01 -3.5201455202354104e+01 -2.9515786877920807e+04 +5.7393959065715887e+05 +1.7251649260652623e+08 
+2.7000000000000011e+00 -1.0339932465375219e+00 +2.2912067954938817e+00 +2.2187868483104666e+01 -3.0748604427393822e+01 -2.5572655450332790e+04 +5.6137639834933670e+05 +1.5203966182208055e+08 
+2.8000000000000012e+00 -1.0339964108283513e+00 +2.2911117625243582e+00 +2.2046758673822715e+01 -2.6331412160972885e+01 -2.1740396393352305e+04 +5.4975468042534019e+05 +1.3195580857307716e+08 
+2.9000000000000012e+00 -1.0339997896743593e+00 +2.2910087345045573e+00 +2.1914539782847186e+01 -2.1924830397786689e+01 -1.8008664673162486e+04 +5.3886931531375344e+05 +1.1222562550377369e+08 
+3.0000000000000013e+00 -1.0340033627917471e+00 +2.2908973074627617e+00 +2.1790341890201283e+01 -1.7503810476851761e+01 -1.4367114607597397e+04 +5.2851517397172272e+05 +9.2809802184803098e+07 
+3.1000000000000014e+00 -1.0340071098965384e+00 +2.2907770774623994e+00 +2.1673295051398938e+01 -1.3043303453059856e+01 -1.0805400016377445e+04 +5.1848712152106024e+05 +7.3669025841781437e+07 
+3.2000000000000015e+00 -1.0340110107045717e+00 +2.2906476406100174e+00 +2.1562529295964616e+01 -8.5182601239519933e+00 -7.3131741909185957e+03 +5.0858001677220268e+05 +5.4763981227103047e+07 
+3.3000000000000016e+00 -1.0340150449314205e+00 +2.2905085930673561e+00 +2.1457174615672720e+01 -3.9036311923847657e+00 -3.8800896557870819e+03 +4.9858871258431760e+05 +3.6055349462696716e+07 
+3.4000000000000017e+00 -1.0340191922924489e+00 +2.2903595310518261e+00 +2.1356360972123571e+01 +8.2563290242040721e-01 -4.9579831755037202e+02 +4.8830805431153858e+05 +1.7503808779213239e+07 
+3.5000000000000018e+00 -1.0340234325027340e+00 +2.2902000508580000e+00 +2.1259218285478710e+01 +5.6945815601228045e+00 +2.8500487609464653e+03 +4.7753288165244204e+05 -9.2996656687229068e+05 
+3.6000000000000019e+00 -1.0340277452771358e+00 +2.2900297488607180e+00 +2.1164876442276739e+01 +1.0728264103810750e+01 +6.1678012175052536e+03 +4.6605802762005985e+05 -1.9285305611281864e+07 
+3.7000000000000020e+00 -1.0340321103301902e+00 +2.2898482215248164e+00 +2.1072465281150357e+01 +1.5951729714052778e+01 +9.4678096707367877e+03 +4.5367831824705336e+05 -3.7601542018447034e+07 
+3.8000000000000020e+00 -1.0340365073761846e+00 +2.2896550654160648e+00 +2.0981114602644180e+01 +2.1390027267194945e+01 +1.2760425527831940e+04 +4.4018857304008398e+05 -5.5918013129014261e+07 
+3.9000000000000021e+00 -1.0340409161290676e+00 +2.2894498772127672e+00 +2.0889954155801991e+01 +2.7068205220118827e+01 +1.6056001259912358e+04 +4.2538360496098385e+05 -7.4274061312782809e+07 
+4.0000000000000018e+00 -1.0340453163024714e+00 +2.2892322537122123e+00 +2.0798113640809021e+01 +3.3011311587441398e+01 +1.9364890347775290e+04 +4.0905822005531040e+05 -9.2709033673810259e+07 
+4.1000000000000014e+00 -1.0340496876096983e+00 +2.2890017918373764e+00 +2.0704722706650522e+01 +3.9244393943071742e+01 +2.2697447334120596e+04 +3.9100721681839391e+05 -1.1126228230318846e+08 
+4.2000000000000011e+00 -1.0340540097636985e+00 +2.2887580886569676e+00 +2.0608910947018341e+01 +4.5792499049473868e+01 +2.6064027910396526e+04 +3.7102538770386227e+05 -1.2997316469805521e+08 
+4.3000000000000007e+00 -1.0340582624770802e+00 +2.2885007413859997e+00 +2.0509807901032271e+01 +5.2680672994497414e+01 +2.9474988906592807e+04 +3.4890751785367442e+05 -1.4888104370172387e+08 
+4.4000000000000004e+00 -1.0340624254620370e+00 +2.2882293474001312e+00 +2.0406543043887869e+01 +5.9933960990776733e+01 +3.2940688472958522e+04 +3.2444838558265555e+05 -1.6802528836068070e+08 
+4.5000000000000000e+00 -1.0340664784304174e+00 +2.2879435042473668e+00 +2.0298245794575319e+01 +6.7577407020722461e+01 +3.6471485918889164e+04 +2.9744276557197695e+05 -1.8744527298002937e+08 
+4.5999999999999996e+00 -1.0340704048192451e+00 +2.2876430871370865e+00 +2.0184261061715848e+01 +7.5626365793322648e+01 +4.0074683980760456e+04 +2.6775478550677421e+05 -2.0716721348739415e+08 
+4.6999999999999993e+00 -1.0340742028723702e+00 +2.2873291042075654e+00 +2.0064766788028145e+01 +8.4056831799337985e+01 +4.3746172269842005e+04 +2.3552408490980341e+05 -2.2716987356106392e+08 
+4.7999999999999989e+00 -1.0340778745080013e+00 +2.2870028569645626e+00 +1.9940141277922812e+01 +9.2834621323473385e+01 +4.7479205092013472e+04 +2.0096013908558944e+05 -2.4742150851769787e+08 
+4.8999999999999986e+00 -1.0340814216446670e+00 +2.2866656469185744e+00 +1.9810762872893996e+01 +1.0192555076072843e+02 +5.1267036069276895e+04 +1.6427242213890250e+05 -2.6789037051394486e+08 
+4.9999999999999982e+00 -1.0340848462012087e+00 +2.2863187755759000e+00 +1.9677009952661951e+01 +1.1129543700599456e+02 +5.5102918079507413e+04 +1.2567040429954212e+05 -2.8854470813409996e+08 
+5.0999999999999979e+00 -1.0340881500968222e+00 +2.2859635444327879e+00 +1.9539260939892596e+01 +1.2091009760326516e+02 +5.8980103171564828e+04 +8.5363551126127277e+04 -3.0935276600313753e+08 
+5.1999999999999975e+00 -1.0340913352511141e+00 +2.2856012549758105e+00 +1.9397894308053040e+01 +1.3073535070568923e+02 +6.2891842406432792e+04 +4.3561323845606341e+04 -3.3028278401075774e+08 
+5.2999999999999972e+00 -1.0340944035840429e+00 +2.2852332086810190e+00 +1.9253288572554617e+01 +1.4073701507650446e+02 +6.6831386034295167e+04 +4.7317943883258619e+02 -3.5130299817945284e+08 
+5.3999999999999968e+00 -1.0340973570160237e+00 +2.2848607070140026e+00 +1.9105822305366932e+01 +1.5088091005590107e+02 +7.0791983206131539e+04 -4.3691429057552246e+04 -3.7238163927154171e+08 
+5.4999999999999964e+00 -1.0341001974679469e+00 +2.2844850514239203e+00 +1.8955874136823073e+01 +1.6113285571423413e+02 +7.4766881937329876e+04 -8.8723053362214763e+04 -3.9348693260919774e+08 
+5.5999999999999961e+00 -1.0341029268611137e+00 +2.2841075433518081e+00 +1.8803822746490553e+01 +1.7145867257484520e+02 +7.8749329291045637e+04 -1.3441224820595793e+05 -4.1458709898426199e+08 
+5.6999999999999957e+00 -1.0341055471173723e+00 +2.2837294842229947e+00 +1.8650046881958282e+01 +1.8182418183001334e+02 +8.2732571006829123e+04 -1.8054957256769008e+05 -4.3565035285344821e+08 
+5.7999999999999954e+00 -1.0341080601590773e+00 +2.2833521754430430e+00 +1.8494925352379408e+01 +1.9219520540539702e+02 +8.6709851626443109e+04 -2.2692558986134210e+05 -4.5664490294979280e+08 
+5.8999999999999950e+00 -1.0341104679091142e+00 +2.2829769184009066e+00 +1.8338837032198203e+01 +2.0253756585709866e+02 +9.0674414423195150e+04 -2.7333086729113472e+05 -4.7753895195192623e+08 
+5.9999999999999947e+00 -1.0341127722909980e+00 +2.2826050144739658e+00 +1.8182160872927945e+01 +2.1281708619795882e+02 +9.4619501174340839e+04 -3.1955597473785910e+05 -4.9830069539548075e+08 
+6.0999999999999943e+00 -1.0341149752287500e+00 +2.2822377650143957e+00 +1.8025275888386549e+01 +2.2299959026457009e+02 +9.8538352440500050e+04 -3.6539148679064796e+05 -5.1889832300436300e+08 
+6.1999999999999940e+00 -1.0341170786470646e+00 +2.2818764713578314e+00 +1.7868561174971383e+01 +2.3305090244543126e+02 +1.0242420717869417e+05 -4.1062798109046096e+05 -5.3930001684797072e+08 
+6.2999999999999936e+00 -1.0341190844712713e+00 +2.2815224348175835e+00 +1.7712395906850389e+01 +2.4293684781423497e+02 +1.0627030283336602e+05 -4.5505603897403838e+05 -5.5947395177944946e+08 
+6.3999999999999932e+00 -1.0341209946273537e+00 +2.2811769566821196e+00 +1.7557159339026075e+01 +2.5262325218136135e+02 +1.1006987527266367e+05 -4.9846624569916294e+05 -5.7938829512033296e+08 
+6.4999999999999929e+00 -1.0341228110419720e+00 +2.2808413382062613e+00 +1.7403230806261178e+01 +2.6207594217140070e+02 +1.1381615880704418e+05 -5.4064919181099825e+05 -5.9901120685839784e+08 
+6.5999999999999925e+00 -1.0341245362221969e+00 +2.2805166781998185e+00 +1.7250930276533815e+01 +2.7126289764074244e+02 +1.1750362949998127e+05 -5.8140518998894445e+05 -6.1831673140735257e+08 
+6.6999999999999922e+00 -1.0341261751024606e+00 +2.2802034329137526e+00 +1.7100369838273132e+01 +2.8015792181904516e+02 +1.2113128152222610e+05 -6.2056082974354958e+05 -6.3730029328406978e+08 
+6.7999999999999918e+00 -1.0341277332461210e+00 +2.2799019377667165e+00 +1.6951615587797331e+01 +2.8873559456398135e+02 +1.2469915245433711e+05 -6.5794639791053138e+05 -6.5596224455010951e+08 
+6.8999999999999915e+00 -1.0341292162169098e+00 +2.2796125282160897e+00 +1.6804733684258082e+01 +2.9697049326161476e+02 +1.2820727870179732e+05 -6.9339216466798540e+05 -6.7430293198114312e+08 
+6.9999999999999911e+00 -1.0341306295789165e+00 +2.2793355397675779e+00 +1.6659790351090130e+01 +3.0483719242433341e+02 +1.3165569545137987e+05 -7.2672837991878332e+05 -6.9232269691882336e+08 
+7.0999999999999908e+00 -1.0341319788966343e+00 +2.2790713079629841e+00 +1.6516851881144824e+01 +3.1231026396569479e+02 +1.3504443658309564e+05 -7.5778527466138394e+05 -7.1002187489083934e+08 
+7.1999999999999904e+00 -1.0341332697349594e+00 +2.2788201683926106e+00 +1.6375984637777371e+01 +3.1936427678661590e+02 +1.3837353464390562e+05 -7.8639305846296344e+05 -7.2740079548127341e+08 
+7.2999999999999901e+00 -1.0341345076591582e+00 +2.2785824566860611e+00 +1.6237255051709059e+01 +3.2597379694739885e+02 +1.4164302090895030e+05 -8.1238192020155711e+05 -7.4445978264216864e+08 
+7.3999999999999897e+00 -1.0341356982349554e+00 +2.2783585085240530e+00 +1.6100729631703015e+01 +3.3211338727477141e+02 +1.4485292518364434e+05 -8.3558202564945037e+05 -7.6119915377828193e+08 
+7.4999999999999893e+00 -1.0341368470285055e+00 +2.2781486596291503e+00 +1.5966474963184252e+01 +3.3775760754095160e+02 +1.4800327582110421e+05 -8.5582351829167246e+05 -7.7761921981828058e+08 
+7.5999999999999890e+00 -1.0341379596063598e+00 +2.2779532457771348e+00 +1.5834557703547231e+01 +3.4288101407372466e+02 +1.5109409981823506e+05 -8.7293651689034328e+05 -7.9372028570225596e+08 
+7.6999999999999886e+00 -1.0341390415355345e+00 +2.2777726027915821e+00 +1.5705044591796423e+01 +3.4745815984300640e+02 +1.5412542263278191e+05 -8.8675111581101536e+05 -8.0950264952964783e+08 
+7.7999999999999883e+00 -1.0341400983835181e+00 +2.2776070665472199e+00 +1.5578002449947412e+01 +3.5146359426883265e+02 +1.5709726815556161e+05 -8.9709738365497428e+05 -8.2496660243347251e+08 
+7.8999999999999879e+00 -1.0341411357182324e+00 +2.2774569729731793e+00 +1.5453498179782287e+01 +3.5487186309593233e+02 +1.6000965876683613e+05 -9.0380536246184551e+05 -8.4011242884732628e+08 
+7.9999999999999876e+00 -1.0341421591080764e+00 +2.2773226580479728e+00 +1.5331598766805072e+01 +3.5765750842248838e+02 +1.6286261527676662e+05 -9.0670506754859339e+05 -8.5494040627981257e+08 
+8.0999999999999872e+00 -1.0341431741219416e+00 +2.2772044578088049e+00 +1.5212371285648596e+01 +3.5979506839799086e+02 +1.6565615680316900e+05 -9.0562648570154270e+05 -8.6945080469183934e+08 
+8.1999999999999869e+00 -1.0341441863292036e+00 +2.2771027083488535e+00 +1.5095882897648739e+01 +3.6125907719787062e+02 +1.6839030083443323e+05 -9.0039957472659566e+05 -8.8364388685566258e+08 
+8.2999999999999865e+00 -1.0341452012997534e+00 +2.2770177458192116e+00 +1.4982200856315355e+01 +3.6202406491576221e+02 +1.7106506311421818e+05 -8.9085426270821644e+05 -8.9751990778675914e+08 
+8.3999999999999861e+00 -1.0341462246039457e+00 +2.2769499064278649e+00 +1.4871392501160893e+01 +3.6206455751550101e+02 +1.7368045776734978e+05 -8.7682044752779999e+05 -9.1107911538104498e+08 
+8.4999999999999858e+00 -1.0341472618128185e+00 +2.2768995264162255e+00 +1.4763525285331742e+01 +3.6135507931735566e+02 +1.7623649697823642e+05 -8.5812802114606556e+05 -9.2432175006741941e+08 
+8.5999999999999854e+00 -1.0341483167908689e+00 +2.2768666761966818e+00 +1.4658628692820129e+01 +3.5988351245872667e+02 +1.7873354427111457e+05 -8.3470034877192974e+05 -9.3725024323205674e+08 
+8.6999999999999851e+00 -1.0341493863540947e+00 +2.2768502175058867e+00 +1.4556578628498194e+01 +3.5769294742434869e+02 +1.8117258289992210e+05 -8.0682749389525375e+05 -9.4986925383690071e+08 
+8.7999999999999847e+00 -1.0341504655239622e+00 +2.2768486604859257e+00 +1.4457216562706478e+01 +3.5484140610317917e+02 +1.8355446791023202e+05 -7.7489421861542482e+05 -9.6218201607979655e+08 
+8.8999999999999844e+00 -1.0341515493211864e+00 +2.2768605151740733e+00 +1.4360383868333580e+01 +3.5138691799135529e+02 +1.8588005597521708e+05 -7.3928533710027952e+05 -9.7419177070033848e+08 
+8.9999999999999840e+00 -1.0341526327656614e+00 +2.2768842916035883e+00 +1.4265921797394579e+01 +3.4738751633582075e+02 +1.8815020608556533e+05 -7.0038569452000526e+05 -9.8590176867315066e+08 
+9.0999999999999837e+00 -1.0341537108763441e+00 +2.2769184998007819e+00 +1.4173671466246194e+01 +3.4290123830428291e+02 +1.9036577982877294e+05 -6.5858016823345178e+05 -9.9731527250782478e+08 
+9.1999999999999833e+00 -1.0341547786713012e+00 +2.2769616497845084e+00 +1.4083473860773028e+01 +3.3798612509011576e+02 +1.9252764129498726e+05 -6.1425366861046606e+05 -1.0084355557869755e+09 
+9.2999999999999829e+00 -1.0341558311676520e+00 +2.2770122515673341e+00 +1.3995169828814207e+01 +3.3270022201491912e+02 +1.9463665721274476e+05 -5.6779113998633006e+05 -1.0192659037596492e+09 
+9.3999999999999826e+00 -1.0341568633815335e+00 +2.2770688151534504e+00 +1.3908600074474560e+01 +3.2710157866932059e+02 +1.9669369706908360e+05 -5.1957756166357367e+05 -1.0298096139245141e+09 
+9.4999999999999822e+00 -1.0341578703280365e+00 +2.2771298505391813e+00 +1.3823605149793583e+01 +3.2124824900679567e+02 +1.9869963326040193e+05 -4.6999794872557523e+05 -1.0400699966945769e+09 
+9.5999999999999819e+00 -1.0341588470213010e+00 +2.2771938677126169e+00 +1.3740025466552725e+01 +3.1519829146270155e+02 +2.0065534086784039e+05 -4.1943735300239979e+05 -1.0500503743055382e+09 
+9.6999999999999815e+00 -1.0341597884742846e+00 +2.2772593766516418e+00 +1.3657701265332483e+01 +3.0900976911152600e+02 +2.0256169825450695e+05 -3.6828086422341166e+05 -1.0597540836547652e+09 
+9.7999999999999812e+00 -1.0341606896989348e+00 +2.2773248873212566e+00 +1.3576472637737243e+01 +3.0274074984766145e+02 +2.0441958663212639e+05 -3.1691361133094551e+05 -1.0691844741815002e+09 
+9.8999999999999808e+00 -1.0341615457060462e+00 +2.2773889096830997e+00 +1.3496179507237779e+01 +2.9644930621862375e+02 +2.0622989043257211e+05 -2.6572076177039120e+05 -1.0783449096303108e+09 
+9.9999999999999805e+00 -1.0341623515052636e+00 +2.2774499536810104e+00 +1.3416661628742327e+01 +2.9019351593972868e+02 +2.0799349731411523e+05 -2.1508752472962180e+05 -1.0872387680466309e+09 
+1.0099999999999980e+01 -1.0341631021050042e+00 +2.2775065292524248e+00 +1.3337758578380836e+01 +2.8403146167029797e+02 +2.0971129835863173e+05 -1.6539915009285411e+05 -1.0958694426989319e+09 
