# field on trajectory
# s[mm] rx[mm] ry[mm] rz[mm] bx[T] by[T] bz[T]
0.0000000000000000e+00 +9.1013000000000002e+00 +0.0000000000000000e+00 +0.0000000000000000e+00 +1.1215444237756250e-02 -1.0332206202166017e+00 -5.8763555262745217e-02
1.0000000000000001e-01 +9.1012994837012435e+00 +0.0000000000000000e+00 +9.9999999998222899e-02 +1.1215260007852133e-02 -1.0332231915619445e+00 -5.8763217049109855e-02
2.0000000000000001e-01 +9.1012979348032665e+00 +0.0000000000000000e+00 +1.9999999998578322e-01 +1.1215076822743635e-02 -1.0332257113153125e+00 -5.8762878208095372e-02
3.0000000000000004e-01 +9.1012953533035521e+00 +0.0000000000000000e+00 +2.9999999995201826e-01 +1.1214894632193041e-02 -1.0332281733503423e+00 -5.8762538203108054e-02
4.0000000000000002e-01 +9.1012917391996417e+00 +0.0000000000000000e+00 +3.9999999988626522e-01 +1.1214713385955108e-02 -1.0332305715404089e+00 -5.8762196497507413e-02
5.0000000000000000e-01 +9.1012870924891391e+00 +0.0000000000000000e+00 +4.9999999977786136e-01 +1.1214533033780543e-02 -1.0332328997585885e+00 -5.8761852554599876e-02
5.9999999999999998e-01 +9.1012814131697173e+00 +0.0000000000000000e+00 +5.9999999961614370e-01 +1.1214353566057288e-02 -1.0332351531579780e+00 -5.8761505968113636e-02
6.9999999999999996e-01 +9.1012747012391255e+00 +0.0000000000000000e+00 +6.9999999939044932e-01 +1.1214175135725238e-02 -1.0332373320128203e+00 -5.8761156853651769e-02
7.9999999999999993e-01 +9.1012669566951860e+00 +0.0000000000000000e+00 +7.9999999909011521e-01 +1.1213997936360567e-02 -1.0332394378775898e+00 -5.8760805457273087e-02
8.9999999999999991e-01 +9.1012581795357956e+00 +0.0000000000000000e+00 +8.9999999870447822e-01 +1.1213822161538031e-02 -1.0332414723067089e+00 -5.8760452025023092e-02
9.9999999999999989e-01 +9.1012483697589222e+00 +0.0000000000000000e+00 +9.9999999822287533e-01 +1.1213648004831649e-02 -1.0332434368546128e+00 -5.8760096802943917e-02
1.0999999999999999e+00 +9.1012375273626027e+00 +0.0000000000000000e+00 +1.0999999976346433e+00 +1.1213475659815352e-02 -1.0332453330758116e+00 -5.8759740037084465e-02
1.2000000000000000e+00 +9.1012256523449437e+00 +0.0000000000000000e+00 +1.1999999969291189e+00 +1.1213305320063672e-02 -1.0332471625249515e+00 -5.8759381973510202e-02
1.3000000000000000e+00 +9.1012127447041191e+00 +0.0000000000000000e+00 +1.2999999960956385e+00 +1.1213137179152375e-02 -1.0332489267568776e+00 -5.8759022858313290e-02
1.4000000000000001e+00 +9.1011988044383649e+00 +0.0000000000000000e+00 +1.3999999951235391e+00 +1.1212971430659168e-02 -1.0332506273266964e+00 -5.8758662937622531e-02
1.5000000000000002e+00 +9.1011838315459830e+00 +0.0000000000000000e+00 +1.4999999940021573e+00 +1.1212808268164325e-02 -1.0332522657898384e+00 -5.8758302457613348e-02
1.6000000000000003e+00 +9.1011678260253390e+00 +0.0000000000000000e+00 +1.5999999927208295e+00 +1.1212647885251371e-02 -1.0332538437021201e+00 -5.8757941664517740e-02
1.7000000000000004e+00 +9.1011507878748557e+00 +0.0000000000000000e+00 +1.6999999912688923e+00 +1.1212490475507745e-02 -1.0332553626198056e+00 -5.8757580804634328e-02
1.8000000000000005e+00 +9.1011327170930176e+00 +0.0000000000000000e+00 +1.7999999896356822e+00 +1.1212336232525461e-02 -1.0332568240996707e+00 -5.8757220124338302e-02
1.9000000000000006e+00 +9.1011136136783666e+00 +0.0000000000000000e+00 +1.8999999878105356e+00 +1.1212185349901786e-02 -1.0332582296990629e+00 -5.8756859870091466e-02
2.0000000000000004e+00 +9.1010934776294992e+00 +0.0000000000000000e+00 +1.9999999857827890e+00 +1.1212038021239877e-02 -1.0332595809759668e+00 -5.8756500288452126e-02
2.1000000000000005e+00 +9.1010723089450671e+00 +0.0000000000000000e+00 +2.0999999835417786e+00 +1.1211894440149486e-02 -1.0332608794890630e+00 -5.8756141626085175e-02
2.2000000000000006e+00 +9.1010501076237738e+00 +0.0000000000000000e+00 +2.1999999810768411e+00 +1.1211754800247576e-02 -1.0332621267977924e+00 -5.8755784129772004e-02
2.3000000000000007e+00 +9.1010268736643756e+00 +0.0000000000000000e+00 +2.2999999783773126e+00 +1.1211619295159021e-02 -1.0332633244624192e+00 -5.8755428046420574e-02
2.4000000000000008e+00 +9.1010026070656789e+00 +0.0000000000000000e+00 +2.3999999754325292e+00 +1.1211488118517266e-02 -1.0332644740440906e+00 -5.8755073623075305e-02
2.5000000000000009e+00 +9.1009773078265361e+00 +0.0000000000000000e+00 +2.4999999722318273e+00 +1.1211361463964965e-02 -1.0332655771049022e+00 -5.8754721106927192e-02
2.6000000000000010e+00 +9.1009509759458478e+00 +0.0000000000000000e+00 +2.5999999687645432e+00 +1.1211239384411792e-02 -1.0332666348444064e+00 -5.8754370697825589e-02
2.7000000000000011e+00 +9.1009236114225605e+00 +0.0000000000000000e+00 +2.6999999650200133e+00 +1.1211121369805441e-02 -1.0332676470087130e+00 -5.8754022405713015e-02
2.8000000000000012e+00 +9.1008952142556634e+00 +0.0000000000000000e+00 +2.7999999609875736e+00 +1.1211006769360207e-02 -1.0332686129806270e+00 -5.8753676192977097e-02
2.9000000000000012e+00 +9.1008657844441956e+00 +0.0000000000000000e+00 +2.8999999566565604e+00 +1.1210894932300515e-02 -1.0332695321431089e+00 -5.8753332021916668e-02
3.0000000000000013e+00 +9.1008353219872422e+00 +0.0000000000000000e+00 +2.9999999520163096e+00 +1.1210785207861436e-02 -1.0332704038792453e+00 -5.8752989854728807e-02
3.1000000000000014e+00 +9.1008038268839346e+00 +0.0000000000000000e+00 +3.0999999470561574e+00 +1.1210676945289209e-02 -1.0332712275722278e+00 -5.8752649653495928e-02
3.2000000000000015e+00 +9.1007712991334540e+00 +0.0000000000000000e+00 +3.1999999417654403e+00 +1.1210569493841754e-02 -1.0332720026053261e+00 -5.8752311380172791e-02
3.3000000000000016e+00 +9.1007377387350274e+00 +0.0000000000000000e+00 +3.2999999361334940e+00 +1.1210462202789189e-02 -1.0332727283618641e+00 -5.8751974996573503e-02
3.4000000000000017e+00 +9.1007031456879339e+00 +0.0000000000000000e+00 +3.3999999301496548e+00 +1.1210354421414380e-02 -1.0332734042251970e+00 -5.8751640464358747e-02
3.5000000000000018e+00 +9.1006675199915019e+00 +0.0000000000000000e+00 +3.4999999238032591e+00 +1.1210245499013411e-02 -1.0332740295786826e+00 -5.8751307745022574e-02
3.6000000000000019e+00 +9.1006308616451115e+00 +0.0000000000000000e+00 +3.5999999170836428e+00 +1.1210134784896155e-02 -1.0332746038056619e+00 -5.8750976799879694e-02
3.7000000000000020e+00 +9.1005931706481906e+00 +0.0000000000000000e+00 +3.6999999099801419e+00 +1.1210021628386774e-02 -1.0332751262894300e+00 -5.8750647590052336e-02
3.8000000000000020e+00 +9.1005544470002224e+00 +0.0000000000000000e+00 +3.7999999024820927e+00 +1.1209905378824242e-02 -1.0332755964132136e+00 -5.8750320076457432e-02
3.9000000000000021e+00 +9.1005146907007415e+00 +0.0000000000000000e+00 +3.8999998945788312e+00 +1.1209785385562852e-02 -1.0332760135601458e+00 -5.8749994219793565e-02
4.0000000000000018e+00 +9.1004739017493357e+00 +0.0000000000000000e+00 +3.9999998862596939e+00 +1.1209660997972788e-02 -1.0332763771132434e+00 -5.8749669980528073e-02
4.1000000000000014e+00 +9.1004320801456444e+00 +0.0000000000000000e+00 +4.0999998775140165e+00 +1.1209531565440604e-02 -1.0332766864553786e+00 -5.8749347318884142e-02
4.2000000000000011e+00 +9.1003892258893639e+00 +0.0000000000000000e+00 +4.1999998683311350e+00 +1.1209396437369767e-02 -1.0332769409692575e+00 -5.8749026194827705e-02
4.3000000000000007e+00 +9.1003453389802438e+00 +0.0000000000000000e+00 +4.2999998587003860e+00 +1.1209254963181181e-02 -1.0332771400373946e+00 -5.8748706568054636e-02
4.4000000000000004e+00 +9.1003004194180903e+00 +0.0000000000000000e+00 +4.3999998486111060e+00 +1.1209106492313712e-02 -1.0332772830420880e+00 -5.8748388397977712e-02
4.5000000000000000e+00 +9.1002544672027668e+00 +0.0000000000000000e+00 +4.4999998380526307e+00 +1.1208950374224719e-02 -1.0332773693653945e+00 -5.8748071643713720e-02
4.5999999999999996e+00 +9.1002074823341896e+00 +0.0000000000000000e+00 +4.5999998270142965e+00 +1.1208786215024457e-02 -1.0332773984978749e+00 -5.8747756276796022e-02
4.6999999999999993e+00 +9.1001594648123358e+00 +0.0000000000000000e+00 +4.6999998154854392e+00 +1.1208614647366487e-02 -1.0332773703646736e+00 -5.8747442319476526e-02
4.7999999999999989e+00 +9.1001104146372391e+00 +0.0000000000000000e+00 +4.7999998034553961e+00 +1.1208436560513652e-02 -1.0332772849988117e+00 -5.8747129806786855e-02
4.8999999999999986e+00 +9.1000603318089883e+00 +0.0000000000000000e+00 +4.8999997909135029e+00 +1.1208252843695527e-02 -1.0332771424323086e+00 -5.8746818773855201e-02
4.9999999999999982e+00 +9.1000092163277326e+00 +0.0000000000000000e+00 +4.9999997778490952e+00 +1.1208064386106198e-02 -1.0332769426961257e+00 -5.8746509255915687e-02
5.0999999999999979e+00 +9.0999570681936781e+00 +0.0000000000000000e+00 +5.0999997642515105e+00 +1.1207872076902121e-02 -1.0332766858201050e+00 -5.8746201288317562e-02
5.1999999999999975e+00 +9.0999038874070859e+00 +0.0000000000000000e+00 +5.1999997501100852e+00 +1.1207676805199915e-02 -1.0332763718329183e+00 -5.8745894906534493e-02
5.2999999999999972e+00 +9.0998496739682739e+00 +0.0000000000000000e+00 +5.2999997354141550e+00 +1.1207479460074218e-02 -1.0332760007620021e+00 -5.8745590146173858e-02
5.3999999999999968e+00 +9.0997944278776206e+00 +0.0000000000000000e+00 +5.3999997201530565e+00 +1.1207280930555471e-02 -1.0332755726335046e+00 -5.8745287042986004e-02
5.4999999999999964e+00 +9.0997381491355593e+00 +0.0000000000000000e+00 +5.4999997043161271e+00 +1.1207082105627762e-02 -1.0332750874722259e+00 -5.8744985632873545e-02
5.5999999999999961e+00 +9.0996808377425804e+00 +0.0000000000000000e+00 +5.5999996878927023e+00 +1.1206883874226635e-02 -1.0332745453015610e+00 -5.8744685951900653e-02
5.6999999999999957e+00 +9.0996224936992327e+00 +0.0000000000000000e+00 +5.6999996708721197e+00 +1.1206687125236899e-02 -1.0332739461434430e+00 -5.8744388036302254e-02
5.7999999999999954e+00 +9.0995631170061220e+00 +0.0000000000000000e+00 +5.7999996532437157e+00 +1.1206492747490476e-02 -1.0332732900182824e+00 -5.8744091922493399e-02
5.8999999999999950e+00 +9.0995027076639090e+00 +0.0000000000000000e+00 +5.8999996349968269e+00 +1.1206301629764175e-02 -1.0332725769449134e+00 -5.8743797647078461e-02
5.9999999999999947e+00 +9.0994412656733132e+00 +0.0000000000000000e+00 +5.9999996161207898e+00 +1.1206114660777543e-02 -1.0332718069405327e+00 -5.8743505246860492e-02
6.0999999999999943e+00 +9.0993787910351092e+00 +0.0000000000000000e+00 +6.0999995966049418e+00 +1.1205932729190651e-02 -1.0332709800206445e+00 -5.8743214758850471e-02
6.1999999999999940e+00 +9.0993152837501317e+00 +0.0000000000000000e+00 +6.1999995764386195e+00 +1.1205756723601914e-02 -1.0332700961990000e+00 -5.8742926220276527e-02
6.2999999999999936e+00 +9.0992507438192707e+00 +0.0000000000000000e+00 +6.2999995556111594e+00 +1.1205587532545925e-02 -1.0332691554875428e+00 -5.8742639668593312e-02
6.3999999999999932e+00 +9.0991851712434730e+00 +0.0000000000000000e+00 +6.3999995341118989e+00 +1.1205426044491233e-02 -1.0332681578963487e+00 -5.8742355141491245e-02
6.4999999999999929e+00 +9.0991185660237424e+00 +0.0000000000000000e+00 +6.4999995119301754e+00 +1.1205273147838169e-02 -1.0332671034335696e+00 -5.8742072676905760e-02
6.5999999999999925e+00 +9.0990509281611391e+00 +0.0000000000000000e+00 +6.5999994890553264e+00 +1.1205129444346576e-02 -1.0332659920994023e+00 -5.8741792340014573e-02
6.6999999999999922e+00 +9.0989822576567825e+00 +0.0000000000000000e+00 +6.6999994654766883e+00 +1.1204994389433402e-02 -1.0332648238691771e+00 -5.8741514304121445e-02
6.7999999999999918e+00 +9.0989125545118466e+00 +0.0000000000000000e+00 +6.7999994411835987e+00 +1.1204867151937331e-02 -1.0332635987131176e+00 -5.8741238769537220e-02
6.8999999999999915e+00 +9.0988418187275641e+00 +0.0000000000000000e+00 +6.8999994161653957e+00 +1.1204746900704634e-02 -1.0332623166026291e+00 -5.8740965936567996e-02
6.9999999999999911e+00 +9.0987700503052231e+00 +0.0000000000000000e+00 +6.9999993904114159e+00 +1.1204632804590031e-02 -1.0332609775103632e+00 -5.8740696005514001e-02
7.0999999999999908e+00 +9.0986972492461700e+00 +0.0000000000000000e+00 +7.0999993639109968e+00 +1.1204524032457530e-02 -1.0332595814102770e+00 -5.8740429176668725e-02
7.1999999999999904e+00 +9.0986234155518062e+00 +0.0000000000000000e+00 +7.1999993366534767e+00 +1.1204419753181302e-02 -1.0332581282776978e+00 -5.8740165650317956e-02
7.2999999999999901e+00 +9.0985485492235938e+00 +0.0000000000000000e+00 +7.2999993086281929e+00 +1.1204319135646495e-02 -1.0332566180893810e+00 -5.8739905626738753e-02
7.3999999999999897e+00 +9.0984726502630497e+00 +0.0000000000000000e+00 +7.3999992798244838e+00 +1.1204221348750142e-02 -1.0332550508235741e+00 -5.8739649306198537e-02
7.4999999999999893e+00 +9.0983957186717479e+00 +0.0000000000000000e+00 +7.4999992502316868e+00 +1.1204125561401969e-02 -1.0332534264600777e+00 -5.8739396888953993e-02
7.5999999999999890e+00 +9.0983177544513207e+00 +0.0000000000000000e+00 +7.5999992198391393e+00 +1.1204030942525285e-02 -1.0332517449803067e+00 -5.8739148575250255e-02
7.6999999999999886e+00 +9.0982387576034558e+00 +0.0000000000000000e+00 +7.6999991886361805e+00 +1.1203936661057829e-02 -1.0332500063673533e+00 -5.8738904565319862e-02
7.7999999999999883e+00 +9.0981587281298992e+00 +0.0000000000000000e+00 +7.7999991566121478e+00 +1.1203841885952635e-02 -1.0332482106060468e+00 -5.8738665059381780e-02
7.8999999999999879e+00 +9.0980776660324540e+00 +0.0000000000000000e+00 +7.8999991237563796e+00 +1.1203745786178871e-02 -1.0332463576830146e+00 -5.8738430257640389e-02
7.9999999999999876e+00 +9.0979955713129819e+00 +0.0000000000000000e+00 +7.9999990900582150e+00 +1.1203647530722746e-02 -1.0332444475867486e+00 -5.8738200360284633e-02
8.0999999999999872e+00 +9.0979124439733994e+00 +0.0000000000000000e+00 +8.0999990555069914e+00 +1.1203546288588330e-02 -1.0332424803076607e+00 -5.8737975567486909e-02
8.1999999999999869e+00 +9.0978282840156819e+00 +0.0000000000000000e+00 +8.1999990200920490e+00 +1.1203441228798445e-02 -1.0332404558381478e+00 -5.8737756079402188e-02
8.2999999999999865e+00 +9.0977430914418616e+00 +0.0000000000000000e+00 +8.2999989838027250e+00 +1.1203331520395531e-02 -1.0332383741726536e+00 -5.8737542096167029e-02
8.3999999999999861e+00 +9.0976568662540291e+00 +0.0000000000000000e+00 +8.3999989466283580e+00 +1.1203216332442490e-02 -1.0332362353077285e+00 -5.8737333817898543e-02
8.4999999999999858e+00 +9.0975696084543305e+00 +0.0000000000000000e+00 +8.4999989085582879e+00 +1.1203094834023599e-02 -1.0332340392420916e+00 -5.8737131444693544e-02
8.5999999999999854e+00 +9.0974813180449683e+00 +0.0000000000000000e+00 +8.5999988695818548e+00 +1.1202966469020198e-02 -1.0332317863554363e+00 -5.8736935182672610e-02
8.6999999999999851e+00 +9.0973919950282056e+00 +0.0000000000000000e+00 +8.6999988296883952e+00 +1.1202831780489659e-02 -1.0332294785438227e+00 -5.8736745262136299e-02
8.7999999999999847e+00 +9.0973016394063571e+00 +0.0000000000000000e+00 +8.7999987888672511e+00 +1.1202691586354944e-02 -1.0332271180818129e+00 -5.8736561919464657e-02
8.8999999999999844e+00 +9.0972102511817905e+00 +0.0000000000000000e+00 +8.8999987471077606e+00 +1.1202546704618368e-02 -1.0332247072434502e+00 -5.8736385391077402e-02
8.9999999999999840e+00 +9.0971178303569253e+00 +0.0000000000000000e+00 +8.9999987043992622e+00 +1.1202397953363936e-02 -1.0332222483022413e+00 -5.8736215913434829e-02
9.0999999999999837e+00 +9.0970243769342289e+00 +0.0000000000000000e+00 +9.0999986607310976e+00 +1.1202246150759725e-02 -1.0332197435311359e+00 -5.8736053723038500e-02
9.1999999999999833e+00 +9.0969298909162148e+00 +0.0000000000000000e+00 +9.1999986160926053e+00 +1.1202092115060189e-02 -1.0332171952025055e+00 -5.8735899056432103e-02
9.2999999999999829e+00 +9.0968343723054375e+00 +0.0000000000000000e+00 +9.2999985704731252e+00 +1.1201936664608524e-02 -1.0332146055881259e+00 -5.8735752150202214e-02
9.3999999999999826e+00 +9.0967378211044974e+00 +0.0000000000000000e+00 +9.3999985238619974e+00 +1.1201780617838967e-02 -1.0332119769591539e+00 -5.8735613240979083e-02
9.4999999999999822e+00 +9.0966402373160307e+00 +0.0000000000000000e+00 +9.4999984762485621e+00 +1.1201624793279186e-02 -1.0332093115861103e+00 -5.8735482565437432e-02
9.5999999999999819e+00 +9.0965416209427108e+00 +0.0000000000000000e+00 +9.5999984276221610e+00 +1.1201470009552558e-02 -1.0332066117388561e+00 -5.8735360360297154e-02
9.6999999999999815e+00 +9.0964419719872485e+00 +0.0000000000000000e+00 +9.6999983779721326e+00 +1.1201317085380554e-02 -1.0332038796865775e+00 -5.8735246862324300e-02
9.7999999999999812e+00 +9.0963412904523828e+00 +0.0000000000000000e+00 +9.7999983272878186e+00 +1.1201166839585027e-02 -1.0332011176977611e+00 -5.8735142308331705e-02
9.8999999999999808e+00 +9.0962395763408850e+00 +0.0000000000000000e+00 +9.8999982755585592e+00 +1.1201020091090558e-02 -1.0331983280401769e+00 -5.8735046935179711e-02
9.9999999999999805e+00 +9.0961368296555527e+00 +0.0000000000000000e+00 +9.9999982227736943e+00 +1.1200877658926788e-02 -1.0331955129808557e+00 -5.8734960979777200e-02
1.0099999999999980e+01 +9.0960330503992104e+00 +0.0000000000000000e+00 +1.0099998168922566e+01 +1.1200740362230734e-02 -1.0331926747860709e+00 -5.8734884679082118e-02
1.0199999999999980e+01 +9.0959282385747073e+00 +0.0000000000000000e+00 +1.0199998113994514e+01 +1.1200609020249106e-02 -1.0331898157213177e+00 -5.8734818270102393e-02
1.0299999999999979e+01 +9.0958223941849106e+00 +0.0000000000000000e+00 +1.0299998057978881e+01 +1.1200484452340653e-02 -1.0331869380512937e+00 -5.8734761989896696e-02
1.0399999999999979e+01 +9.0957155172327067e+00 +0.0000000000000000e+00 +1.0399998000865006e+01 +1.1200367477978437e-02 -1.0331840440398758e+00 -5.8734716075575136e-02
1.0499999999999979e+01 +9.0956076077209982e+00 +0.0000000000000000e+00 +1.0499997942642231e+01 +1.1200258916752196e-02 -1.0331811359501051e+00 -5.8734680764300190e-02
1.0599999999999978e+01 +9.0954986656527055e+00 +0.0000000000000000e+00 +1.0599997883299899e+01 +1.1200159324676945e-02 -1.0331782159429563e+00 -5.8734656214159534e-02
1.0699999999999978e+01 +9.0953886910307560e+00 +0.0000000000000000e+00 +1.0699997822827349e+01 +1.1200068202962774e-02 -1.0331752857734819e+00 -5.8734642266703614e-02
1.0799999999999978e+01 +9.0952776838580913e+00 +0.0000000000000000e+00 +1.0799997761213923e+01 +1.1199984788976979e-02 -1.0331723470940732e+00 -5.8734638684232059e-02
1.0899999999999977e+01 +9.0951656441376585e+00 +0.0000000000000000e+00 +1.0899997698448965e+01 +1.1199908319945264e-02 -1.0331694015555937e+00 -5.8734645228912884e-02
1.0999999999999977e+01 +9.0950525718724133e+00 +0.0000000000000000e+00 +1.0999997634521815e+01 +1.1199838032948080e-02 -1.0331664508073457e+00 -5.8734661662779207e-02
1.1099999999999977e+01 +9.0949384670653171e+00 +0.0000000000000000e+00 +1.1099997569421815e+01 +1.1199773164916892e-02 -1.0331634964970371e+00 -5.8734687747725667e-02
1.1199999999999976e+01 +9.0948233297193344e+00 +0.0000000000000000e+00 +1.1199997503138306e+01 +1.1199712952630499e-02 -1.0331605402707464e+00 -5.8734723245505084e-02
1.1299999999999976e+01 +9.0947071598374318e+00 +0.0000000000000000e+00 +1.1299997435660632e+01 +1.1199656632711320e-02 -1.0331575837728917e+00 -5.8734767917724987e-02
1.1399999999999975e+01 +9.0945899574225777e+00 +0.0000000000000000e+00 +1.1399997366978134e+01 +1.1199603441621710e-02 -1.0331546286461923e+00 -5.8734821525844222e-02
1.1499999999999975e+01 +9.0944717224777367e+00 +0.0000000000000000e+00 +1.1499997297080155e+01 +1.1199552615660240e-02 -1.0331516765316380e+00 -5.8734883831169461e-02
1.1599999999999975e+01 +9.0943524550058701e+00 +0.0000000000000000e+00 +1.1599997225956036e+01 +1.1199503390958036e-02 -1.0331487290684558e+00 -5.8734954594851958e-02
1.1699999999999974e+01 +9.0942321550099372e+00 +0.0000000000000000e+00 +1.1699997153595120e+01 +1.1199455003475061e-02 -1.0331457878940713e+00 -5.8735033577883865e-02
1.1799999999999974e+01 +9.0941108224928904e+00 +0.0000000000000000e+00 +1.1799997079986751e+01 +1.1199406688996435e-02 -1.0331428546440815e+00 -5.8735120541094997e-02
