# field on trajectory
# s[mm] rx[mm] ry[mm] rz[mm] bx[T] by[T] bz[T]
0.0000000000000000e+00 +9.1463000000000001e+00 +0.0000000000000000e+00 +0.0000000000000000e+00 +1.1213748168180514e-02 -1.0331148781051163e+00 -5.8758630387208362e-02
-1.0000000000000001e-01 +9.1462994838003393e+00 +0.0000000000000000e+00 -9.9999999998223579e-02 +1.1213933199021949e-02 -1.0331122517655420e+00 -5.8758972570063558e-02
-2.0000000000000001e-01 +9.1462979352031137e+00 +0.0000000000000000e+00 -1.9999999998578871e-01 +1.1214119493988055e-02 -1.0331095872495686e+00 -5.8759315409296214e-02
-3.0000000000000004e-01 +9.1462953542109862e+00 +0.0000000000000000e+00 -2.9999999995203702e-01 +1.1214307118178397e-02 -1.0331068905132377e+00 -5.8759659412538169e-02
-4.0000000000000002e-01 +9.1462917408266513e+00 +0.0000000000000000e+00 -3.9999999988631019e-01 +1.1214496136671496e-02 -1.0331041675124855e+00 -5.8760005087402006e-02
-5.0000000000000000e-01 +9.1462870950528306e+00 +0.0000000000000000e+00 -4.9999999977795007e-01 +1.1214686614521453e-02 -1.0331014242031809e+00 -5.8760352941487577e-02
-5.9999999999999998e-01 +9.1462814168922648e+00 +0.0000000000000000e+00 -5.9999999961629846e-01 +1.1214878616754536e-02 -1.0330986665411652e+00 -5.8760703482388793e-02
-6.9999999999999996e-01 +9.1462747063477092e+00 +0.0000000000000000e+00 -6.9999999939069735e-01 +1.1215072208365810e-02 -1.0330959004822922e+00 -5.8761057217700190e-02
-7.9999999999999993e-01 +9.1462669634219296e+00 +0.0000000000000000e+00 -7.9999999909048880e-01 +1.1215267454315709e-02 -1.0330931319824681e+00 -5.8761414655023540e-02
-8.9999999999999991e-01 +9.1462581881176916e+00 +0.0000000000000000e+00 -8.9999999870501490e-01 +1.1215464419526644e-02 -1.0330903669976856e+00 -5.8761776301974544e-02
-9.9999999999999989e-01 +9.1462483804377595e+00 +0.0000000000000000e+00 -9.9999999822361785e-01 +1.1215663168879612e-02 -1.0330876114840699e+00 -5.8762142666189461e-02
-1.0999999999999999e+00 +9.1462375403848863e+00 +0.0000000000000000e+00 -1.0999999976356400e+00 +1.1215863767210794e-02 -1.0330848713979119e+00 -5.8762514255331647e-02
-1.2000000000000000e+00 +9.1462256679618115e+00 +0.0000000000000000e+00 -1.1999999969304238e+00 +1.1216066279308138e-02 -1.0330821526957115e+00 -5.8762891577098353e-02
-1.3000000000000000e+00 +9.1462127631712526e+00 +0.0000000000000000e+00 -1.2999999960973116e+00 +1.1216270769907992e-02 -1.0330794613342149e+00 -5.8763275139227161e-02
-1.4000000000000001e+00 +9.1461988260159011e+00 +0.0000000000000000e+00 -1.3999999951256461e+00 +1.1216477303691685e-02 -1.0330768032704523e+00 -5.8763665449502817e-02
-1.5000000000000002e+00 +9.1461838564984124e+00 +0.0000000000000000e+00 -1.4999999940047697e+00 +1.1216685945282114e-02 -1.0330741844617801e+00 -5.8764063015763687e-02
-1.6000000000000003e+00 +9.1461678546214067e+00 +0.0000000000000000e+00 -1.5999999927240252e+00 +1.1216896705820987e-02 -1.0330716090013179e+00 -5.8764468134987258e-02
-1.7000000000000004e+00 +9.1461508203874580e+00 +0.0000000000000000e+00 -1.6999999912727555e+00 +1.1217109382731672e-02 -1.0330690735240626e+00 -5.8764880260497129e-02
-1.8000000000000005e+00 +9.1461327537991028e+00 +0.0000000000000000e+00 -1.7999999896403034e+00 +1.1217323720021939e-02 -1.0330665728005062e+00 -5.8765298634665050e-02
-1.9000000000000006e+00 +9.1461136548588424e+00 +0.0000000000000000e+00 -1.8999999878160116e+00 +1.1217539461716639e-02 -1.0330641016011888e+00 -5.8765722499814599e-02
-2.0000000000000004e+00 +9.1460935235691494e+00 +0.0000000000000000e+00 -1.9999999857892234e+00 +1.1217756351865471e-02 -1.0330616546966871e+00 -5.8766151098211997e-02
-2.1000000000000005e+00 +9.1460723599324716e+00 +0.0000000000000000e+00 -2.0999999835492820e+00 +1.1217974134550722e-02 -1.0330592268576024e+00 -5.8766583672056616e-02
-2.2000000000000006e+00 +9.1460501639512373e+00 +0.0000000000000000e+00 -2.1999999810855302e+00 +1.1218192553894987e-02 -1.0330568128545410e+00 -5.8767019463471563e-02
-2.3000000000000007e+00 +9.1460269356278605e+00 +0.0000000000000000e+00 -2.2999999783873109e+00 +1.1218411354068928e-02 -1.0330544074581021e+00 -5.8767457714494271e-02
-2.4000000000000008e+00 +9.1460026749647501e+00 +0.0000000000000000e+00 -2.3999999754439680e+00 +1.1218630279299013e-02 -1.0330520054388634e+00 -5.8767897667067213e-02
-2.5000000000000009e+00 +9.1459773819643075e+00 +0.0000000000000000e+00 -2.4999999722448445e+00 +1.1218849073875239e-02 -1.0330496015673667e+00 -5.8768338563028377e-02
-2.6000000000000010e+00 +9.1459510566289399e+00 +0.0000000000000000e+00 -2.5999999687792839e+00 +1.1219067482158916e-02 -1.0330471906141014e+00 -5.8768779644101918e-02
-2.7000000000000011e+00 +9.1459236989610577e+00 +0.0000000000000000e+00 -2.6999999650366298e+00 +1.1219285248590352e-02 -1.0330447673494911e+00 -5.8769220151888707e-02
-2.8000000000000012e+00 +9.1458953089630874e+00 +0.0000000000000000e+00 -2.7999999610062258e+00 +1.1219502117696643e-02 -1.0330423265438793e+00 -5.8769659327857021e-02
-2.9000000000000012e+00 +9.1458658866374716e+00 +0.0000000000000000e+00 -2.8999999566774153e+00 +1.1219717834099389e-02 -1.0330398629675148e+00 -5.8770096413333105e-02
-3.0000000000000013e+00 +9.1458354319866757e+00 +0.0000000000000000e+00 -2.9999999520395422e+00 +1.1219932142522459e-02 -1.0330373713905359e+00 -5.8770530649491726e-02
-3.1000000000000014e+00 +9.1458039450131920e+00 +0.0000000000000000e+00 -3.0999999470819506e+00 +1.1220144787799707e-02 -1.0330348465829555e+00 -5.8770961277346871e-02
-3.2000000000000015e+00 +9.1457714257195484e+00 +0.0000000000000000e+00 -3.1999999417939842e+00 +1.1220355514882752e-02 -1.0330322833146508e+00 -5.8771387537742262e-02
-3.3000000000000016e+00 +9.1457378741083097e+00 +0.0000000000000000e+00 -3.2999999361649870e+00 +1.1220564068848681e-02 -1.0330296763553422e+00 -5.8771808671341963e-02
-3.4000000000000017e+00 +9.1457032901820856e+00 +0.0000000000000000e+00 -3.3999999301843031e+00 +1.1220770194907834e-02 -1.0330270204745824e+00 -5.8772223918621080e-02
-3.5000000000000018e+00 +9.1456676739435352e+00 +0.0000000000000000e+00 -3.4999999238412767e+00 +1.1220973638411531e-02 -1.0330243104417425e+00 -5.8772632519856288e-02
-3.6000000000000019e+00 +9.1456310253953692e+00 +0.0000000000000000e+00 -3.5999999171252521e+00 +1.1221174134213998e-02 -1.0330215420525621e+00 -5.8773033791152479e-02
-3.7000000000000020e+00 +9.1455933445403588e+00 +0.0000000000000000e+00 -3.6999999100255736e+00 +1.1221371374682635e-02 -1.0330187152085719e+00 -5.8773427352698471e-02
-3.8000000000000020e+00 +9.1455546313813318e+00 +0.0000000000000000e+00 -3.7999999025315860e+00 +1.1221565041532919e-02 -1.0330158308368762e+00 -5.8773812900937028e-02
-3.9000000000000021e+00 +9.1455148859211768e+00 +0.0000000000000000e+00 -3.8999998946326335e+00 +1.1221754816455364e-02 -1.0330128898634447e+00 -5.8774190132588583e-02
-4.0000000000000018e+00 +9.1454741081628352e+00 +0.0000000000000000e+00 -3.9999998863180615e+00 +1.1221940381110919e-02 -1.0330098932130427e+00 -5.8774558744673862e-02
-4.1000000000000014e+00 +9.1454322981093057e+00 +0.0000000000000000e+00 -4.0999998775772140e+00 +1.1222121417126450e-02 -1.0330068418091614e+00 -5.8774918434536791e-02
-4.2000000000000011e+00 +9.1453894557636417e+00 +0.0000000000000000e+00 -4.1999998683994368e+00 +1.1222297606090139e-02 -1.0330037365739464e+00 -5.8775268899867061e-02
-4.3000000000000007e+00 +9.1453455811289519e+00 +0.0000000000000000e+00 -4.2999998587740746e+00 +1.1222468629546943e-02 -1.0330005784281275e+00 -5.8775609838722882e-02
-4.4000000000000004e+00 +9.1453006742083964e+00 +0.0000000000000000e+00 -4.3999998486904728e+00 +1.1222634168994019e-02 -1.0329973682909492e+00 -5.8775940949553733e-02
-4.5000000000000000e+00 +9.1452547350051887e+00 +0.0000000000000000e+00 -4.4999998381379767e+00 +1.1222793905876147e-02 -1.0329941070800990e+00 -5.8776261931223019e-02
-4.5999999999999996e+00 +9.1452077635225919e+00 +0.0000000000000000e+00 -4.5999998271059308e+00 +1.1222947521581195e-02 -1.0329907957116387e+00 -5.8776572483030837e-02
-4.6999999999999993e+00 +9.1451597597639189e+00 +0.0000000000000000e+00 -4.6999998155836815e+00 +1.1223094697435527e-02 -1.0329874350999322e+00 -5.8776872304736660e-02
-4.7999999999999989e+00 +9.1451107237325342e+00 +0.0000000000000000e+00 -4.7999998035605751e+00 +1.1223235114699453e-02 -1.0329840261575760e+00 -5.8777161096582133e-02
-4.8999999999999986e+00 +9.1450606554318501e+00 +0.0000000000000000e+00 -4.8999997910259570e+00 +1.1223368454562661e-02 -1.0329805697953287e+00 -5.8777438559313687e-02
-4.9999999999999982e+00 +9.1450095548653252e+00 +0.0000000000000000e+00 -4.9999997779691725e+00 +1.1223494398139647e-02 -1.0329770669220424e+00 -5.8777704394205335e-02
-5.0999999999999979e+00 +9.1449574220364642e+00 +0.0000000000000000e+00 -5.0999997643795680e+00 +1.1223612626465151e-02 -1.0329735184445878e+00 -5.8777958303081329e-02
-5.1999999999999975e+00 +9.1449042569488199e+00 +0.0000000000000000e+00 -5.1999997502464907e+00 +1.1223722820489598e-02 -1.0329699252677891e+00 -5.8778199988339018e-02
-5.2999999999999972e+00 +9.1448500596059876e+00 +0.0000000000000000e+00 -5.2999997355592861e+00 +1.1223824661074527e-02 -1.0329662882943489e+00 -5.8778429152971386e-02
-5.3999999999999968e+00 +9.1447948300116089e+00 +0.0000000000000000e+00 -5.3999997203073002e+00 +1.1223917828988038e-02 -1.0329626084247827e+00 -5.8778645500589977e-02
-5.4999999999999964e+00 +9.1447385681693660e+00 +0.0000000000000000e+00 -5.4999997044798805e+00 +1.1224002004900188e-02 -1.0329588865573438e+00 -5.8778848735447434e-02
-5.5999999999999961e+00 +9.1446812740829841e+00 +0.0000000000000000e+00 -5.5999996880663732e+00 +1.1224077052451008e-02 -1.0329551241722548e+00 -5.8779039078646594e-02
-5.6999999999999957e+00 +9.1446229477562291e+00 +0.0000000000000000e+00 -5.6999996710561263e+00 +1.1224143567540782e-02 -1.0329513250859390e+00 -5.8779218816397895e-02
-5.7999999999999954e+00 +9.1445635891929022e+00 +0.0000000000000000e+00 -5.7999996534384852e+00 +1.1224202329232793e-02 -1.0329474937005581e+00 -5.8779390750855330e-02
-5.8999999999999950e+00 +9.1445031983968388e+00 +0.0000000000000000e+00 -5.8999996352027981e+00 +1.1224254116699599e-02 -1.0329436344201575e+00 -5.8779557683814980e-02
-5.9999999999999947e+00 +9.1444417753719023e+00 +0.0000000000000000e+00 -5.9999996163384122e+00 +1.1224299709227883e-02 -1.0329397516507777e+00 -5.8779722416692395e-02
-6.0999999999999943e+00 +9.1443793201219794e+00 +0.0000000000000000e+00 -6.0999995968346754e+00 +1.1224339886223256e-02 -1.0329358498005681e+00 -5.8779887750499797e-02
-6.1999999999999940e+00 +9.1443158326509746e+00 +0.0000000000000000e+00 -6.1999995766809350e+00 +1.1224375427215116e-02 -1.0329319332799043e+00 -5.8780056485823337e-02
-6.2999999999999936e+00 +9.1442513129628065e+00 +0.0000000000000000e+00 -6.2999995558665383e+00 +1.1224407111861455e-02 -1.0329280065014985e+00 -5.8780231422800380e-02
-6.3999999999999932e+00 +9.1441857610614079e+00 +0.0000000000000000e+00 -6.3999995343808331e+00 +1.1224435719953694e-02 -1.0329240738805161e+00 -5.8780415361096766e-02
-6.4999999999999929e+00 +9.1441191769507153e+00 +0.0000000000000000e+00 -6.4999995122131677e+00 +1.1224462031421516e-02 -1.0329201398346863e+00 -5.8780611099884014e-02
-6.5999999999999925e+00 +9.1440515606346651e+00 +0.0000000000000000e+00 -6.5999994893528902e+00 +1.1224486826337685e-02 -1.0329162087844201e+00 -5.8780821437816516e-02
-6.6999999999999922e+00 +9.1439829121171936e+00 +0.0000000000000000e+00 -6.6999994657893485e+00 +1.1224510884922878e-02 -1.0329122851529218e+00 -5.8781049173008970e-02
-6.7999999999999918e+00 +9.1439132314022284e+00 +0.0000000000000000e+00 -6.7999994415118916e+00 +1.1224534987550522e-02 -1.0329083733663029e+00 -5.8781297103013365e-02
-6.8999999999999915e+00 +9.1438425184936865e+00 +0.0000000000000000e+00 -6.8999994165098677e+00 +1.1224559914751584e-02 -1.0329044778536967e+00 -5.8781568024796338e-02
-6.9999999999999911e+00 +9.1437707733954667e+00 +0.0000000000000000e+00 -6.9999993907726248e+00 +1.1224586447219456e-02 -1.0329006030473742e+00 -5.8781864734716471e-02
-7.0999999999999908e+00 +9.1436979961114488e+00 +0.0000000000000000e+00 -7.0999993642895118e+00 +1.1224615365814709e-02 -1.0328967533828530e+00 -5.8782190028501304e-02
-7.1999999999999904e+00 +9.1436241866454875e+00 +0.0000000000000000e+00 -7.1999993370498778e+00 +1.1224647451569997e-02 -1.0328929332990173e+00 -5.8782546701224701e-02
-7.2999999999999901e+00 +9.1435493450014071e+00 +0.0000000000000000e+00 -7.2999993090430717e+00 +1.1224683485694798e-02 -1.0328891472382264e+00 -5.8782937547284038e-02
-7.3999999999999897e+00 +9.1434734711829986e+00 +0.0000000000000000e+00 -7.3999992802584424e+00 +1.1224724249580298e-02 -1.0328853996464338e+00 -5.8783365360377336e-02
-7.4999999999999893e+00 +9.1433965651940152e+00 +0.0000000000000000e+00 -7.4999992506853381e+00 +1.1224770524804195e-02 -1.0328816949732962e+00 -5.8783832933480509e-02
-7.5999999999999890e+00 +9.1433186270381679e+00 +0.0000000000000000e+00 -7.5999992203131086e+00 +1.1224822891546776e-02 -1.0328780365420089e+00 -5.8784342009211954e-02
-7.6999999999999886e+00 +9.1432396567191194e+00 +0.0000000000000000e+00 -7.6999991891311037e+00 +1.1224881123647884e-02 -1.0328744231566123e+00 -5.8784890131181447e-02
-7.7999999999999883e+00 +9.1431596542404900e+00 +0.0000000000000000e+00 -7.7999991571286715e+00 +1.1224944793093520e-02 -1.0328708524896901e+00 -5.8785473793397838e-02
-7.8999999999999879e+00 +9.1430786196058556e+00 +0.0000000000000000e+00 -7.8999991242951619e+00 +1.1225013471562345e-02 -1.0328673222121818e+00 -5.8786089490010358e-02
-7.9999999999999876e+00 +9.1429965528187545e+00 +0.0000000000000000e+00 -7.9999990906199248e+00 +1.1225086730414467e-02 -1.0328638299933144e+00 -5.8786733715315787e-02
-8.0999999999999872e+00 +9.1429134538826844e+00 +0.0000000000000000e+00 -8.0999990560923099e+00 +1.1225164140680225e-02 -1.0328603735005335e+00 -5.8787402963765549e-02
-8.1999999999999869e+00 +9.1428293228011075e+00 +0.0000000000000000e+00 -8.1999990207016644e+00 +1.1225245273049007e-02 -1.0328569503994391e+00 -5.8788093729972880e-02
-8.2999999999999865e+00 +9.1427441595774557e+00 +0.0000000000000000e+00 -8.2999989844373410e+00 +1.1225329697858008e-02 -1.0328535583537148e+00 -5.8788802508719991e-02
-8.3999999999999861e+00 +9.1426579642151271e+00 +0.0000000000000000e+00 -8.3999989472886885e+00 +1.1225416985081026e-02 -1.0328501950250606e+00 -5.8789525794965068e-02
-8.4999999999999858e+00 +9.1425707367174915e+00 +0.0000000000000000e+00 -8.4999989092450559e+00 +1.1225506704317276e-02 -1.0328468580731254e+00 -5.8790260083849612e-02
-8.5999999999999854e+00 +9.1424824770878939e+00 +0.0000000000000000e+00 -8.5999988702957939e+00 +1.1225598424780155e-02 -1.0328435451554407e+00 -5.8791001870705475e-02
-8.6999999999999851e+00 +9.1423931853296541e+00 +0.0000000000000000e+00 -8.6999988304302516e+00 +1.1225691715286042e-02 -1.0328402539273496e+00 -5.8791747651062085e-02
-8.7999999999999847e+00 +9.1423028614460708e+00 +0.0000000000000000e+00 -8.7999987896377796e+00 +1.1225786144243076e-02 -1.0328369820419414e+00 -5.8792493920653499e-02
-8.8999999999999844e+00 +9.1422115054404234e+00 +0.0000000000000000e+00 -8.8999987479077287e+00 +1.1225881279639974e-02 -1.0328337271499839e+00 -5.8793237175425776e-02
-8.9999999999999840e+00 +9.1421191173159748e+00 +0.0000000000000000e+00 -8.9999987052294479e+00 +1.1225976689034774e-02 -1.0328304868998532e+00 -5.8793973911543909e-02
-9.0999999999999837e+00 +9.1420256970759723e+00 +0.0000000000000000e+00 -9.0999986615922879e+00 +1.1226071939543673e-02 -1.0328272589374687e+00 -5.8794700625399252e-02
-9.1999999999999833e+00 +9.1419312447236525e+00 +0.0000000000000000e+00 -9.1999986169855994e+00 +1.1226166597829790e-02 -1.0328240409062233e+00 -5.8795413813616561e-02
-9.2999999999999829e+00 +9.1418357602622411e+00 +0.0000000000000000e+00 -9.2999985713987332e+00 +1.1226260230091951e-02 -1.0328208304469160e+00 -5.8796109973061200e-02
-9.3999999999999826e+00 +9.1417392436949569e+00 +0.0000000000000000e+00 -9.3999985248210400e+00 +1.1226352402053481e-02 -1.0328176251976839e+00 -5.8796785600846432e-02
-9.4999999999999822e+00 +9.1416416950250134e+00 +0.0000000000000000e+00 -9.4999984772418706e+00 +1.1226442678951010e-02 -1.0328144227939347e+00 -5.8797437194340565e-02
-9.5999999999999819e+00 +9.1415431142556205e+00 +0.0000000000000000e+00 -9.5999984286505740e+00 +1.1226530780207453e-02 -1.0328112227303348e+00 -5.8798062115374361e-02
-9.6999999999999815e+00 +9.1414435013899880e+00 +0.0000000000000000e+00 -9.6999983790365025e+00 +1.1226617043795349e-02 -1.0328080319488506e+00 -5.8798661183005696e-02
-9.7999999999999812e+00 +9.1413428564313115e+00 +0.0000000000000000e+00 -9.7999983283890071e+00 +1.1226701962682942e-02 -1.0328048592551864e+00 -5.8799236080845259e-02
-9.8999999999999808e+00 +9.1412411793827744e+00 +0.0000000000000000e+00 -9.8999982766974384e+00 +1.1226786030219706e-02 -1.0328017134570038e+00 -5.8799788492784173e-02
-9.9999999999999805e+00 +9.1411384702475278e+00 +0.0000000000000000e+00 -9.9999982239511489e+00 +1.1226869740147957e-02 -1.0327986033639824e+00 -5.8800320103001062e-02
-1.0099999999999980e+01 +9.1410347290286911e+00 +0.0000000000000000e+00 -1.0099998170139488e+01 +1.1226953586614444e-02 -1.0327955377878724e+00 -5.8800832595969001e-02
-1.0199999999999980e+01 +9.1409299557293391e+00 +0.0000000000000000e+00 -1.0199998115251807e+01 +1.1227038064181941e-02 -1.0327925255425532e+00 -5.8801327656462517e-02
-1.0299999999999979e+01 +9.1408241503524899e+00 +0.0000000000000000e+00 -1.0299998059277458e+01 +1.1227123667840878e-02 -1.0327895754440879e+00 -5.8801806969564552e-02
-1.0399999999999979e+01 +9.1407173129011046e+00 +0.0000000000000000e+00 -1.0399998002205793e+01 +1.1227210893020900e-02 -1.0327866963107806e+00 -5.8802272220673607e-02
-1.0499999999999979e+01 +9.1406094433780698e+00 +0.0000000000000000e+00 -1.0499997944026163e+01 +1.1227300235602498e-02 -1.0327838969632324e+00 -5.8802725095510502e-02
-1.0599999999999978e+01 +9.1405005417861940e+00 +0.0000000000000000e+00 -1.0599997884727918e+01 +1.1227392191928602e-02 -1.0327811862243983e+00 -5.8803167280125621e-02
-1.0699999999999978e+01 +9.1403906081281967e+00 +0.0000000000000000e+00 -1.0699997824300409e+01 +1.1227487258816162e-02 -1.0327785729196430e+00 -5.8803600460905700e-02
-1.0799999999999978e+01 +9.1402796424066999e+00 +0.0000000000000000e+00 -1.0799997762732989e+01 +1.1227585933567766e-02 -1.0327760658767968e+00 -5.8804026324580982e-02
-1.0899999999999977e+01 +9.1401676446242206e+00 +0.0000000000000000e+00 -1.0899997700015009e+01 +1.1227688713983216e-02 -1.0327736739262126e+00 -5.8804446558232019e-02
-1.0999999999999977e+01 +9.1400546147831587e+00 +0.0000000000000000e+00 -1.0999997636135820e+01 +1.1227796098371155e-02 -1.0327714059008215e+00 -5.8804862849296820e-02
-1.1099999999999977e+01 +9.1399405528857933e+00 +0.0000000000000000e+00 -1.1099997571084772e+01 +1.1227908585560633e-02 -1.0327692706361897e+00 -5.8805276885577774e-02
-1.1199999999999976e+01 +9.1398254589342702e+00 +0.0000000000000000e+00 -1.1199997504851218e+01 +1.1228026674912709e-02 -1.0327672769705736e+00 -5.8805690355248588e-02
-1.1299999999999976e+01 +9.1397093329305932e+00 +0.0000000000000000e+00 -1.1299997437424508e+01 +1.1228150866332056e-02 -1.0327654337449783e+00 -5.8806104946861337e-02
-1.1399999999999975e+01 +9.1395921748766149e+00 +0.0000000000000000e+00 -1.1399997368793994e+01 +1.1228281660278543e-02 -1.0327637498032116e+00 -5.8806522349353449e-02
-1.1499999999999975e+01 +9.1394739847740301e+00 +0.0000000000000000e+00 -1.1499997298949024e+01 +1.1228419557778840e-02 -1.0327622339919416e+00 -5.8806944252054488e-02
-1.1599999999999975e+01 +9.1393547626243663e+00 +0.0000000000000000e+00 -1.1599997227878950e+01 +1.1228564848140162e-02 -1.0327608909482957e+00 -5.8807372133757328e-02
-1.1699999999999974e+01 +9.1392345084289790e+00 +0.0000000000000000e+00 -1.1699997155573122e+01 +1.1228716971668369e-02 -1.0327597084579205e+00 -5.8807806629484691e-02
