# multipoles
# s[mm] polynom_b[n=0][T/m^n] polynom_b[n=1][T/m^n] polynom_b[n=2][T/m^n] polynom_b[n=3][T/m^n] polynom_b[n=4][T/m^n] polynom_b[n=5][T/m^n] polynom_b[n=6][T/m^n] 
+0.0000000000000000e+00 -1.0320002446016443e+00 +2.2802072280808230e+00 +2.0964964497959421e+01 +2.2344232227231481e+02 -3.9583191008345864e+04 -8.8786189309418877e+05 +2.6202272938251287e+08 
+1.0005104645227200e-01 -1.0320004528576836e+00 +2.2799428103952972e+00 +2.0982479942126609e+01 +2.3218771712856778e+02 -4.0657719366521407e+04 -9.2978196619527158e+05 +2.6863649524043310e+08 
+2.0010209290454301e-01 -1.0320006731009834e+00 +2.2796947829212235e+00 +2.1000093152338955e+01 +2.4060340648198007e+02 -4.1735257954509747e+04 -9.7023561358836107e+05 +2.7530207120977604e+08 
+3.0015313935681498e-01 -1.0320009079539068e+00 +2.2794636616204955e+00 +2.1017708720159639e+01 +2.4867846816088039e+02 -4.2813474870483551e+04 -1.0091594899435432e+06 +2.8200988779595912e+08 
+4.0020418580908601e-01 -1.0320011600389518e+00 +2.2792499624847045e+00 +2.1035231244716712e+01 +2.5640197877154554e+02 -4.3890038274232116e+04 -1.0464902423609134e+06 +2.8875037553880489e+08 
+5.0025523226135804e-01 -1.0320014319787352e+00 +2.2790542015403141e+00 +2.1052565333230451e+01 +2.6376301346751831e+02 -4.4962616405554145e+04 -1.0821645087073923e+06 +2.9551396511783016e+08 
+6.0030627871362996e-01 -1.0320017259901206e+00 +2.2788765188488012e+00 +2.1069588736627029e+01 +2.7075716773138060e+02 -4.6028298725073939e+04 -1.1161451566867472e+06 +3.0228753899582291e+08 
+7.0035732516590099e-01 -1.0320020426798755e+00 +2.2787155651374129e+00 +2.1086074999498326e+01 +2.7740574082851617e+02 -4.7081919256682217e+04 -1.1484975582310650e+06 +3.0904406599438626e+08 
+8.0040837161817302e-01 -1.0320023822555329e+00 +2.2785696224426655e+00 +2.1101772413916709e+01 +2.8373636228223882e+02 -4.8117762881136441e+04 -1.1793120988210333e+06 +3.1575310492119992e+08 
+9.0045941807044405e-01 -1.0320027449246536e+00 +2.2784369728395344e+00 +2.1116429275997891e+01 +2.8977666002023119e+02 -4.9130114543580130e+04 -1.2086791536030304e+06 +3.2238421482206410e+08 
+1.0005104645227201e+00 -1.0320031308949122e+00 +2.2783158984242529e+00 +2.1129793896601448e+01 +2.9555426093310234e+02 -5.0113259477521562e+04 -1.2366890907972814e+06 +3.2890695610224807e+08 
+1.1005615109749900e+00 -1.0320035403739851e+00 +2.2782046813164336e+00 +2.1141614589620534e+01 +3.0109679075376812e+02 -5.1061482992022888e+04 -1.2634322707814579e+06 +3.3529088953934765e+08 
+1.2006125574272599e+00 -1.0320039735695994e+00 +2.2781016036642412e+00 +2.1151639678034606e+01 +3.0643187393520515e+02 -5.1969070612839132e+04 -1.2889990454451421e+06 +3.4150557703270847e+08 
+1.3006636038795301e+00 -1.0320044306894323e+00 +2.2780049476306909e+00 +2.1159617486124429e+01 +3.1158713404610160e+02 -5.2830307940644991e+04 -1.3134797604142050e+06 +3.4752058093847448e+08 
+1.4007146503318000e+00 -1.0320049119412591e+00 +2.2779129954047592e+00 +2.1165296356621070e+01 +3.1659019343162242e+02 -5.3639481006388225e+04 -1.3369647530301840e+06 +3.5330546584615964e+08 
+1.5007656967840699e+00 -1.0320054175327429e+00 +2.2778240291901524e+00 +2.1168424628288989e+01 +3.2146867354261173e+02 -5.4390875847158524e+04 -1.3595443542039474e+06 +3.5882979656515408e+08 
+1.6008167432363500e+00 -1.0320059476715859e+00 +2.2777363312023993e+00 +2.1168750654728452e+01 +3.2625019503297716e+02 -5.5078778892847389e+04 -1.3813088890165393e+06 +3.6406314004462236e+08 
+1.7008677896886200e+00 -1.0320065025654239e+00 +2.2776481836741582e+00 +2.1166022793678192e+01 +3.3096237757635714e+02 -5.5697476771968068e+04 -1.4023486755220103e+06 +3.6897506447503906e+08 
+1.8009188361408901e+00 -1.0320070824218577e+00 +2.2775578688496143e+00 +2.1159989412859591e+01 +3.3563284005096051e+02 -5.6241256444141480e+04 -1.4227540258350803e+06 +3.7353513997827065e+08 
+1.9009698825931600e+00 -1.0320076874483848e+00 +2.2774636689791929e+00 +2.1150398882187904e+01 +3.4028920067048261e+02 -5.6704405062235230e+04 -1.4426152468164540e+06 +3.7771293797819871e+08 
+2.0010209290454299e+00 -1.0320083178524706e+00 +2.2773638663238644e+00 +2.1136999586095456e+01 +3.4495907687705613e+02 -5.7081210232586789e+04 -1.4620226394423163e+06 +3.8147803251162857e+08 
+2.1010719754977001e+00 -1.0320089738414733e+00 +2.2772567431493784e+00 +2.1119539911897206e+01 +3.4967008548511819e+02 -5.7365959799975564e+04 -1.4810664995753951e+06 +3.8479999922423941e+08 
+2.2011230219499698e+00 -1.0320096556226168e+00 +2.2771405817202837e+00 +2.1097768253088095e+01 +3.5444984287656968e+02 -5.7552941935339957e+04 -1.4998371190814956e+06 +3.8764841585161275e+08 
+2.3011740684022501e+00 -1.0320103634030509e+00 +2.2770136643090408e+00 +2.1071433015982301e+01 +3.5932596471294971e+02 -5.7636445278182386e+04 -1.5184247840734851e+06 +3.8999286294743973e+08 
+2.4012251148545198e+00 -1.0320110973897896e+00 +2.2768742731832758e+00 +2.1040282612167829e+01 +3.6432606631115129e+02 -5.7610758800140313e+04 -1.5369197770941327e+06 +3.9180292324872911e+08 
+2.5012761613067900e+00 -1.0320118577896746e+00 +2.2767206906223358e+00 +2.1004065459629224e+01 +3.6947776231160287e+02 -5.7470171852265725e+04 -1.5554123757028971e+06 +3.9304818194679445e+08 
+2.6013272077590601e+00 -1.0320126446216620e+00 +2.2765515886905550e+00 +2.0962681835986988e+01 +3.7480451028002568e+02 -5.7212062732100458e+04 -1.5739923859390260e+06 +3.9371280939293313e+08 
+2.7013782542113298e+00 -1.0320134570318216e+00 +2.2763670215355654e+00 +2.0916584247722142e+01 +3.8031621811722675e+02 -5.6845155841902524e+04 -1.5927598345204743e+06 +3.9383501984857762e+08 
+2.8014293006636000e+00 -1.0320142939205621e+00 +2.2761673479217848e+00 +2.0866350556254531e+01 +3.8602012564239476e+02 -5.6380780240010841e+04 -1.6118202046887712e+06 +3.9346555462073356e+08 
+2.9014803471158799e+00 -1.0320151541881302e+00 +2.2759529265106893e+00 +2.0812558597923250e+01 +3.9192347637185031e+02 -5.5830264446208508e+04 -1.6312790033664298e+06 +3.9265515226488125e+08 
+3.0015313935681500e+00 -1.0320160367346050e+00 +2.2757241158444872e+00 +2.0755786180893793e+01 +3.9803351809326335e+02 -5.5204936361637105e+04 -1.6512417647760198e+06 +3.9145454814747363e+08 
+3.1015824400204202e+00 -1.0320169404598640e+00 +2.2754812743429902e+00 +2.0696611080480409e+01 +4.0435750305143802e+02 -5.4516123167629848e+04 -1.6718140517924533e+06 +3.8991447392960048e+08 
+3.2016334864726899e+00 -1.0320178642636013e+00 +2.2752247602849383e+00 +2.0635611037895444e+01 +4.1090268858787925e+02 -5.3775151284695072e+04 -1.6931014599704603e+06 +3.8808565732967234e+08 
+3.3016845329249600e+00 -1.0320188070453400e+00 +2.2749549318076352e+00 +2.0573363762447865e+01 +4.1767633725201796e+02 -5.2993346404017670e+04 -1.7152096184680592e+06 +3.8601882224231935e+08 
+3.4017355793772301e+00 -1.0320197677043748e+00 +2.2746721468903170e+00 +2.0510446923168061e+01 +4.2468571738627776e+02 -5.2182033305066856e+04 -1.7382441937366417e+06 +3.8376468781011397e+08 
+3.5017866258295101e+00 -1.0320207451397394e+00 +2.2743767633468956e+00 +2.0447438140787828e+01 +4.3193810341878640e+02 -5.1352535690503282e+04 -1.7623108914974588e+06 +3.8137396760354966e+08 
+3.6018376722817802e+00 -1.0320217382503145e+00 +2.2740691388157219e+00 +2.0384915001720000e+01 +4.3944077627676091e+02 -5.0516176440057432e+04 -1.7875154594633500e+06 +3.7889737079909492e+08 
+3.7018887187340499e+00 -1.0320227459346636e+00 +2.2737496307499265e+00 +2.0323455035703894e+01 +4.4720102374702441e+02 -4.9684277163455648e+04 -1.8139636896741914e+06 +3.7638559999064720e+08 
+3.8019397651863200e+00 -1.0320237670911692e+00 +2.2734185964077689e+00 +2.0263635731794441e+01 +4.5522614087997783e+02 -4.8868158496336873e+04 -1.8417614212082375e+06 +3.7388935257768428e+08 
+3.9019908116385902e+00 -1.0320248006179151e+00 +2.2730763928374995e+00 +2.0206034520032876e+01 +4.6352343049233315e+02 -4.8079139730160787e+04 -1.8710145433077454e+06 +3.7145931894561893e+08 
+4.0020418580908599e+00 -1.0320258454127169e+00 +2.2727233768770181e+00 +2.0151228776969511e+01 +4.7210020330906508e+02 -4.7328538903818946e+04 -1.9018289965589850e+06 +3.6914618286602867e+08 
+4.1020929045431300e+00 -1.0320269003731086e+00 +2.2723599051384697e+00 +2.0099795820415014e+01 +4.8096377847903358e+02 -4.6627672686905527e+04 -1.9343107761127793e+06 +3.6700062089832765e+08 
+4.2021439509954099e+00 -1.0320279643963457e+00 +2.2719863339967201e+00 +2.0052312908827052e+01 +4.9012148402700484e+02 -4.5987856358531040e+04 -1.9685659346668101e+06 +3.6507330225868827e+08 
+4.3021949974476801e+00 -1.0320290363793598e+00 +2.2716030195818115e+00 +2.0009357233524192e+01 +4.9958065716618609e+02 -4.5420403633106747e+04 -2.0047005845399085e+06 +3.6341488792629027e+08 
+4.4022460438999502e+00 -1.0320301152188140e+00 +2.2712103177691167e+00 +1.9971505925359011e+01 +5.0934864467748264e+02 -4.4936626782809675e+04 -2.0428209001620237e+06 +3.6207603121153009e+08 
+4.5022970903522204e+00 -1.0320311998108853e+00 +2.2708085841328804e+00 +1.9939336019207257e+01 +5.1943280344900006e+02 -4.4547835991371081e+04 -2.0830331181867393e+06 +3.6110737492244673e+08 
+4.6023481368044896e+00 -1.0320322889102096e+00 +2.2703983141598862e+00 +1.9913245719187366e+01 +5.2983287881344540e+02 -4.4262033440084437e+04 -2.1253889604173680e+06 +3.6054516375382900e+08 
+4.7023991832567598e+00 -1.0320333810503046e+00 +2.2699807156992984e+00 +1.9893000499948535e+01 +5.4051735202552607e+02 -4.4075339226557837e+04 -2.1697285783537948e+06 +3.6037338029448599e+08 
+4.8024502297090397e+00 -1.0320344747791934e+00 +2.2695572070899530e+00 +1.9878224928796133e+01 +5.5144671091702844e+02 -4.3981183822996391e+04 -2.2158405556015256e+06 +3.6056404650306278e+08 
+4.9025012761613098e+00 -1.0320355686452174e+00 +2.2691292067231670e+00 +1.9868543603854626e+01 +5.6258144151128761e+02 -4.3972998127585699e+04 -2.2635134639789462e+06 +3.6108918584003103e+08 
+5.0025523226135800e+00 -1.0320366611969698e+00 +2.2686981330535545e+00 +1.9863581146492098e+01 +5.7388202769502186e+02 -4.4044213312066175e+04 -2.3125358615192538e+06 +3.6192082251623237e+08 
+5.1026033690658501e+00 -1.0320377509833667e+00 +2.2682654046072792e+00 +1.9862962207734633e+01 +5.8530895089043963e+02 -4.4188260947793009e+04 -2.3626962903045462e+06 +3.6303098210402995e+08 
+5.2026544155181202e+00 -1.0320388365537301e+00 +2.2678324399877736e+00 +1.9866311480419554e+01 +5.9682268986118561e+02 -4.4398573221717896e+04 -2.4137832752105924e+06 +3.6439169251369059e+08 
+5.3027054619703904e+00 -1.0320399164576761e+00 +2.2674006578873103e+00 +1.9873253682616919e+01 +6.0838372032240090e+02 -4.4668582623725917e+04 -2.4655853214701535e+06 +3.6597498251569837e+08 
+5.4027565084226703e+00 -1.0320409892452462e+00 +2.2669714770924330e+00 +1.9883413577061287e+01 +6.1995251474337294e+02 -4.4991722306510092e+04 -2.5178909133508718e+06 +3.6775288342126840e+08 
+5.5028075548749404e+00 -1.0320420534668724e+00 +2.2665463164898667e+00 +1.9896415964064666e+01 +6.3148954210531360e+02 -4.5361425950434954e+04 -2.5704885125504979e+06 +3.6969742843275851e+08 
+5.6028586013272097e+00 -1.0320431076734455e+00 +2.2661265950824450e+00 +1.9911885690945951e+01 +6.4295526741642345e+02 -4.5771127935221302e+04 -2.6231665552595351e+06 +3.7178065343971896e+08 
+5.7029096477794798e+00 -1.0320441504162770e+00 +2.2657137319870100e+00 +1.9929447646095223e+01 +6.5431015170490809e+02 -4.6214263217972191e+04 -2.6757134519014140e+06 +3.7397459640839881e+08 
+5.8029606942317500e+00 -1.0320451802471773e+00 +2.2653091464471657e+00 +1.9948726770707566e+01 +6.6551465160693772e+02 -4.6684267565881448e+04 -2.7279175845886883e+06 +3.7625129851211029e+08 
+5.9030117406840201e+00 -1.0320461957184481e+00 +2.2649142578461938e+00 +1.9969348055613445e+01 +6.7652921893741404e+02 -4.7174577471794037e+04 -2.7795673044265513e+06 +3.7858280366013670e+08 
+6.0030627871363000e+00 -1.0320471953828918e+00 +2.2645304857027950e+00 +1.9990936541881780e+01 +6.8731430077788264e+02 -4.7678630173342244e+04 -2.8304509319201987e+06 +3.8094115860616618e+08 
+6.1031138335885702e+00 -1.0320481777938832e+00 +2.2641592496942722e+00 +2.0013117331768520e+01 +6.9783033873748911e+02 -4.8189863856160729e+04 -2.8803567524378891e+06 +3.8329841389867103e+08 
+6.2031648800408403e+00 -1.0320491415053432e+00 +2.2638019696520066e+00 +2.0035515583690060e+01 +7.0803776904072026e+02 -4.8701717549898116e+04 -2.9290730165637680e+06 +3.8562662336025351e+08 
+6.3032159264931096e+00 -1.0320500850717849e+00 +2.2634600655743995e+00 +2.0057756517802087e+01 +7.1789702211704900e+02 -4.9207631226937243e+04 -2.9763879375903821e+06 +3.8789784453163880e+08 
+6.4032669729453797e+00 -1.0320510070482922e+00 +2.2631349576353981e+00 +2.0079465414311752e+01 +7.2736852228412636e+02 -4.9701045771098259e+04 -3.0220896894404339e+06 +3.9008413852324492e+08 
+6.5033180193976499e+00 -1.0320519059908522e+00 +2.2628280662085034e+00 +2.0100267654206036e+01 +7.3641268792836513e+02 -5.0175403659002775e+04 -3.0659664109292664e+06 +3.9215757284416634e+08 
+6.6033690658499298e+00 -1.0320527808883866e+00 +2.2625404430153355e+00 +2.0119887764025194e+01 +7.4499963086871799e+02 -5.0625853401121538e+04 -3.1078593532687263e+06 +3.9409732838147998e+08 
+6.7034201123021999e+00 -1.0320536320453837e+00 +2.2622716958613021e+00 +2.0138401494050278e+01 +7.5313582829395159e+02 -5.1053715164954803e+04 -3.1478027091324013e+06 +3.9590862750336957e+08 
+6.8034711587544701e+00 -1.0320544600134616e+00 +2.2620210793574937e+00 +2.0155963744279155e+01 +7.6083632946799628e+02 -5.1461729523759510e+04 -3.1858747741963342e+06 +3.9760274990433913e+08 
+6.9035222052067402e+00 -1.0320552653439892e+00 +2.2617878479850893e+00 +2.0172729385425246e+01 +7.6811618853171206e+02 -5.1852636392219545e+04 -3.2221538759102654e+06 +3.9919097174540955e+08 
+7.0035732516590103e+00 -1.0320560485881014e+00 +2.2615712560841494e+00 +2.0188853257914424e+01 +7.7499046480752565e+02 -5.2229175011156432e+04 -3.2567183753905138e+06 +4.0068456559986913e+08 
+7.1036242981112796e+00 -1.0320568102966801e+00 +2.2613705578498213e+00 +2.0204490171678700e+01 +7.8147422298214497e+02 -5.2594083942510071e+04 -3.2896466686815857e+06 +4.0209480042448968e+08 
+7.2036753445635497e+00 -1.0320575510204106e+00 +2.2611850073357478e+00 +2.0219794913563277e+01 +7.8758253302684125e+02 -5.2950101214866721e+04 -3.3210171863767109e+06 +4.0343294226546454e+08 
+7.3037263910158297e+00 -1.0320582713096340e+00 +2.2610138584421380e+00 +2.0234922227194655e+01 +7.9333047058168415e+02 -5.3299963937934364e+04 -3.3509083959997636e+06 +4.0471025241275305e+08 
+7.4037774374680998e+00 -1.0320589717144533e+00 +2.2608563649117852e+00 +2.0250026829734239e+01 +7.9873311710661108e+02 -5.3646408621834365e+04 -3.3793988029671665e+06 +4.0593798891830575e+08 
+7.5038284839203699e+00 -1.0320596527846646e+00 +2.2607117803281427e+00 +2.0265263400492376e+01 +8.0380555997688953e+02 -5.3992170963920304e+04 -3.4065669513239283e+06 +4.0712740559223336e+08 
+7.6038795303726401e+00 -1.0320603150697700e+00 +2.2605793581122167e+00 +2.0280786585231418e+01 +8.0856289259574430e+02 -5.4339985932781427e+04 -3.4324914244446834e+06 +4.0828975240628886e+08 
+7.7039305768249102e+00 -1.0320609591189787e+00 +2.2604583515156711e+00 +2.0296750993666642e+01 +8.1302021462931179e+02 -5.4692587715396257e+04 -3.4572508465644252e+06 +4.0943627522292644e+08 
+7.8039816232771804e+00 -1.0320615854811339e+00 +2.2603480136118299e+00 +2.0313311194693270e+01 +8.1719263231077116e+02 -5.5052709632677375e+04 -3.4809238846385223e+06 +4.1057821541263807e+08 
+7.9040326697294496e+00 -1.0320621947047581e+00 +2.2602475973034508e+00 +2.0330621717809862e+01 +8.2109525825268247e+02 -5.5423084162897438e+04 -3.5035892474219869e+06 +4.1172680995271069e+08 
+8.0040837161817304e+00 -1.0320627873380237e+00 +2.2601563553036139e+00 +2.0348837054121681e+01 +8.2474321200916700e+02 -5.5806442970393698e+04 -3.5253256887649382e+06 +4.1289329158738619e+08 
+8.1041347626340006e+00 -1.0320633639287584e+00 +2.2600735401449614e+00 +2.0368111653127169e+01 +8.2815161988875604e+02 -5.6205516832790374e+04 -3.5462120067888601e+06 +4.1408888844892436e+08 
+8.2041858090862707e+00 -1.0320639250243973e+00 +2.2599984041673737e+00 +2.0388599920057622e+01 +8.3133561528713801e+02 -5.6623035602257740e+04 -3.5663270457582106e+06 +4.1532482390431064e+08 
+8.3042368555385409e+00 -1.0320644711720013e+00 +2.2599301995139673e+00 +2.0410456217080764e+01 +8.3431033889282446e+02 -5.7061728223145910e+04 -3.5857496975582661e+06 +4.1661231662330812e+08 
+8.4042879019908092e+00 -1.0320650029182417e+00 +2.2598681781254748e+00 +2.0433834862016255e+01 +8.3709093884762228e+02 -5.7524322707631472e+04 -3.6045589026458939e+06 +4.1796258045794225e+08 
+8.5043389484430794e+00 -1.0320655208091045e+00 +2.2598115917058337e+00 +2.0458890088015110e+01 +8.3969257128889319e+02 -5.8013545321380618e+04 -3.6228336369388308e+06 +4.1938682178426617e+08 
+8.6043899948953602e+00 -1.0320660250325762e+00 +2.2597598735977953e+00 +2.0485711126357515e+01 +8.4212728772323408e+02 -5.8530875349490103e+04 -3.6406328912659744e+06 +4.2089115573842645e+08 
+8.7044410413476303e+00 -1.0320665147106491e+00 +2.2597131857136894e+00 +2.0514168050862033e+01 +8.4439473208398226e+02 -5.9073654512832727e+04 -3.6579475112277954e+06 +4.2246473078681529e+08 
+8.8044920877999004e+00 -1.0320669887719915e+00 +2.2596718696608988e+00 +2.0544084122499466e+01 +8.4649153080362498e+02 -5.9638357445167923e+04 -3.6747538632482295e+06 +4.2409316027717221e+08 
+8.9045431342521706e+00 -1.0320674461456150e+00 +2.2596362671479135e+00 +2.0575282641659772e+01 +8.4841430612393015e+02 -6.0221459620188252e+04 -3.6910282873340780e+06 +4.2576206204843873e+08 
+9.0045941807044407e+00 -1.0320678857608248e+00 +2.2596067199983096e+00 +2.0607586941630235e+01 +8.5015967557946612e+02 -6.0819437235506099e+04 -3.7067470936089219e+06 +4.2745705789341879e+08 
+9.1046452271567109e+00 -1.0320683065472833e+00 +2.2595835701422455e+00 +2.0640820396766294e+01 +8.5172425220589776e+02 -6.1428767361861210e+04 -3.7218865634443616e+06 +4.2916377425239921e+08 
+9.2046962736089899e+00 -1.0320687074349206e+00 +2.2595671596358318e+00 +2.0674806409699038e+01 +8.5310464390800735e+02 -6.2045927713268422e+04 -3.7364229456392312e+06 +4.3086784117084962e+08 
+9.3047473200612600e+00 -1.0320690873540925e+00 +2.2595578306531059e+00 +2.0709368433521995e+01 +8.5429745366812597e+02 -6.2667397073087894e+04 -3.7503324575786702e+06 +4.3255489434389091e+08 
+9.4047983665135302e+00 -1.0320694452354646e+00 +2.2595559255007327e+00 +2.0744329955088556e+01 +8.5529927903685996e+02 -6.3289654981115193e+04 -3.7635912820911910e+06 +4.3421057364905280e+08 
+9.5048494129658003e+00 -1.0320697800101035e+00 +2.2595617866162701e+00 +2.0779514507624977e+01 +8.5610671215655645e+02 -6.3909181977746557e+04 -3.7761755675383890e+06 +4.3582052432899415e+08 
+9.6049004594180705e+00 -1.0320700906093827e+00 +2.2595757565751251e+00 +2.0814745659606476e+01 +8.5671633950356443e+02 -6.4522459398622625e+04 -3.7880614261824694e+06 +4.3737039603711951e+08 
+9.7049515058703406e+00 -1.0320703759651519e+00 +2.2595981780949481e+00 +2.0849847033848800e+01 +8.5712474170268422e+02 -6.5125969745850460e+04 -3.7992249330075281e+06 +4.3884584463954967e+08 
+9.8050025523226108e+00 -1.0320706350095894e+00 +2.2596293940415979e+00 +2.0884642291365786e+01 +8.5732849330733688e+02 -6.5716196382006718e+04 -3.8096421243098686e+06 +4.4023253076557398e+08 
+9.9050535987748898e+00 -1.0320708666753313e+00 +2.2596697474319107e+00 +2.0918955145182458e+01 +8.5732416266705377e+02 -6.6289623803979062e+04 -3.8192889968606606e+06 +4.4151612115216005e+08 
+1.0005104645227201e+01 -1.0320710698953488e+00 +2.2597195814357720e+00 +2.0952609347637910e+01 +8.5710831182417348e+02 -6.6842737396993281e+04 -3.8281415071592620e+06 +4.4268228746907729e+08 
+1.0105155691679400e+01 -1.0320712436031207e+00 +2.2597792393851837e+00 +2.0985428710487369e+01 +8.5667749619426468e+02 -6.7372023836254215e+04 -3.8361755695076687e+06 +4.4371670828945446e+08 
