# multipoles
# s[mm] polynom_b[n=0][T/m^n] polynom_b[n=1][T/m^n] polynom_b[n=2][T/m^n] polynom_b[n=3][T/m^n] polynom_b[n=4][T/m^n] polynom_b[n=5][T/m^n] polynom_b[n=6][T/m^n] 
+0.0000000000000000e+00 -6.1909944932736875e-02 +1.3810483899010736e-01 +1.1530499149064339e+00 +9.1260034514738528e+00 +9.6020793692149709e+02 -3.4447205143971196e+03 -2.3944415887410310e+06 
+1.0000000000000001e-01 -6.1909908812340660e-02 +1.3810479296303943e-01 +1.1528964899383225e+00 +9.1165399281456345e+00 +9.6360323595547413e+02 -3.3432028236795441e+03 -2.4202717741472991e+06 
+2.0000000000000001e-01 -6.1909871768565661e-02 +1.3810480044106407e-01 +1.1527563043250324e+00 +9.1154339258427601e+00 +9.6696320407998144e+02 -3.3012144215306448e+03 -2.4459173280126732e+06 
+3.0000000000000004e-01 -6.1909833822085432e-02 +1.3810485104918926e-01 +1.1526290123225151e+00 +9.1222930190516500e+00 +9.7027362497281388e+02 -3.3157263359107951e+03 -2.4712552656791876e+06 
+4.0000000000000002e-01 -6.1909794993570209e-02 +1.3810493441299662e-01 +1.1525142675541558e+00 +9.1367247557512208e+00 +9.7352029408715566e+02 -3.3837094089635325e+03 -2.4961626537359119e+06 
+5.0000000000000000e-01 -6.1909755303691867e-02 +1.3810504015843242e-01 +1.1524117237207829e+00 +9.1583366648287736e+00 +9.7668900450321416e+02 -3.5021343448879466e+03 -2.5205165412783115e+06 
+5.9999999999999998e-01 -6.1909714773121870e-02 +1.3810515791204322e-01 +1.1523210343184740e+00 +9.1867362489758371e+00 +9.7976555296769493e+02 -3.6679716691889212e+03 -2.5441939910740559e+06 
+6.9999999999999996e-01 -6.1909673422531106e-02 +1.3810527730087921e-01 +1.1522418527099394e+00 +9.2215309885370367e+00 +9.8273573790880357e+02 -3.8781917555956829e+03 -2.5670720686682407e+06 
+7.9999999999999993e-01 -6.1909631272588680e-02 +1.3810538795254332e-01 +1.1521738318988493e+00 +9.2623283398740757e+00 +9.8558536456205070e+02 -4.1297648166372828e+03 -2.5890278695362080e+06 
+8.9999999999999991e-01 -6.1909588343964705e-02 +1.3810547949508578e-01 +1.1521166250432293e+00 +9.3087357396150878e+00 +9.8830023420215116e+02 -4.4196609333972738e+03 -2.6099384654671061e+06 
+9.9999999999999989e-01 -6.1909544657329250e-02 +1.3810554155736157e-01 +1.1520698852410833e+00 +9.3603605956109632e+00 +9.9086614911393349e+02 -4.7448500079667356e+03 -2.6296809311414398e+06 
+1.0999999999999999e+00 -6.1909500233350130e-02 +1.3810556376874591e-01 +1.1520332653539513e+00 +9.4168102936405447e+00 +9.9326891531958609e+02 -5.1023017987020658e+03 -2.6481323557158173e+06 
+1.2000000000000000e+00 -6.1909455092697047e-02 +1.3810553575925855e-01 +1.1520064184977381e+00 +9.4776921959032485e+00 +9.9549433379898528e+02 -5.4889859196010693e+03 -2.6651698030444044e+06 
+1.3000000000000000e+00 -6.1909409256034949e-02 +1.3810544715981646e-01 +1.1519889972926571e+00 +9.5426136344511399e+00 +9.9752821429893822e+02 -5.9018718045953929e+03 -2.6806703765506656e+06 
+1.4000000000000001e+00 -6.1909362744031880e-02 +1.3810528760175456e-01 +1.1519806548323153e+00 +9.6111819241523015e+00 +9.9935635726534508e+02 -6.3379287820983054e+03 -2.6945111345944908e+06 
+1.5000000000000002e+00 -6.1909315577354164e-02 +1.3810504671739854e-01 +1.1519810441441227e+00 +9.6830043479003809e+00 +1.0009645638463918e+03 -6.7941259951366483e+03 -2.7065691378731299e+06 
+1.6000000000000003e+00 -6.1909267776666721e-02 +1.3810471413978673e-01 +1.1519898182268009e+00 +9.7576881649813529e+00 +1.0023386353755602e+03 -7.2674324522795287e+03 -2.7167214478007909e+06 
+1.7000000000000004e+00 -6.1909219362632939e-02 +1.3810427950275175e-01 +1.1520066300975542e+00 +9.8348406090437059e+00 +1.0034643724082129e+03 -7.7548170179177478e+03 -2.7248451222973326e+06 
+1.8000000000000005e+00 -6.1909170355918822e-02 +1.3810373244098811e-01 +1.1520311333049771e+00 +9.9140688862795621e+00 +1.0043275649415132e+03 -8.2532484032357970e+03 -2.7308171694158837e+06 
+1.9000000000000006e+00 -6.1909120777184058e-02 +1.3810306259002419e-01 +1.1520629808548453e+00 +9.9949801779632814e+00 +1.0049140130725757e+03 -8.7596951875450504e+03 -2.7345146468669600e+06 
+2.0000000000000004e+00 -6.1909070647092432e-02 +1.3810225958639630e-01 +1.1521018265732301e+00 +1.0077181634759874e+01 +1.0052095006236266e+03 -9.2711257838147521e+03 -2.7358145355582768e+06 
+2.1000000000000005e+00 -6.1909019983389761e-02 +1.3810131802844050e-01 +1.1521471014035947e+00 +1.0160239247384895e+01 +1.0052106757912578e+03 -9.7844253420854366e+03 -2.7346745494966782e+06 
+2.2000000000000006e+00 -6.1908968791538961e-02 +1.3810025282371646e-01 +1.1521971325792477e+00 +1.0243527871463501e+01 +1.0049605273936302e+03 -1.0295937585886879e+04 -2.7313868620278700e+06 
+2.3000000000000007e+00 -6.1908917073778220e-02 +1.3809908407636123e-01 +1.1522499176666583e+00 +1.0326367994688127e+01 +1.0045143917467517e+03 -1.0801818972635008e+04 -2.7263304754406614e+06 
+2.4000000000000008e+00 -6.1908864832344611e-02 +1.3809783188987862e-01 +1.1523034542298780e+00 +1.0408080128985274e+01 +1.0039276059086920e+03 -1.1298226115468351e+04 -2.7198844001750057e+06 
+2.5000000000000009e+00 -6.1908812069478306e-02 +1.3809651636711118e-01 +1.1523557402307245e+00 +1.0487984813186388e+01 +1.0032555008890500e+03 -1.1781315803869487e+04 -2.7124276249228516e+06 
+2.6000000000000010e+00 -6.1908758787421206e-02 +1.3809515760948851e-01 +1.1524047739923884e+00 +1.0565402636630212e+01 +1.0025534016862679e+03 -1.2247245145870347e+04 -2.7043391152108014e+06 
+2.7000000000000011e+00 -6.1908704988419383e-02 +1.3809377571756853e-01 +1.1524485544202439e+00 +1.0639654223327160e+01 +1.0018766236257867e+03 -1.2692171473580802e+04 -2.6959977977269557e+06 
+2.8000000000000012e+00 -6.1908650674721163e-02 +1.3809239079038585e-01 +1.1524850808043943e+00 +1.0710060252525270e+01 +1.0012804761755740e+03 -1.3112252467619273e+04 -2.6877825789395752e+06 
+2.9000000000000012e+00 -6.1908595848577344e-02 +1.3809102292565828e-01 +1.1525123528208541e+00 +1.0775941453697072e+01 +1.0008202629580558e+03 -1.3503646129037224e+04 -2.6800723453907901e+06 
+3.0000000000000013e+00 -6.1908540512244370e-02 +1.3808969221923090e-01 +1.1525283709295826e+00 +1.0836618624476527e+01 +1.0005512745301113e+03 -1.3862510888273675e+04 -2.6732459306464582e+06 
+3.1000000000000014e+00 -6.1908484667981351e-02 +1.3808841876548089e-01 +1.1525311360178523e+00 +1.0891412618873497e+01 +1.0005287950854430e+03 -1.4185005535206892e+04 -2.6676821471983418e+06 
+3.2000000000000015e+00 -6.1908428318051621e-02 +1.3808722265667692e-01 +1.1525186495840172e+00 +1.0939644367127947e+01 +1.0008080991406155e+03 -1.4467289337634611e+04 -2.6637597714656834e+06 
+3.3000000000000016e+00 -6.1908371464721779e-02 +1.3808612398311146e-01 +1.1524889135935028e+00 +1.0980634873666002e+01 +1.0014444545946170e+03 -1.4705522033396055e+04 -2.6618575593863139e+06 
+3.4000000000000017e+00 -6.1908314110265580e-02 +1.3808514283277737e-01 +1.1524399310002140e+00 +1.1013705227420203e+01 +1.0024931126996495e+03 -1.4895863891956840e+04 -2.6623541987590212e+06 
+3.5000000000000018e+00 -6.1908256256960094e-02 +1.3808429929142779e-01 +1.1523697052574489e+00 +1.1038176600427784e+01 +1.0040093175815874e+03 -1.5034475706762336e+04 -2.6656283553966177e+06 
+3.6000000000000019e+00 -6.1908197907088069e-02 +1.3808361344213399e-01 +1.1522762405835707e+00 +1.1053370262344753e+01 +1.0060483014124143e+03 -1.5117518882764096e+04 -2.6720586508756862e+06 
+3.7000000000000020e+00 -6.1908139062938114e-02 +1.3808310536560345e-01 +1.1521575420140548e+00 +1.1058607572438152e+01 +1.0086652834592489e+03 -1.5141155392892537e+04 -2.6820236585330316e+06 
+3.8000000000000020e+00 -6.1908079726803046e-02 +1.3808279513952465e-01 +1.1520116151963906e+00 +1.1053209999169113e+01 +1.0119154740808386e+03 -1.5101547892698221e+04 -2.6959019229269205e+06 
+3.9000000000000021e+00 -6.1908019900983949e-02 +1.3808270283863328e-01 +1.1518364668773080e+00 +1.1036499119678364e+01 +1.0158540656150515e+03 -1.4994859720076438e+04 -2.7140719171503703e+06 
+4.0000000000000018e+00 -6.1907959587786818e-02 +1.3808284853455274e-01 +1.1516301044524755e+00 +1.1007796625954017e+01 +1.0205362416140542e+03 -1.4817254909907597e+04 -2.7369120867193514e+06 
+4.1000000000000014e+00 -6.1907898778488832e-02 +1.3808324882114126e-01 +1.1513912447293766e+00 +1.0966654185053629e+01 +1.0259962074912551e+03 -1.4566210461737806e+04 -2.7646605442128619e+06 
+4.2000000000000011e+00 -6.1907837423333535e-02 +1.3808390383530061e-01 +1.1511220670812825e+00 +1.0913627280900604e+01 +1.0321634819772021e+03 -1.4245115655421048e+04 -2.7968809610461597e+06 
+4.3000000000000007e+00 -6.1907775463068214e-02 +1.3808480887844754e-01 +1.1508257797377006e+00 +1.0849547130336436e+01 +1.0389359671523177e+03 -1.3859023558780797e+04 -2.8329381297874702e+06 
+4.4000000000000004e+00 -6.1907712838441542e-02 +1.3808595925318320e-01 +1.1505055908406132e+00 +1.0775244924931215e+01 +1.0462115641291889e+03 -1.3412987134017392e+04 -2.8721968258033758e+06 
+4.5000000000000000e+00 -6.1907649490201999e-02 +1.3808735026416699e-01 +1.1501647080944020e+00 +1.0691551800520367e+01 +1.0538881809381639e+03 -1.2912059046670232e+04 -2.9140218480938380e+06 
+4.5999999999999996e+00 -6.1907585359098558e-02 +1.3808897721791705e-01 +1.1498063388971287e+00 +1.0599298841604156e+01 +1.0618637296157519e+03 -1.2361291688752286e+04 -2.9577780040070252e+06 
+4.6999999999999993e+00 -6.1907520385879537e-02 +1.3809083542362965e-01 +1.1494336901464102e+00 +1.0499317058641461e+01 +1.0700361297638326e+03 -1.1765737050591053e+04 -3.0028301252652653e+06 
+4.7999999999999989e+00 -6.1907454511295402e-02 +1.3809292019244662e-01 +1.1490499685493998e+00 +1.0392437408058997e+01 +1.0783033027271138e+03 -1.1130446834489330e+04 -3.0485430400911979e+06 
+4.8999999999999986e+00 -6.1907387676092142e-02 +1.3809522683820194e-01 +1.1486583798062067e+00 +1.0279490770994443e+01 +1.0865631865173782e+03 -1.0460472333723961e+04 -3.0942816418935419e+06 
+4.9999999999999982e+00 -6.1907319821019484e-02 +1.3809775067764268e-01 +1.1482621296132880e+00 +1.0161307946594469e+01 +1.0947137169720129e+03 -9.7608643933183739e+03 -3.1394108002598286e+06 
+5.0999999999999979e+00 -6.1907250886822772e-02 +1.3810048703016159e-01 +1.1478644225330359e+00 +1.0038719658277179e+01 +1.1026528492600964e+03 -9.0366734432173962e+03 -3.1832954623706108e+06 
+5.1999999999999975e+00 -6.1907180814250229e-02 +1.3810343121820709e-01 +1.1474684630539287e+00 +9.9125565436016991e+00 +1.1102785368727184e+03 -8.2929494457336968e+03 -3.2253005507393945e+06 
+5.2999999999999972e+00 -6.1907109544046546e-02 +1.3810657856742067e-01 +1.1470774545877120e+00 +9.7836491482772363e+00 +1.1174887512202890e+03 -7.5347418558933878e+03 -3.2647910569759747e+06 
+5.3999999999999968e+00 -6.1907037016957114e-02 +1.3810992440686126e-01 +1.1466946000480154e+00 +9.6528279201157048e+00 +1.1241814704569003e+03 -6.7670995883830483e+03 -3.3011319881820031e+06 
+5.4999999999999964e+00 -6.1906963173724433e-02 +1.3811346406894162e-01 +1.1463231014234698e+00 +9.5209232108933879e+00 +1.1302546868640252e+03 -5.9950710297341420e+03 -3.3336883992599505e+06 
+5.5999999999999961e+00 -6.1906887955093422e-02 +1.3811719288997978e-01 +1.1459661603242741e+00 +9.3887652590366191e+00 +1.1356063970215687e+03 -5.2237039345130270e+03 -3.3618253474333188e+06 
+5.6999999999999957e+00 -6.1906811301801340e-02 +1.3812110620967169e-01 +1.1456269767681135e+00 +9.2571842058681799e+00 +1.1401346242725078e+03 -4.4580455240813235e+03 -3.3849079969192753e+06 
+5.7999999999999954e+00 -6.1906733154591595e-02 +1.3812519937212070e-01 +1.1453087508745561e+00 +9.1270100647082089e+00 +1.1437373863955563e+03 -3.7031423044419084e+03 -3.4023014644379476e+06 
+5.8999999999999950e+00 -6.1906653454199476e-02 +1.3812946772525894e-01 +1.1450146809760773e+00 +8.9990727376239015e+00 +1.1463127319885127e+03 -2.9640401646854762e+03 -3.4133709930827529e+06 
+5.9999999999999947e+00 -6.1906572141363726e-02 +1.3813390662138517e-01 +1.1447479651735153e+00 +8.8742019969255210e+00 +1.1477587089991098e+03 -2.2457843556596627e+03 -3.4174818048172747e+06 
+6.0999999999999943e+00 -6.1906489194415368e-02 +1.3813850450423862e-01 +1.1445116468238516e+00 +8.7531692004557193e+00 +1.1479944956222876e+03 -1.5529916761889240e+03 -3.4141529812932746e+06 
+6.1999999999999940e+00 -6.1906404738436838e-02 +1.3814322818618227e-01 +1.1443080968084030e+00 +8.6363261821558517e+00 +1.1470402243148058e+03 -8.8734652122083980e+02 -3.4036137695335974e+06 
+6.2999999999999936e+00 -6.1906318934317792e-02 +1.3814804068086253e-01 +1.1441394797021334e+00 +8.5238662300934109e+00 +1.1449462061576821e+03 -2.4946298411839916e+02 -3.3863000440430366e+06 
+6.3999999999999932e+00 -6.1906231942937824e-02 +1.3815290499994215e-01 +1.1440079594232460e+00 +8.4159826260088959e+00 +1.1417627682415250e+03 +3.6004502573706253e+02 -3.3626477676481833e+06 
+6.4999999999999929e+00 -6.1906143925160154e-02 +1.3815778415122720e-01 +1.1439156985478842e+00 +8.3128687154967551e+00 +1.1375402641269591e+03 +9.4056339274749348e+02 -3.3330930381228235e+06 
+6.5999999999999925e+00 -6.1906055041838583e-02 +1.3816264113880003e-01 +1.1438648592835063e+00 +8.2147179014450842e+00 +1.1323290546689304e+03 +1.4914778429422070e+03 -3.2980719954072270e+06 
+6.6999999999999922e+00 -6.1905965453810254e-02 +1.3816743896289899e-01 +1.1438576025225229e+00 +8.1217236456049022e+00 +1.1261795267164632e+03 +2.0121739416788871e+03 -3.2580209127848502e+06 
+6.7999999999999918e+00 -6.1905875321900887e-02 +1.3817214061968824e-01 +1.1438960886114602e+00 +8.0340794738821302e+00 +1.1191420779880891e+03 +2.5020370676498769e+03 -3.2133761239528614e+06 
+6.8999999999999915e+00 -6.1905784806920501e-02 +1.3817670910103352e-01 +1.1439824767816804e+00 +7.9519789804695531e+00 +1.1112671282727893e+03 +2.9604523980670792e+03 -3.1645740776012712e+06 
+6.9999999999999911e+00 -6.1905694069663890e-02 +1.3818110739450695e-01 +1.1441189252839523e+00 +7.8756158255709670e+00 +1.1026051168351407e+03 +3.3868049284088070e+03 -3.1120513252922450e+06 
+7.0999999999999908e+00 -6.1905603270911061e-02 +1.3818529848301536e-01 +1.1443075914727563e+00 +7.8051837441030578e+00 +1.0932065007546482e+03 +3.7804794298191846e+03 -3.0562445138347810e+06 
+7.1999999999999904e+00 -6.1905512571425229e-02 +1.3818924534459656e-01 +1.1445506315674345e+00 +7.7408765502627030e+00 +1.0831217596259589e+03 +4.1408604274133440e+03 -2.9975904081025398e+06 
+7.2999999999999901e+00 -6.1905422131953644e-02 +1.3819291095284736e-01 +1.1448502008294579e+00 +7.6828881218033267e+00 +1.0724013921504661e+03 +4.4673323029827598e+03 -2.9365258754129051e+06 
+7.3999999999999897e+00 -6.1905332113226089e-02 +1.3819625827580850e-01 +1.1452084533564006e+00 +7.6314124321842298e+00 +1.0610959203255666e+03 +4.7592791093749411e+03 -2.8734879062720733e+06 
+7.4999999999999893e+00 -6.1905242675955333e-02 +1.3819925027654079e-01 +1.1456275422543698e+00 +7.5866435301796171e+00 +1.0492558856308087e+03 +5.0160847019313842e+03 -2.8089135951394397e+06 
+7.5999999999999890e+00 -6.1905153980836757e-02 +1.3820184991275394e-01 +1.1461096195169218e+00 +7.5487755497351525e+00 +1.0369318522666219e+03 +5.2371326841034725e+03 -2.7432401587503795e+06 
+7.6999999999999886e+00 -6.1905066188545306e-02 +1.3820402013639754e-01 +1.1466568357866995e+00 +7.5180027190054162e+00 +1.0241744107484044e+03 +5.4218063652649944e+03 -2.6769049508832856e+06 
+7.7999999999999883e+00 -6.1904979459737171e-02 +1.3820572389408758e-01 +1.1472713405222061e+00 +7.4945193469299252e+00 +1.0110341755396338e+03 +5.5694888429384655e+03 -2.6103454537251182e+06 
+7.8999999999999879e+00 -6.1904893955052234e-02 +1.3820692412611144e-01 +1.1479552823996437e+00 +7.4785198492703975e+00 +9.9756177699977115e+02 +5.6795628604610602e+03 -2.5439992387109986e+06 
+7.9999999999999876e+00 -6.1904809835105726e-02 +1.3820758376806422e-01 +1.1487108083969100e+00 +7.4701986927624624e+00 +9.8380787789806084e+02 +5.7514112629687725e+03 -2.4783040331602730e+06 
+8.0999999999999872e+00 -6.1904727192729651e-02 +1.3820768107469841e-01 +1.1495377812573024e+00 +7.4695338932137929e+00 +9.6983444906441866e+02 +5.7854915855212139e+03 -2.4136772386876424e+06 
+8.1999999999999869e+00 -6.1904645851433918e-02 +1.3820724859861541e-01 +1.1504257502849382e+00 +7.4758976892477635e+00 +9.5576171860386069e+02 +5.7849854082554220e+03 -2.3505158289227895e+06 
+8.2999999999999865e+00 -6.1904565567685116e-02 +1.3820633080704386e-01 +1.1513614103962724e+00 +7.4885781808641454e+00 +9.4172661837802480e+02 +5.7533635125270384e+03 -2.2892198263718225e+06 
+8.3999999999999861e+00 -6.1904486097965811e-02 +1.3820497217462507e-01 +1.1523314578801604e+00 +7.5068633507655766e+00 +9.2786605224796654e+02 +5.6940972053262367e+03 -2.2301891269767317e+06 
+8.4999999999999858e+00 -6.1904407198773111e-02 +1.3820321718313869e-01 +1.1533225900909934e+00 +7.5300410452317967e+00 +9.1431690733254834e+02 +5.6106583163666610e+03 -2.1738235553444335e+06 
+8.5999999999999854e+00 -6.1904328626621589e-02 +1.3820111032252791e-01 +1.1543215058009111e+00 +7.5573989485264379e+00 +9.0121604716651302e+02 +5.5065193325682085e+03 -2.1205228317865469e+06 
+8.6999999999999851e+00 -6.1904250138041794e-02 +1.3819869609112881e-01 +1.1553149049841913e+00 +7.5882245760806661e+00 +8.8870031606867462e+02 +5.3851534361661397e+03 -2.0706865936584838e+06 
+8.7999999999999847e+00 -6.1904171489583604e-02 +1.3819601899582787e-01 +1.1562894891868554e+00 +7.6218052754149355e+00 +8.7690653223030449e+02 +5.2500344814384198e+03 -2.0247143627387593e+06 
+8.8999999999999844e+00 -6.1904092437812662e-02 +1.3819312355202160e-01 +1.1572319610627950e+00 +7.6574282279668715e+00 +8.6597149667575218e+02 +5.1046369797715815e+03 -1.9830055882265272e+06 
+8.9999999999999840e+00 -6.1904012739315915e-02 +1.3819005428429382e-01 +1.1581290250818161e+00 +7.6943804328546062e+00 +8.5603197946242335e+02 +4.9524361823885838e+03 -1.9459595799356925e+06 
+9.0999999999999837e+00 -6.1903932150697005e-02 +1.3818685572656464e-01 +1.1589673868461059e+00 +7.7319487043793718e+00 +8.4722473354332783e+02 +4.7969080875028712e+03 -1.9139755767051780e+06 
+9.1999999999999833e+00 -6.1903850428580702e-02 +1.3818357242216492e-01 +1.1597337536827423e+00 +7.7694196735134673e+00 +8.3968648292090802e+02 +4.6415294188564121e+03 -1.8874526882267210e+06 
+9.2999999999999829e+00 -6.1903767329613002e-02 +1.3818024892423894e-01 +1.1604148345974068e+00 +7.8060797777779474e+00 +8.3355392392898239e+02 +4.4897776779758024e+03 -1.8667899021867588e+06 
+9.3999999999999826e+00 -6.1903682610459122e-02 +1.3817692979614760e-01 +1.1609973400053033e+00 +7.8412152526247922e+00 +8.2896373050534100e+02 +4.3451311834073922e+03 -1.8523861098188816e+06 
+9.4999999999999822e+00 -6.1903596027809003e-02 +1.3817365961114023e-01 +1.1614679823828009e+00 +7.8741121434292873e+00 +8.2605254175416644e+02 +4.2110689917503878e+03 -1.8446400463426320e+06 
+9.5999999999999819e+00 -6.1903507338371203e-02 +1.3817048295332382e-01 +1.1618134754970835e+00 +7.9040562801136707e+00 +8.2495697673855477e+02 +4.0910710347712557e+03 -1.8439503617948396e+06 
+9.6999999999999815e+00 -6.1903416298879119e-02 +1.3816744441765064e-01 +1.1620205351387991e+00 +7.9303332792352634e+00 +8.2581362055625857e+02 +3.9886181008045533e+03 -1.8507155545670609e+06 
+9.7999999999999812e+00 -6.1903322666089951e-02 +1.3816458860983258e-01 +1.1620758789462480e+00 +7.9522285503881047e+00 +8.2875902816668088e+02 +3.9071917835680811e+03 -1.8653339910198015e+06 
+9.8999999999999808e+00 -6.1903226196783685e-02 +1.3816196014709564e-01 +1.1619662262806567e+00 +7.9690272756683962e+00 +8.3392972645942530e+02 +3.8502745957593497e+03 -1.8882039142832204e+06 
+9.9999999999999805e+00 -6.1903126647765164e-02 +1.3815960365591581e-01 +1.1616782982205578e+00 +7.9800145194265264e+00 +8.4146222065505401e+02 +3.8213491165365067e+03 -1.9197235039806163e+06 
+1.0099999999999980e+01 -6.1903023856302045e-02 +1.3815755101024352e-01 +1.1612034750790048e+00 +7.9847750076564461e+00 +8.5143762515594426e+02 +3.8222199232099961e+03 -1.9601131972919465e+06 
