# trajectory
# s[mm] rx[mm] ry[mm] rz[mm] px[rad] py[rad] pz[rad]
0.0000000000000000e+00 +9.1013000000000002e+00 +0.0000000000000000e+00 +0.0000000000000000e+00 +0.0000000000000000e+00 +0.0000000000000000e+00 +1.0000000000000000e+00
1.0000000000000001e-01 +9.1012994835897700e+00 +0.0000000000000000e+00 +9.9999999998222136e-02 -1.0328203547584466e-05 +0.0000000000000000e+00 +9.9999999994666411e-01
2.0000000000000001e-01 +9.1012979343595024e+00 +0.0000000000000000e+00 +1.9999999998577711e-01 -2.0656400738146839e-05 +0.0000000000000000e+00 +9.9999999978665655e-01
3.0000000000000004e-01 +9.1012953523098368e+00 +0.0000000000000000e+00 +2.9999999995199778e-01 -3.0984591510571386e-05 +0.0000000000000000e+00 +9.9999999951997753e-01
4.0000000000000002e-01 +9.1012917374414180e+00 +0.0000000000000000e+00 +3.9999999988621693e-01 -4.1312775791397730e-05 +0.0000000000000000e+00 +9.9999999914662729e-01
5.0000000000000000e-01 +9.1012870897548979e+00 +0.0000000000000000e+00 +4.9999999977776755e-01 -5.1640953494820812e-05 +0.0000000000000000e+00 +9.9999999866660594e-01
5.9999999999999998e-01 +9.1012814092509409e+00 +0.0000000000000000e+00 +5.9999999961598249e-01 -6.1969124522691070e-05 +0.0000000000000000e+00 +9.9999999807991380e-01
6.9999999999999996e-01 +9.1012746959302202e+00 +0.0000000000000000e+00 +6.9999999939019464e-01 -7.2297288764514730e-05 +0.0000000000000000e+00 +9.9999999738655099e-01
7.9999999999999993e-01 +9.1012669497934198e+00 +0.0000000000000000e+00 +7.9999999908973707e-01 -8.2625446097454335e-05 +0.0000000000000000e+00 +9.9999999658651784e-01
8.9999999999999991e-01 +9.1012581708412359e+00 +0.0000000000000000e+00 +8.9999999870394265e-01 -9.2953596386329389e-05 +0.0000000000000000e+00 +9.9999999567981446e-01
9.9999999999999989e-01 +9.1012483590743827e+00 +0.0000000000000000e+00 +9.9999999822214436e-01 -1.0328173948361722e-04 +0.0000000000000000e+00 +9.9999999466644118e-01
1.0999999999999999e+00 +9.1012375144935849e+00 +0.0000000000000000e+00 +1.0999999976336752e+00 -1.1360987522945399e-04 +0.0000000000000000e+00 +9.9999999354639812e-01
1.2000000000000000e+00 +9.1012256370995868e+00 +0.0000000000000000e+00 +1.1999999969278683e+00 -1.2393800345163587e-04 +0.0000000000000000e+00 +9.9999999231968562e-01
1.3000000000000000e+00 +9.1012127268931504e+00 +0.0000000000000000e+00 +1.2999999960940567e+00 -1.3426612396562042e-04 +0.0000000000000000e+00 +9.9999999098630388e-01
1.4000000000000001e+00 +9.1011987838750574e+00 +0.0000000000000000e+00 +1.3999999951215734e+00 -1.4459423657452809e-04 +0.0000000000000000e+00 +9.9999998954625324e-01
1.5000000000000002e+00 +9.1011838080461072e+00 +0.0000000000000000e+00 +1.4999999939997517e+00 -1.5492234106914400e-04 +0.0000000000000000e+00 +9.9999998799953393e-01
1.6000000000000003e+00 +9.1011677994071221e+00 +0.0000000000000000e+00 +1.5999999927179247e+00 -1.6525043722791970e-04 +0.0000000000000000e+00 +9.9999998634614629e-01
1.7000000000000004e+00 +9.1011507579589477e+00 +0.0000000000000000e+00 +1.6999999912654253e+00 -1.7557852481697538e-04 +0.0000000000000000e+00 +9.9999998458609063e-01
1.8000000000000005e+00 +9.1011326837024527e+00 +0.0000000000000000e+00 +1.7999999896315870e+00 -1.8590660359010192e-04 +0.0000000000000000e+00 +9.9999998271936719e-01
1.9000000000000006e+00 +9.1011135766385323e+00 +0.0000000000000000e+00 +1.8999999878057430e+00 -1.9623467328876344e-04 +0.0000000000000000e+00 +9.9999998074597629e-01
2.0000000000000004e+00 +9.1010934367681067e+00 +0.0000000000000000e+00 +1.9999999857772266e+00 -2.0656273364209974e-04 +0.0000000000000000e+00 +9.9999997866591828e-01
2.1000000000000005e+00 +9.1010722640921244e+00 +0.0000000000000000e+00 +2.0999999835353709e+00 -2.1689078436804696e-04 +0.0000000000000000e+00 +9.9999997647919348e-01
2.2000000000000006e+00 +9.1010500586115626e+00 +0.0000000000000000e+00 +2.1999999810695097e+00 -2.2721882518563535e-04 +0.0000000000000000e+00 +9.9999997418580233e-01
2.3000000000000007e+00 +9.1010268203274265e+00 +0.0000000000000000e+00 +2.2999999783689757e+00 -2.3754685582728609e-04 +0.0000000000000000e+00 +9.9999997178574518e-01
2.4000000000000008e+00 +9.1010025492407447e+00 +0.0000000000000000e+00 +2.3999999754231029e+00 -2.4787487603992965e-04 +0.0000000000000000e+00 +9.9999996927902235e-01
2.5000000000000009e+00 +9.1009772453525741e+00 +0.0000000000000000e+00 +2.4999999722212247e+00 -2.5820288558500623e-04 +0.0000000000000000e+00 +9.9999996666563429e-01
2.6000000000000010e+00 +9.1009509086639913e+00 +0.0000000000000000e+00 +2.5999999687526745e+00 -2.6853088423846609e-04 +0.0000000000000000e+00 +9.9999996394558133e-01
2.7000000000000011e+00 +9.1009235391760956e+00 +0.0000000000000000e+00 +2.6999999650067856e+00 -2.7885887179076983e-04 +0.0000000000000000e+00 +9.9999996111886391e-01
2.8000000000000012e+00 +9.1008951368900082e+00 +0.0000000000000000e+00 +2.7999999609728916e+00 -2.8918684804688844e-04 +0.0000000000000000e+00 +9.9999995818548248e-01
2.9000000000000012e+00 +9.1008657018068675e+00 +0.0000000000000000e+00 +2.8999999566403263e+00 -2.9951481282630346e-04 +0.0000000000000000e+00 +9.9999995514543738e-01
3.0000000000000013e+00 +9.1008352339278300e+00 +0.0000000000000000e+00 +2.9999999519984235e+00 -3.0984276596300673e-04 +0.0000000000000000e+00 +9.9999995199872893e-01
3.1000000000000014e+00 +9.1008037332540681e+00 +0.0000000000000000e+00 +3.0999999470365167e+00 -3.2017070730550024e-04 +0.0000000000000000e+00 +9.9999994874535769e-01
3.2000000000000015e+00 +9.1007711997867666e+00 +0.0000000000000000e+00 +3.1999999417439398e+00 -3.3049863671679586e-04 +0.0000000000000000e+00 +9.9999994538532400e-01
3.3000000000000016e+00 +9.1007376335271264e+00 +0.0000000000000000e+00 +3.2999999361100261e+00 -3.4082655407441490e-04 +0.0000000000000000e+00 +9.9999994191862829e-01
3.4000000000000017e+00 +9.1007030344763571e+00 +0.0000000000000000e+00 +3.3999999301241099e+00 -3.5115445927038751e-04 +0.0000000000000000e+00 +9.9999993834527090e-01
3.5000000000000018e+00 +9.1006674026356809e+00 +0.0000000000000000e+00 +3.4999999237755248e+00 -3.6148235221125207e-04 +0.0000000000000000e+00 +9.9999993466525228e-01
3.6000000000000019e+00 +9.1006307380063269e+00 +0.0000000000000000e+00 +3.5999999170536050e+00 -3.7181023281805447e-04 +0.0000000000000000e+00 +9.9999993087857286e-01
3.7000000000000020e+00 +9.1005930405895317e+00 +0.0000000000000000e+00 +3.6999999099476844e+00 -3.8213810102634714e-04 +0.0000000000000000e+00 +9.9999992698523310e-01
3.8000000000000020e+00 +9.1005543103865367e+00 +0.0000000000000000e+00 +3.7999999024470963e+00 -3.9246595678618819e-04 +0.0000000000000000e+00 +9.9999992298523332e-01
3.9000000000000021e+00 +9.1005145473985909e+00 +0.0000000000000000e+00 +3.8999998945411756e+00 -4.0279380006214021e-04 +0.0000000000000000e+00 +9.9999991887857398e-01
4.0000000000000018e+00 +9.1004737516269412e+00 +0.0000000000000000e+00 +3.9999998862192561e+00 -4.1312163083326921e-04 +0.0000000000000000e+00 +9.9999991466525540e-01
4.1000000000000014e+00 +9.1004319230728399e+00 +0.0000000000000000e+00 +4.0999998774706716e+00 -4.2344944909265158e-04 +0.0000000000000000e+00 +9.9999991034527802e-01
4.2000000000000011e+00 +9.1003890617375394e+00 +0.0000000000000000e+00 +4.1999998682847561e+00 -4.3377725484196615e-04 +0.0000000000000000e+00 +9.9999990591864218e-01
4.3000000000000007e+00 +9.1003451676222884e+00 +0.0000000000000000e+00 +4.2999998586508443e+00 -4.4410504808608625e-04 +0.0000000000000000e+00 +9.9999990138534833e-01
4.4000000000000004e+00 +9.1003002407283375e+00 +0.0000000000000000e+00 +4.3999998485582701e+00 -4.5443282883258698e-04 +0.0000000000000000e+00 +9.9999989674539680e-01
4.5000000000000000e+00 +9.1002542810569373e+00 +0.0000000000000000e+00 +4.4999998379963682e+00 -4.6476059709174398e-04 +0.0000000000000000e+00 +9.9999989199878792e-01
4.5999999999999996e+00 +9.1002072886093348e+00 +0.0000000000000000e+00 +4.5999998269544724e+00 -4.7508835287653206e-04 +0.0000000000000000e+00 +9.9999988714552213e-01
4.6999999999999993e+00 +9.1001592633867769e+00 +0.0000000000000000e+00 +4.6999998154219176e+00 -4.8541609620262390e-04 +0.0000000000000000e+00 +9.9999988218559988e-01
4.7999999999999989e+00 +9.1001102053905090e+00 +0.0000000000000000e+00 +4.7999998033880376e+00 -4.9574382708838854e-04 +0.0000000000000000e+00 +9.9999987711902150e-01
4.8999999999999986e+00 +9.1000601146217726e+00 +0.0000000000000000e+00 +4.8999997908421671e+00 -5.0607154555488976e-04 +0.0000000000000000e+00 +9.9999987194578732e-01
4.9999999999999982e+00 +9.1000089910818112e+00 +0.0000000000000000e+00 +4.9999997777736400e+00 -5.1639925162588448e-04 +0.0000000000000000e+00 +9.9999986666589769e-01
5.0999999999999979e+00 +9.0999568347718611e+00 +0.0000000000000000e+00 +5.0999997641717911e+00 -5.2672694532782116e-04 +0.0000000000000000e+00 +9.9999986127935303e-01
5.1999999999999975e+00 +9.0999036456931570e+00 +0.0000000000000000e+00 +5.1999997500259552e+00 -5.3705462668983764e-04 +0.0000000000000000e+00 +9.9999985578615369e-01
5.2999999999999972e+00 +9.0998494238469334e+00 +0.0000000000000000e+00 +5.2999997353254669e+00 -5.4738229574375957e-04 +0.0000000000000000e+00 +9.9999985018630000e-01
5.3999999999999968e+00 +9.0997941692344178e+00 +0.0000000000000000e+00 +5.3999997200596601e+00 -5.5770995252409821e-04 +0.0000000000000000e+00 +9.9999984447979240e-01
5.4999999999999964e+00 +9.0997378818568357e+00 +0.0000000000000000e+00 +5.4999997042178697e+00 -5.6803759706804873e-04 +0.0000000000000000e+00 +9.9999983866663122e-01
5.5999999999999961e+00 +9.0996805617154095e+00 +0.0000000000000000e+00 +5.5999996877894311e+00 -5.7836522941548754e-04 +0.0000000000000000e+00 +9.9999983274681681e-01
5.6999999999999957e+00 +9.0996222088113576e+00 +0.0000000000000000e+00 +5.6999996707636784e+00 -5.8869284960897045e-04 +0.0000000000000000e+00 +9.9999982672034948e-01
5.7999999999999954e+00 +9.0995628231458916e+00 +0.0000000000000000e+00 +5.7999996531299463e+00 -5.9902045769373016e-04 +0.0000000000000000e+00 +9.9999982058722958e-01
5.8999999999999950e+00 +9.0995024047202211e+00 +0.0000000000000000e+00 +5.8999996348775694e+00 -6.0934805371767398e-04 +0.0000000000000000e+00 +9.9999981434745755e-01
5.9999999999999947e+00 +9.0994409535355487e+00 +0.0000000000000000e+00 +5.9999996159958826e+00 -6.1967563773138146e-04 +0.0000000000000000e+00 +9.9999980800103361e-01
6.0999999999999943e+00 +9.0993784695930735e+00 +0.0000000000000000e+00 +6.0999995964742206e+00 -6.3000320978757074e-04 +0.0000000000000000e+00 +9.9999980154795820e-01
6.1999999999999940e+00 +9.0993149528939892e+00 +0.0000000000000000e+00 +6.1999995763019191e+00 -6.4033076993525861e-04 +0.0000000000000000e+00 +9.9999979498823155e-01
6.2999999999999936e+00 +9.0992504034394823e+00 +0.0000000000000000e+00 +6.2999995554683119e+00 -6.5065831821392161e-04 +0.0000000000000000e+00 +9.9999978832185410e-01
6.3999999999999932e+00 +9.0991848212307396e+00 +0.0000000000000000e+00 +6.3999995339627347e+00 -6.6098585465296635e-04 +0.0000000000000000e+00 +9.9999978154882618e-01
6.4999999999999929e+00 +9.0991182062689457e+00 +0.0000000000000000e+00 +6.4999995117745222e+00 -6.7131337927172990e-04 +0.0000000000000000e+00 +9.9999977466914813e-01
6.5999999999999925e+00 +9.0990505585552803e+00 +0.0000000000000000e+00 +6.5999994888930091e+00 -6.8164089207948077e-04 +0.0000000000000000e+00 +9.9999976768282028e-01
6.6999999999999922e+00 +9.0989818780909246e+00 +0.0000000000000000e+00 +6.6999994653075312e+00 -6.9196839307541981e-04 +0.0000000000000000e+00 +9.9999976058984297e-01
6.7999999999999918e+00 +9.0989121648770599e+00 +0.0000000000000000e+00 +6.7999994410074232e+00 -7.0229588224868104e-04 +0.0000000000000000e+00 +9.9999975339021663e-01
6.8999999999999915e+00 +9.0988414189148692e+00 +0.0000000000000000e+00 +6.8999994159820197e+00 -7.1262335957833261e-04 +0.0000000000000000e+00 +9.9999974608394160e-01
6.9999999999999911e+00 +9.0987696402055391e+00 +0.0000000000000000e+00 +6.9999993902206565e+00 -7.2295082503337797e-04 +0.0000000000000000e+00 +9.9999973867101832e-01
7.0999999999999908e+00 +9.0986968287502599e+00 +0.0000000000000000e+00 +7.0999993637126684e+00 -7.3327827857275674e-04 +0.0000000000000000e+00 +9.9999973115144714e-01
7.1999999999999904e+00 +9.0986229845502233e+00 +0.0000000000000000e+00 +7.1999993364473909e+00 -7.4360572014534607e-04 +0.0000000000000000e+00 +9.9999972352522848e-01
7.2999999999999901e+00 +9.0985481076066304e+00 +0.0000000000000000e+00 +7.2999993084141588e+00 -7.5393314968996174e-04 +0.0000000000000000e+00 +9.9999971579236269e-01
7.3999999999999897e+00 +9.0984721979206871e+00 +0.0000000000000000e+00 +7.3999992796023077e+00 -7.6426056713535951e-04 +0.0000000000000000e+00 +9.9999970795285031e-01
7.4999999999999893e+00 +9.0983952554936085e+00 +0.0000000000000000e+00 +7.4999992500011734e+00 -7.7458797240023637e-04 +0.0000000000000000e+00 +9.9999970000669169e-01
7.5999999999999890e+00 +9.0983172803266168e+00 +0.0000000000000000e+00 +7.5999992196000914e+00 -7.8491536539323191e-04 +0.0000000000000000e+00 +9.9999969195388727e-01
7.6999999999999886e+00 +9.0982382724209430e+00 +0.0000000000000000e+00 +7.6999991883883965e+00 -7.9524274601292975e-04 +0.0000000000000000e+00 +9.9999968379443760e-01
7.7999999999999883e+00 +9.0981582317778305e+00 +0.0000000000000000e+00 +7.7999991563554243e+00 -8.0557011414785905e-04 +0.0000000000000000e+00 +9.9999967552834312e-01
7.8999999999999879e+00 +9.0980771583985334e+00 +0.0000000000000000e+00 +7.8999991234905105e+00 -8.1589746967649604e-04 +0.0000000000000000e+00 +9.9999966715560429e-01
7.9999999999999876e+00 +9.0979950522843200e+00 +0.0000000000000000e+00 +7.9999990897829907e+00 -8.2622481246726574e-04 +0.0000000000000000e+00 +9.9999965867622154e-01
8.0999999999999872e+00 +9.0979119134364694e+00 +0.0000000000000000e+00 +8.0999990552222005e+00 -8.3655214237829596e-04 +0.0000000000000000e+00 +9.9999965009019542e-01
8.1999999999999869e+00 +9.0978277418562783e+00 +0.0000000000000000e+00 +8.1999990197974757e+00 -8.4687945925469540e-04 +0.0000000000000000e+00 +9.9999964139752651e-01
8.2999999999999865e+00 +9.0977425375450593e+00 +0.0000000000000000e+00 +8.2999989834981509e+00 -8.5720676292583417e-04 +0.0000000000000000e+00 +9.9999963259821534e-01
8.3999999999999861e+00 +9.0976563005041395e+00 +0.0000000000000000e+00 +8.3999989463135627e+00 -8.6753405320510026e-04 +0.0000000000000000e+00 +9.9999962369226247e-01
8.4999999999999858e+00 +9.0975690307348707e+00 +0.0000000000000000e+00 +8.4999989082330476e+00 -8.7786132988990474e-04 +0.0000000000000000e+00 +9.9999961467966847e-01
8.5999999999999854e+00 +9.0974807282386223e+00 +0.0000000000000000e+00 +8.5999988692459421e+00 -8.8818859276168689e-04 +0.0000000000000000e+00 +9.9999960556043399e-01
8.6999999999999851e+00 +9.0973913930167871e+00 +0.0000000000000000e+00 +8.6999988293415811e+00 -8.9851584158591913e-04 +0.0000000000000000e+00 +9.9999959633455970e-01
8.7999999999999847e+00 +9.0973010250707826e+00 +0.0000000000000000e+00 +8.7999987885092992e+00 -9.0884307611211238e-04 +0.0000000000000000e+00 +9.9999958700204616e-01
8.8999999999999844e+00 +9.0972096244020513e+00 +0.0000000000000000e+00 +8.8999987467384347e+00 -9.1917029607382157e-04 +0.0000000000000000e+00 +9.9999957756289415e-01
8.9999999999999840e+00 +9.0971171910120638e+00 +0.0000000000000000e+00 +8.9999987040183225e+00 -9.2949750118865118e-04 +0.0000000000000000e+00 +9.9999956801710432e-01
9.0999999999999837e+00 +9.0970237249023196e+00 +0.0000000000000000e+00 +9.0999986603383007e+00 -9.3982469115826107e-04 +0.0000000000000000e+00 +9.9999955836467735e-01
9.1999999999999833e+00 +9.0969292260743480e+00 +0.0000000000000000e+00 +9.1999986156877043e+00 -9.5015186566837215e-04 +0.0000000000000000e+00 +9.9999954860561413e-01
9.2999999999999829e+00 +9.0968336945297121e+00 +0.0000000000000000e+00 +9.2999985700558696e+00 -9.6047902438877255e-04 +0.0000000000000000e+00 +9.9999953873991543e-01
9.3999999999999826e+00 +9.0967371302700073e+00 +0.0000000000000000e+00 +9.3999985234321333e+00 -9.7080616697332379e-04 +0.0000000000000000e+00 +9.9999952876758202e-01
9.4999999999999822e+00 +9.0966395332968659e+00 +0.0000000000000000e+00 +9.4999984758058318e+00 -9.8113329305996705e-04 +0.0000000000000000e+00 +9.9999951868861481e-01
9.5999999999999819e+00 +9.0965409036119578e+00 +0.0000000000000000e+00 +9.5999984271663017e+00 -9.9146040227072931e-04 +0.0000000000000000e+00 +9.9999950850301456e-01
9.6999999999999815e+00 +9.0964412412169882e+00 +0.0000000000000000e+00 +9.6999983775028795e+00 -1.0017874942117306e-03 +0.0000000000000000e+00 +9.9999949821078227e-01
9.7999999999999812e+00 +9.0963405461137050e+00 +0.0000000000000000e+00 +9.7999983268049036e+00 -1.0121145684731901e-03 +0.0000000000000000e+00 +9.9999948781191894e-01
9.8999999999999808e+00 +9.0962388183038971e+00 +0.0000000000000000e+00 +9.8999982750617086e+00 -1.0224416246294330e-03 +0.0000000000000000e+00 +9.9999947730642547e-01
9.9999999999999805e+00 +9.0961360577893977e+00 +0.0000000000000000e+00 +9.9999982222626329e+00 -1.0327686622388981e-03 +0.0000000000000000e+00 +9.9999946669430295e-01
1.0099999999999980e+01 +9.0960322645720826e+00 +0.0000000000000000e+00 +1.0099998168397015e+01 -1.0430956808464532e-03 +0.0000000000000000e+00 +9.9999945597555229e-01
1.0199999999999980e+01 +9.0959274386538755e+00 +0.0000000000000000e+00 +1.0199998113454189e+01 -1.0534226800087950e-03 +0.0000000000000000e+00 +9.9999944515017469e-01
1.0299999999999979e+01 +9.0958215800367412e+00 +0.0000000000000000e+00 +1.0299998057423496e+01 -1.0637496593198419e-03 +0.0000000000000000e+00 +9.9999943421817106e-01
1.0399999999999979e+01 +9.0957146887226852e+00 +0.0000000000000000e+00 +1.0399998000294270e+01 -1.0740766184130328e-03 +0.0000000000000000e+00 +9.9999942317954249e-01
1.0499999999999979e+01 +9.0956067647137449e+00 +0.0000000000000000e+00 +1.0499997942055849e+01 -1.0844035569613157e-03 +0.0000000000000000e+00 +9.9999941203428988e-01
1.0599999999999978e+01 +9.0954978080119879e+00 +0.0000000000000000e+00 +1.0599997882697572e+01 -1.0947304746771376e-03 +0.0000000000000000e+00 +9.9999940078241434e-01
1.0699999999999978e+01 +9.0953878186195123e+00 +0.0000000000000000e+00 +1.0699997822208777e+01 -1.1050573713124326e-03 +0.0000000000000000e+00 +9.9999938942391664e-01
1.0799999999999978e+01 +9.0952767965384353e+00 +0.0000000000000000e+00 +1.0799997760578801e+01 -1.1153842466586107e-03 +0.0000000000000000e+00 +9.9999937795879767e-01
1.0899999999999977e+01 +9.0951647417708958e+00 +0.0000000000000000e+00 +1.0899997697796982e+01 -1.1257111005465456e-03 +0.0000000000000000e+00 +9.9999936638705833e-01
1.0999999999999977e+01 +9.0950516543190467e+00 +0.0000000000000000e+00 +1.0999997633852658e+01 -1.1360379328465633e-03 +0.0000000000000000e+00 +9.9999935470869938e-01
1.1099999999999977e+01 +9.0949375341850498e+00 +0.0000000000000000e+00 +1.1099997568735168e+01 -1.1463647434684289e-03 +0.0000000000000000e+00 +9.9999934292372161e-01
1.1199999999999976e+01 +9.0948223813710776e+00 +0.0000000000000000e+00 +1.1199997502433849e+01 -1.1566915323613341e-03 +0.0000000000000000e+00 +9.9999933103212579e-01
1.1299999999999976e+01 +9.0947061958793025e+00 +0.0000000000000000e+00 +1.1299997434938039e+01 -1.1670182995138845e-03 +0.0000000000000000e+00 +9.9999931903391248e-01
1.1399999999999975e+01 +9.0945889777118989e+00 +0.0000000000000000e+00 +1.1399997366237077e+01 -1.1773450449540862e-03 +0.0000000000000000e+00 +9.9999930692908245e-01
1.1499999999999975e+01 +9.0944707268710339e+00 +0.0000000000000000e+00 +1.1499997296320302e+01 -1.1876717687493317e-03 +0.0000000000000000e+00 +9.9999929471763627e-01
1.1599999999999975e+01 +9.0943514433588675e+00 +0.0000000000000000e+00 +1.1599997225177050e+01 -1.1979984710063869e-03 +0.0000000000000000e+00 +9.9999928239957436e-01
1.1699999999999974e+01 +9.0942311271775456e+00 +0.0000000000000000e+00 +1.1699997152796662e+01 -1.2083251518713760e-03 +0.0000000000000000e+00 +9.9999926997489730e-01
1.1799999999999974e+01 +9.0941097783291998e+00 +0.0000000000000000e+00 +1.1799997079168476e+01 -1.2186518115297679e-03 +0.0000000000000000e+00 +9.9999925744360552e-01
