# trajectory
# s[mm] rx[mm] ry[mm] rz[mm] px[rad] py[rad] pz[rad]
0.0000000000000000e+00 +9.0449999999999999e+00 +0.0000000000000000e+00 +0.0000000000000000e+00 +0.0000000000000000e+00 +0.0000000000000000e+00 +1.0000000000000000e+00
-1.0000000000000001e-01 +9.0449994826757560e+00 +0.0000000000000000e+00 -9.9999999998215822e-02 +1.0346485095657378e-05 +0.0000000000000000e+00 +9.9999999994647515e-01
-2.0000000000000001e-01 +9.0449979307029373e+00 +0.0000000000000000e+00 -1.9999999998572668e-01 +2.0692971532211035e-05 +0.0000000000000000e+00 +9.9999999978590048e-01
-3.0000000000000004e-01 +9.0449953440813999e+00 +0.0000000000000000e+00 -2.9999999995182758e-01 +3.1039459483456246e-05 +0.0000000000000000e+00 +9.9999999951827601e-01
-4.0000000000000002e-01 +9.0449917228109840e+00 +0.0000000000000000e+00 -3.9999999988581353e-01 +4.1385949112257785e-05 +0.0000000000000000e+00 +9.9999999914360160e-01
-5.0000000000000000e-01 +9.0449870668915153e+00 +0.0000000000000000e+00 -4.9999999977697956e-01 +5.1732440570549666e-05 +0.0000000000000000e+00 +9.9999999866187728e-01
-5.9999999999999998e-01 +9.0449813763228040e+00 +0.0000000000000000e+00 -5.9999999961462069e-01 +6.2078933999334658e-05 +0.0000000000000000e+00 +9.9999999807310291e-01
-6.9999999999999996e-01 +9.0449746511046456e+00 +0.0000000000000000e+00 -6.9999999938803181e-01 +7.2425429528683602e-05 +0.0000000000000000e+00 +9.9999999737727852e-01
-7.9999999999999993e-01 +9.0449668912368235e+00 +0.0000000000000000e+00 -7.9999999908650798e-01 +8.2771927277734453e-05 +0.0000000000000000e+00 +9.9999999657440397e-01
-8.9999999999999991e-01 +9.0449580967191121e+00 +0.0000000000000000e+00 -8.9999999869934422e-01 +9.3118427354691157e-05 +0.0000000000000000e+00 +9.9999999566447917e-01
-9.9999999999999989e-01 +9.0449482675512716e+00 +0.0000000000000000e+00 -9.9999999821583541e-01 +1.0346492985682229e-04 +0.0000000000000000e+00 +9.9999999464750411e-01
-1.0999999999999999e+00 +9.0449374037330568e+00 +0.0000000000000000e+00 -1.0999999976252766e+00 +1.1381143487045941e-04 +0.0000000000000000e+00 +9.9999999352347857e-01
-1.2000000000000000e+00 +9.0449255052642119e+00 +0.0000000000000000e+00 -1.1999999969169628e+00 +1.2415794247099530e-04 +0.0000000000000000e+00 +9.9999999229240255e-01
-1.3000000000000000e+00 +9.0449125721444741e+00 +0.0000000000000000e+00 -1.2999999960801889e+00 +1.3450445272288189e-04 +0.0000000000000000e+00 +9.9999999095427594e-01
-1.4000000000000001e+00 +9.0448986043735768e+00 +0.0000000000000000e+00 -1.3999999951042497e+00 +1.4485096567962797e-04 +0.0000000000000000e+00 +9.9999998950909874e-01
-1.5000000000000002e+00 +9.0448836019512466e+00 +0.0000000000000000e+00 -1.4999999939784403e+00 +1.5519748138379677e-04 +0.0000000000000000e+00 +9.9999998795687073e-01
-1.6000000000000003e+00 +9.0448675648772081e+00 +0.0000000000000000e+00 -1.5999999926920556e+00 +1.6554399986700320e-04 +0.0000000000000000e+00 +9.9999998629759190e-01
-1.7000000000000004e+00 +9.0448504931511806e+00 +0.0000000000000000e+00 -1.6999999912343904e+00 +1.7589052114991088e-04 +0.0000000000000000e+00 +9.9999998453126215e-01
-1.8000000000000005e+00 +9.0448323867728853e+00 +0.0000000000000000e+00 -1.7999999895947396e+00 +1.8623704524222908e-04 +0.0000000000000000e+00 +9.9999998265788137e-01
-1.9000000000000006e+00 +9.0448132457420396e+00 +0.0000000000000000e+00 -1.8999999877623983e+00 +1.9658357214270928e-04 +0.0000000000000000e+00 +9.9999998067744944e-01
-2.0000000000000004e+00 +9.0447930700583630e+00 +0.0000000000000000e+00 -1.9999999857266613e+00 +2.0693010183914153e-04 +0.0000000000000000e+00 +9.9999997858996625e-01
-2.1000000000000005e+00 +9.0447718597215783e+00 +0.0000000000000000e+00 -2.0999999834768235e+00 +2.1727663430877461e-04 +0.0000000000000000e+00 +9.9999997639543181e-01
-2.2000000000000006e+00 +9.0447496147314101e+00 +0.0000000000000000e+00 -2.1999999810021795e+00 +2.2762316952297596e-04 +0.0000000000000000e+00 +9.9999997409384600e-01
-2.3000000000000007e+00 +9.0447263350875833e+00 +0.0000000000000000e+00 -2.2999999782920244e+00 +2.3796970745189417e-04 +0.0000000000000000e+00 +9.9999997168520871e-01
-2.4000000000000008e+00 +9.0447020207898294e+00 +0.0000000000000000e+00 -2.3999999753356529e+00 +2.4831624806488374e-04 +0.0000000000000000e+00 +9.9999996916951994e-01
-2.5000000000000009e+00 +9.0446766718378822e+00 +0.0000000000000000e+00 -2.4999999721223598e+00 +2.5866279133050644e-04 +0.0000000000000000e+00 +9.9999996654677958e-01
-2.6000000000000010e+00 +9.0446502882314768e+00 +0.0000000000000000e+00 -2.5999999686414403e+00 +2.6900933721653287e-04 +0.0000000000000000e+00 +9.9999996381698752e-01
-2.7000000000000011e+00 +9.0446228699703521e+00 +0.0000000000000000e+00 -2.6999999648821889e+00 +2.7935588568994457e-04 +0.0000000000000000e+00 +9.9999996098014376e-01
-2.8000000000000012e+00 +9.0445944170542525e+00 +0.0000000000000000e+00 -2.7999999608339006e+00 +2.8970243671693624e-04 +0.0000000000000000e+00 +9.9999995803624819e-01
-2.9000000000000012e+00 +9.0445649294829238e+00 +0.0000000000000000e+00 -2.8999999564858703e+00 +3.0004899026291846e-04 +0.0000000000000000e+00 +9.9999995498530070e-01
-3.0000000000000013e+00 +9.0445344072561173e+00 +0.0000000000000000e+00 -2.9999999518273923e+00 +3.1039554629252070e-04 +0.0000000000000000e+00 +9.9999995182730128e-01
-3.1000000000000014e+00 +9.0445028503735845e+00 +0.0000000000000000e+00 -3.0999999468477619e+00 +3.2074210476959485e-04 +0.0000000000000000e+00 +9.9999994856224983e-01
-3.2000000000000015e+00 +9.0444702588350836e+00 +0.0000000000000000e+00 -3.1999999415362739e+00 +3.3108866565721880e-04 +0.0000000000000000e+00 +9.9999994519014623e-01
-3.3000000000000016e+00 +9.0444366326403749e+00 +0.0000000000000000e+00 -3.2999999358822230e+00 +3.4143522891770056e-04 +0.0000000000000000e+00 +9.9999994171099049e-01
-3.4000000000000017e+00 +9.0444019717892221e+00 +0.0000000000000000e+00 -3.3999999298749035e+00 +3.5178179451258274e-04 +0.0000000000000000e+00 +9.9999993812478261e-01
-3.5000000000000018e+00 +9.0443662762813961e+00 +0.0000000000000000e+00 -3.4999999235036108e+00 +3.6212836240264725e-04 +0.0000000000000000e+00 +9.9999993443152246e-01
-3.6000000000000019e+00 +9.0443295461166677e+00 +0.0000000000000000e+00 -3.5999999167576395e+00 +3.7247493254792053e-04 +0.0000000000000000e+00 +9.9999993063120995e-01
-3.7000000000000020e+00 +9.0442917812948131e+00 +0.0000000000000000e+00 -3.6999999096262846e+00 +3.8282150490767897e-04 +0.0000000000000000e+00 +9.9999992672384508e-01
-3.8000000000000020e+00 +9.0442529818156139e+00 +0.0000000000000000e+00 -3.7999999020988402e+00 +3.9316807944045470e-04 +0.0000000000000000e+00 +9.9999992270942772e-01
-3.9000000000000021e+00 +9.0442131476788550e+00 +0.0000000000000000e+00 -3.8999998941646017e+00 +4.0351465610404192e-04 +0.0000000000000000e+00 +9.9999991858795789e-01
-4.0000000000000018e+00 +9.0441722788843251e+00 +0.0000000000000000e+00 -3.9999998858128634e+00 +4.1386123485550328e-04 +0.0000000000000000e+00 +9.9999991435943547e-01
-4.1000000000000014e+00 +9.0441303754318163e+00 +0.0000000000000000e+00 -4.0999998770329205e+00 +4.2420781565142505e-04 +0.0000000000000000e+00 +9.9999991002386057e-01
-4.2000000000000011e+00 +9.0440874373211280e+00 +0.0000000000000000e+00 -4.1999998678140669e+00 +4.3455439845065363e-04 +0.0000000000000000e+00 +9.9999990558123297e-01
-4.3000000000000007e+00 +9.0440434645520611e+00 +0.0000000000000000e+00 -4.2999998581455987e+00 +4.4490098321702752e-04 +0.0000000000000000e+00 +9.9999990103155267e-01
-4.4000000000000004e+00 +9.0439984571244203e+00 +0.0000000000000000e+00 -4.3999998480168090e+00 +4.5524756991962445e-04 +0.0000000000000000e+00 +9.9999989637481967e-01
-4.5000000000000000e+00 +9.0439524150380137e+00 +0.0000000000000000e+00 -4.4999998374169934e+00 +4.6559415853275989e-04 +0.0000000000000000e+00 +9.9999989161103386e-01
-4.5999999999999996e+00 +9.0439053382926513e+00 +0.0000000000000000e+00 -4.5999998263354467e+00 +4.7594074903598558e-04 +0.0000000000000000e+00 +9.9999988674019524e-01
-4.6999999999999993e+00 +9.0438572268881448e+00 +0.0000000000000000e+00 -4.6999998147614637e+00 +4.8628734141408761e-04 +0.0000000000000000e+00 +9.9999988176230370e-01
-4.7999999999999989e+00 +9.0438080808243075e+00 +0.0000000000000000e+00 -4.7999998026843391e+00 +4.9663393565708449e-04 +0.0000000000000000e+00 +9.9999987667735923e-01
-4.8999999999999986e+00 +9.0437579001009514e+00 +0.0000000000000000e+00 -4.8999997900933669e+00 +5.0698053176022513e-04 +0.0000000000000000e+00 +9.9999987148536185e-01
-4.9999999999999982e+00 +9.0437066847178933e+00 +0.0000000000000000e+00 -4.9999997769778428e+00 +5.1732712972398626e-04 +0.0000000000000000e+00 +9.9999986618631131e-01
-5.0999999999999979e+00 +9.0436544346749450e+00 +0.0000000000000000e+00 -5.0999997633270606e+00 +5.2767372955407035e-04 +0.0000000000000000e+00 +9.9999986078020775e-01
-5.1999999999999975e+00 +9.0436011499719200e+00 +0.0000000000000000e+00 -5.1999997491303160e+00 +5.3802033126140259e-04 +0.0000000000000000e+00 +9.9999985526705093e-01
-5.2999999999999972e+00 +9.0435468306086300e+00 +0.0000000000000000e+00 -5.2999997343769030e+00 +5.4836693486212825e-04 +0.0000000000000000e+00 +9.9999984964684085e-01
-5.3999999999999968e+00 +9.0434914765848848e+00 +0.0000000000000000e+00 -5.3999997190561162e+00 +5.5871354037760959e-04 +0.0000000000000000e+00 +9.9999984391957752e-01
-5.4999999999999964e+00 +9.0434350879004910e+00 +0.0000000000000000e+00 -5.4999997031572505e+00 +5.6906014783442279e-04 +0.0000000000000000e+00 +9.9999983808526072e-01
-5.5999999999999961e+00 +9.0433776645552530e+00 +0.0000000000000000e+00 -5.5999996866695998e+00 +5.7940675726435428e-04 +0.0000000000000000e+00 +9.9999983214389043e-01
-5.6999999999999957e+00 +9.0433192065489720e+00 +0.0000000000000000e+00 -5.6999996695824597e+00 +5.8975336870439768e-04 +0.0000000000000000e+00 +9.9999982609546667e-01
-5.7999999999999954e+00 +9.0432597138814437e+00 +0.0000000000000000e+00 -5.7999996518851242e+00 +6.0009998219674970e-04 +0.0000000000000000e+00 +9.9999981993998921e-01
-5.8999999999999950e+00 +9.0431991865524619e+00 +0.0000000000000000e+00 -5.8999996335668889e+00 +6.1044659778880636e-04 +0.0000000000000000e+00 +9.9999981367745805e-01
-5.9999999999999947e+00 +9.0431376245618136e+00 +0.0000000000000000e+00 -5.9999996146170478e+00 +6.2079321553315905e-04 +0.0000000000000000e+00 +9.9999980730787297e-01
-6.0999999999999943e+00 +9.0430750279092820e+00 +0.0000000000000000e+00 -6.0999995950248955e+00 +6.3113983548739722e-04 +0.0000000000000000e+00 +9.9999980083123396e-01
-6.1999999999999940e+00 +9.0430113965946415e+00 +0.0000000000000000e+00 -6.1999995747797261e+00 +6.4148645771198315e-04 +0.0000000000000000e+00 +9.9999979424754093e-01
-6.2999999999999936e+00 +9.0429467306176630e+00 +0.0000000000000000e+00 -6.2999995538708351e+00 +6.5183308226813045e-04 +0.0000000000000000e+00 +9.9999978755679364e-01
-6.3999999999999932e+00 +9.0428810299781084e+00 +0.0000000000000000e+00 -6.3999995322875165e+00 +6.6217970921761415e-04 +0.0000000000000000e+00 +9.9999978075899210e-01
-6.4999999999999929e+00 +9.0428142946757379e+00 +0.0000000000000000e+00 -6.4999995100190651e+00 +6.7252633862277338e-04 +0.0000000000000000e+00 +9.9999977385413619e-01
-6.5999999999999925e+00 +9.0427465247103012e+00 +0.0000000000000000e+00 -6.5999994870547756e+00 +6.8287297054651507e-04 +0.0000000000000000e+00 +9.9999976684222569e-01
-6.6999999999999922e+00 +9.0426777200815422e+00 +0.0000000000000000e+00 -6.6999994633839419e+00 +6.9321960505231686e-04 +0.0000000000000000e+00 +9.9999975972326050e-01
-6.7999999999999918e+00 +9.0426078807892019e+00 +0.0000000000000000e+00 -6.7999994389958589e+00 +7.0356624220423072e-04 +0.0000000000000000e+00 +9.9999975249724060e-01
-6.8999999999999915e+00 +9.0425370068330118e+00 +0.0000000000000000e+00 -6.8999994138798213e+00 +7.1391288206688658e-04 +0.0000000000000000e+00 +9.9999974516416579e-01
-6.9999999999999911e+00 +9.0424650982126966e+00 +0.0000000000000000e+00 -6.9999993880251239e+00 +7.2425952470549584e-04 +0.0000000000000000e+00 +9.9999973772403594e-01
-7.0999999999999908e+00 +9.0423921549279758e+00 +0.0000000000000000e+00 -7.0999993614210606e+00 +7.3460617018585538e-04 +0.0000000000000000e+00 +9.9999973017685084e-01
-7.1999999999999904e+00 +9.0423181769785614e+00 +0.0000000000000000e+00 -7.1999993340569262e+00 +7.4495281857435143e-04 +0.0000000000000000e+00 +9.9999972252261049e-01
-7.2999999999999901e+00 +9.0422431643641605e+00 +0.0000000000000000e+00 -7.2999993059220145e+00 +7.5529946993796362e-04 +0.0000000000000000e+00 +9.9999971476131466e-01
-7.3999999999999897e+00 +9.0421671170844728e+00 +0.0000000000000000e+00 -7.3999992770056204e+00 +7.6564612434426929e-04 +0.0000000000000000e+00 +9.9999970689296314e-01
-7.4999999999999893e+00 +9.0420900351391893e+00 +0.0000000000000000e+00 -7.4999992472970387e+00 +7.7599278186144763e-04 +0.0000000000000000e+00 +9.9999969891755591e-01
-7.5999999999999890e+00 +9.0420119185279955e+00 +0.0000000000000000e+00 -7.5999992167855632e+00 +7.8633944255828445e-04 +0.0000000000000000e+00 +9.9999969083509277e-01
-7.6999999999999886e+00 +9.0419327672505698e+00 +0.0000000000000000e+00 -7.6999991854604888e+00 +7.9668610650417658e-04 +0.0000000000000000e+00 +9.9999968264557348e-01
-7.7999999999999883e+00 +9.0418525813065838e+00 +0.0000000000000000e+00 -7.7999991533111093e+00 +8.0703277376913639e-04 +0.0000000000000000e+00 +9.9999967434899795e-01
-7.8999999999999879e+00 +9.0417713606957033e+00 +0.0000000000000000e+00 -7.8999991203267195e+00 +8.1737944442379705e-04 +0.0000000000000000e+00 +9.9999966594536605e-01
-7.9999999999999876e+00 +9.0416891054175839e+00 +0.0000000000000000e+00 -7.9999990864966142e+00 +8.2772611853941709e-04 +0.0000000000000000e+00 +9.9999965743467756e-01
-8.0999999999999872e+00 +9.0416058154718772e+00 +0.0000000000000000e+00 -8.0999990518100873e+00 +8.3807279618763181e-04 +0.0000000000000000e+00 +9.9999964881693237e-01
-8.1999999999999869e+00 +9.0415214908582264e+00 +0.0000000000000000e+00 -8.1999990162564327e+00 +8.4841947743766275e-04 +0.0000000000000000e+00 +9.9999964009213027e-01
-8.2999999999999865e+00 +9.0414361315762672e+00 +0.0000000000000000e+00 -8.2999989798249452e+00 +8.5876616235352218e-04 +0.0000000000000000e+00 +9.9999963126027114e-01
-8.3999999999999861e+00 +9.0413497376256320e+00 +0.0000000000000000e+00 -8.3999989425049186e+00 +8.6911285099375464e-04 +0.0000000000000000e+00 +9.9999962232135475e-01
-8.4999999999999858e+00 +9.0412623090059441e+00 +0.0000000000000000e+00 -8.4999989042856470e+00 +8.7945954341143214e-04 +0.0000000000000000e+00 +9.9999961327538089e-01
-8.5999999999999854e+00 +9.0411738457168234e+00 +0.0000000000000000e+00 -8.5999988651564259e+00 +8.8980623965414932e-04 +0.0000000000000000e+00 +9.9999960412234945e-01
-8.6999999999999851e+00 +9.0410843477578844e+00 +0.0000000000000000e+00 -8.6999988251065492e+00 +9.0015293976401854e-04 +0.0000000000000000e+00 +9.9999959486226031e-01
-8.7999999999999847e+00 +9.0409938151287399e+00 +0.0000000000000000e+00 -8.7999987841253109e+00 +9.1049964377766437e-04 +0.0000000000000000e+00 +9.9999958549511325e-01
-8.8999999999999844e+00 +9.0409022478289973e+00 +0.0000000000000000e+00 -8.8999987422020048e+00 +9.2084635172621848e-04 +0.0000000000000000e+00 +9.9999957602090817e-01
-8.9999999999999840e+00 +9.0408096458582623e+00 +0.0000000000000000e+00 -8.9999986993259249e+00 +9.3119306363531401e-04 +0.0000000000000000e+00 +9.9999956643964494e-01
-9.0999999999999837e+00 +9.0407160092161369e+00 +0.0000000000000000e+00 -9.0999986554863650e+00 +9.4153977952507949e-04 +0.0000000000000000e+00 +9.9999955675132335e-01
-9.1999999999999833e+00 +9.0406213379022233e+00 +0.0000000000000000e+00 -9.1999986106726208e+00 +9.5188649941013335e-04 +0.0000000000000000e+00 +9.9999954695594329e-01
-9.2999999999999829e+00 +9.0405256319161218e+00 +0.0000000000000000e+00 -9.2999985648739862e+00 +9.6223322329957767e-04 +0.0000000000000000e+00 +9.9999953705350464e-01
-9.3999999999999826e+00 +9.0404288912574309e+00 +0.0000000000000000e+00 -9.3999985180797534e+00 +9.7257995119699183e-04 +0.0000000000000000e+00 +9.9999952704400719e-01
-9.4999999999999822e+00 +9.0403311159257491e+00 +0.0000000000000000e+00 -9.4999984702792180e+00 +9.8292668310042634e-04 +0.0000000000000000e+00 +9.9999951692745093e-01
-9.5999999999999819e+00 +9.0402323059206768e+00 +0.0000000000000000e+00 -9.5999984214616738e+00 +9.9327341900239553e-04 +0.0000000000000000e+00 +9.9999950670383564e-01
-9.6999999999999815e+00 +9.0401324612418161e+00 +0.0000000000000000e+00 -9.6999983716164166e+00 +1.0036201588898717e-03 +0.0000000000000000e+00 +9.9999949637316132e-01
-9.7999999999999812e+00 +9.0400315818887673e+00 +0.0000000000000000e+00 -9.7999983207327386e+00 +1.0139669027442778e-03 +0.0000000000000000e+00 +9.9999948593542776e-01
-9.8999999999999808e+00 +9.0399296678611361e+00 +0.0000000000000000e+00 -9.8999982687999335e+00 +1.0243136505414801e-03 +0.0000000000000000e+00 +9.9999947539063483e-01
-9.9999999999999805e+00 +9.0398267191585280e+00 +0.0000000000000000e+00 -9.9999982158072971e+00 +1.0346604022517807e-03 +0.0000000000000000e+00 +9.9999946473878254e-01
-1.0099999999999980e+01 +9.0397227357805559e+00 +0.0000000000000000e+00 -1.0099998161744121e+01 +1.0450071578404776e-03 +0.0000000000000000e+00 +9.9999945397987078e-01
-1.0199999999999980e+01 +9.0396177177268324e+00 +0.0000000000000000e+00 -1.0199998106599702e+01 +1.0553539172740952e-03 +0.0000000000000000e+00 +9.9999944311389943e-01
-1.0299999999999979e+01 +9.0395116649969740e+00 +0.0000000000000000e+00 -1.0299998050363333e+01 +1.0657006805266192e-03 +0.0000000000000000e+00 +9.9999943214086839e-01
-1.0399999999999979e+01 +9.0394045775906005e+00 +0.0000000000000000e+00 -1.0399997993024307e+01 +1.0760474475800641e-03 +0.0000000000000000e+00 +9.9999942106077755e-01
-1.0499999999999979e+01 +9.0392964555073316e+00 +0.0000000000000000e+00 -1.0499997934571919e+01 +1.0863942184244748e-03 +0.0000000000000000e+00 +9.9999940987362679e-01
-1.0599999999999978e+01 +9.0391872987467892e+00 +0.0000000000000000e+00 -1.0599997874995463e+01 +1.0967409930579266e-03 +0.0000000000000000e+00 +9.9999939857941600e-01
-1.0699999999999978e+01 +9.0390771073085929e+00 +0.0000000000000000e+00 -1.0699997814284233e+01 +1.1070877714865269e-03 +0.0000000000000000e+00 +9.9999938717814507e-01
-1.0799999999999978e+01 +9.0389658811923645e+00 +0.0000000000000000e+00 -1.0799997752427522e+01 +1.1174345537244149e-03 +0.0000000000000000e+00 +9.9999937566981389e-01
-1.0899999999999977e+01 +9.0388536203977203e+00 +0.0000000000000000e+00 -1.0899997689414626e+01 +1.1277813397937637e-03 +0.0000000000000000e+00 +9.9999936405442236e-01
-1.0999999999999977e+01 +9.0387403249242766e+00 +0.0000000000000000e+00 -1.0999997625234837e+01 +1.1381281297247804e-03 +0.0000000000000000e+00 +9.9999935233197024e-01
-1.1099999999999977e+01 +9.0386259947716461e+00 +0.0000000000000000e+00 -1.1099997559877451e+01 +1.1484749235557078e-03 +0.0000000000000000e+00 +9.9999934050245731e-01
-1.1199999999999976e+01 +9.0385106299394344e+00 +0.0000000000000000e+00 -1.1199997493331761e+01 +1.1588217213328251e-03 +0.0000000000000000e+00 +9.9999932856588347e-01
-1.1299999999999976e+01 +9.0383942304272455e+00 +0.0000000000000000e+00 -1.1299997425587060e+01 +1.1691685231104488e-03 +0.0000000000000000e+00 +9.9999931652224849e-01
-1.1399999999999975e+01 +9.0382767962346762e+00 +0.0000000000000000e+00 -1.1399997356632642e+01 +1.1795153289509343e-03 +0.0000000000000000e+00 +9.9999930437155227e-01
-1.1499999999999975e+01 +9.0381583273613177e+00 +0.0000000000000000e+00 -1.1499997286457802e+01 +1.1898621389246767e-03 +0.0000000000000000e+00 +9.9999929211379446e-01
-1.1599999999999975e+01 +9.0380388238067511e+00 +0.0000000000000000e+00 -1.1599997215051832e+01 +1.2002089531101122e-03 +0.0000000000000000e+00 +9.9999927974897485e-01
-1.1699999999999974e+01 +9.0379182855705515e+00 +0.0000000000000000e+00 -1.1699997142404028e+01 +1.2105557715937191e-03 +0.0000000000000000e+00 +9.9999926727709332e-01
