# field on trajectory
# s[mm] rx[mm] ry[mm] rz[mm] bx[T] by[T] bz[T]
0.0000000000000000e+00 +9.0449999999999999e+00 +0.0000000000000000e+00 +0.0000000000000000e+00 +1.1053095730651965e-02 -1.0311663812046286e+00 -5.8779458867177961e-02
1.0000000000000001e-01 +9.0449994847735535e+00 +0.0000000000000000e+00 +9.9999999998230268e-02 +1.1052880629582642e-02 -1.0311659073417156e+00 -5.8780313065641715e-02
2.0000000000000001e-01 +9.0449979390945447e+00 +0.0000000000000000e+00 +1.9999999998584223e-01 +1.1052669380343492e-02 -1.0311653582670148e+00 -5.8781169682483043e-02
3.0000000000000004e-01 +9.0449953629635207e+00 +0.0000000000000000e+00 +2.9999999995221754e-01 +1.1052462831006421e-02 -1.0311647302662281e+00 -5.8782028294813396e-02
4.0000000000000002e-01 +9.0449917563811102e+00 +0.0000000000000000e+00 +3.9999999988673796e-01 +1.1052261829639313e-02 -1.0311640196248193e+00 -5.8782888479706696e-02
5.0000000000000000e-01 +9.0449871193480256e+00 +0.0000000000000000e+00 +4.9999999977878518e-01 +1.1052067224304542e-02 -1.0311632226279634e+00 -5.8783749814196179e-02
5.9999999999999998e-01 +9.0449814518650626e+00 +0.0000000000000000e+00 +5.9999999961774098e-01 +1.1051879658776055e-02 -1.0311623366841518e+00 -5.8784611868279005e-02
6.9999999999999996e-01 +9.0449747539331078e+00 +0.0000000000000000e+00 +6.9999999939298707e-01 +1.1051698959696488e-02 -1.0311613636961352e+00 -5.8785474183944503e-02
7.9999999999999993e-01 +9.0449670255531327e+00 +0.0000000000000000e+00 +7.9999999909390540e-01 +1.1051524749425983e-02 -1.0311603066899069e+00 -5.8786336296162860e-02
8.9999999999999991e-01 +9.0449582667261943e+00 +0.0000000000000000e+00 +8.9999999870987768e-01 +1.1051356650325713e-02 -1.0311591686910042e+00 -5.8787197739883328e-02
9.9999999999999989e-01 +9.0449484774534312e+00 +0.0000000000000000e+00 +9.9999999823028596e-01 +1.1051194284759539e-02 -1.0311579527244648e+00 -5.8788058050039171e-02
1.0999999999999999e+00 +9.0449376577360603e+00 +0.0000000000000000e+00 +1.0999999976445121e+00 +1.1051037275095651e-02 -1.0311566618147849e+00 -5.8788916761552699e-02
1.2000000000000000e+00 +9.0449258075753711e+00 +0.0000000000000000e+00 +1.1999999969419382e+00 +1.1050885243708215e-02 -1.0311552989858794e+00 -5.8789773409340190e-02
1.3000000000000000e+00 +9.0449129269727262e+00 +0.0000000000000000e+00 +1.2999999961119462e+00 +1.1050737812978993e-02 -1.0311538672610390e+00 -5.8790627528316861e-02
1.4000000000000001e+00 +9.0448990159295573e+00 +0.0000000000000000e+00 +1.3999999951439182e+00 +1.1050594605299013e-02 -1.0311523696628875e+00 -5.8791478653401834e-02
1.5000000000000002e+00 +9.0448840744473635e+00 +0.0000000000000000e+00 +1.4999999940272362e+00 +1.1050455243070191e-02 -1.0311508092133417e+00 -5.8792326319523067e-02
1.6000000000000003e+00 +9.0448681025277047e+00 +0.0000000000000000e+00 +1.5999999927512827e+00 +1.1050319348706985e-02 -1.0311491889335678e+00 -5.8793170061622393e-02
1.7000000000000004e+00 +9.0448511001722025e+00 +0.0000000000000000e+00 +1.6999999913054398e+00 +1.1050186544638027e-02 -1.0311475118439410e+00 -5.8794009414660370e-02
1.8000000000000005e+00 +9.0448330673825339e+00 +0.0000000000000000e+00 +1.7999999896790899e+00 +1.1050056453307779e-02 -1.0311457809640046e+00 -5.8794843913621338e-02
1.9000000000000006e+00 +9.0448140041604290e+00 +0.0000000000000000e+00 +1.8999999878616154e+00 +1.1049928697178177e-02 -1.0311439993124254e+00 -5.8795673093518380e-02
2.0000000000000004e+00 +9.0447939105076713e+00 +0.0000000000000000e+00 +1.9999999858423985e+00 +1.1049802898730256e-02 -1.0311421699069547e+00 -5.8796496489398206e-02
2.1000000000000005e+00 +9.0447727864260905e+00 +0.0000000000000000e+00 +2.0999999836108221e+00 +1.1049678680465809e-02 -1.0311402957643840e+00 -5.8797313636346160e-02
2.2000000000000006e+00 +9.0447506319175606e+00 +0.0000000000000000e+00 +2.1999999811562683e+00 +1.1049555664909044e-02 -1.0311383799005056e+00 -5.8798124069491225e-02
2.3000000000000007e+00 +9.0447274469840000e+00 +0.0000000000000000e+00 +2.2999999784681200e+00 +1.1049433474608201e-02 -1.0311364253300688e+00 -5.8798927324010888e-02
2.4000000000000008e+00 +9.0447032316273628e+00 +0.0000000000000000e+00 +2.3999999755357599e+00 +1.1049311732137227e-02 -1.0311344350667409e+00 -5.8799722935136238e-02
2.5000000000000009e+00 +9.0446779858496402e+00 +0.0000000000000000e+00 +2.4999999723485709e+00 +1.1049190060097403e-02 -1.0311324121230609e+00 -5.8800510438156768e-02
2.6000000000000010e+00 +9.0446517096528574e+00 +0.0000000000000000e+00 +2.5999999688959359e+00 +1.1049068099746890e-02 -1.0311303593349135e+00 -5.8801289395293714e-02
2.7000000000000011e+00 +9.0446244030390677e+00 +0.0000000000000000e+00 +2.6999999651672377e+00 +1.1048945566865847e-02 -1.0311282788355192e+00 -5.8802059476269895e-02
2.8000000000000012e+00 +9.0445960660103513e+00 +0.0000000000000000e+00 +2.7999999611518591e+00 +1.1048822195836368e-02 -1.0311261725828111e+00 -5.8802820377634853e-02
2.9000000000000012e+00 +9.0445666985688185e+00 +0.0000000000000000e+00 +2.8999999568391837e+00 +1.1048697721005701e-02 -1.0311240425351464e+00 -5.8803571795880867e-02
3.0000000000000013e+00 +9.0445363007165991e+00 +0.0000000000000000e+00 +2.9999999522185941e+00 +1.1048571876682185e-02 -1.0311218906514064e+00 -5.8804313427436528e-02
3.1000000000000014e+00 +9.0445048724558461e+00 +0.0000000000000000e+00 +3.0999999472794735e+00 +1.1048444397131114e-02 -1.0311197188910961e+00 -5.8805044968660444e-02
3.2000000000000015e+00 +9.0444724137887356e+00 +0.0000000000000000e+00 +3.1999999420112055e+00 +1.1048315016570727e-02 -1.0311175292144497e+00 -5.8805766115834948e-02
3.3000000000000016e+00 +9.0444389247174559e+00 +0.0000000000000000e+00 +3.2999999364031734e+00 +1.1048183469168025e-02 -1.0311153235825261e+00 -5.8806476565159624e-02
3.4000000000000017e+00 +9.0444044052442170e+00 +0.0000000000000000e+00 +3.3999999304447606e+00 +1.1048049489034784e-02 -1.0311131039573160e+00 -5.8807176012745162e-02
3.5000000000000018e+00 +9.0443688553712391e+00 +0.0000000000000000e+00 +3.4999999241253508e+00 +1.1047912810223385e-02 -1.0311108723018381e+00 -5.8807864154606815e-02
3.6000000000000019e+00 +9.0443322751007553e+00 +0.0000000000000000e+00 +3.5999999174343271e+00 +1.1047773166722782e-02 -1.0311086305802435e+00 -5.8808540686658230e-02
3.7000000000000020e+00 +9.0442946644350108e+00 +0.0000000000000000e+00 +3.6999999103610737e+00 +1.1047630292454376e-02 -1.0311063807579146e+00 -5.8809205304705028e-02
3.8000000000000020e+00 +9.0442560233762581e+00 +0.0000000000000000e+00 +3.7999999028949740e+00 +1.1047483921267956e-02 -1.0311041248015675e+00 -5.8809857704438424e-02
3.9000000000000021e+00 +9.0442163519267549e+00 +0.0000000000000000e+00 +3.8999998950254118e+00 +1.1047333786937605e-02 -1.0311018646793544e+00 -5.8810497581429082e-02
4.0000000000000018e+00 +9.0441756500887625e+00 +0.0000000000000000e+00 +3.9999998867417710e+00 +1.1047179623157578e-02 -1.0310996023609607e+00 -5.8811124631120509e-02
4.1000000000000014e+00 +9.0441339178645475e+00 +0.0000000000000000e+00 +4.0999998780334357e+00 +1.1047021163538265e-02 -1.0310973398177112e+00 -5.8811738548822948e-02
4.2000000000000011e+00 +9.0440911552563747e+00 +0.0000000000000000e+00 +4.1999998688897895e+00 +1.1046858141602065e-02 -1.0310950790226663e+00 -5.8812339029706902e-02
4.3000000000000007e+00 +9.0440473622665074e+00 +0.0000000000000000e+00 +4.2999998593002164e+00 +1.1046690290779303e-02 -1.0310928219507278e+00 -5.8812925768796896e-02
4.4000000000000004e+00 +9.0440025388972067e+00 +0.0000000000000000e+00 +4.3999998492541010e+00 +1.1046517344404148e-02 -1.0310905705787357e+00 -5.8813498460965105e-02
4.5000000000000000e+00 +9.0439566851507251e+00 +0.0000000000000000e+00 +4.4999998387408278e+00 +1.1046339035710506e-02 -1.0310883268855735e+00 -5.8814056800924983e-02
4.5999999999999996e+00 +9.0439098010293115e+00 +0.0000000000000000e+00 +4.5999998277497802e+00 +1.1046155230365683e-02 -1.0310860924183900e+00 -5.8814600684759598e-02
4.6999999999999993e+00 +9.0438618865352023e+00 +0.0000000000000000e+00 +4.6999998162703438e+00 +1.1045966324156012e-02 -1.0310838669902922e+00 -5.8815130814542378e-02
4.7999999999999989e+00 +9.0438129416706268e+00 +0.0000000000000000e+00 +4.7999998042919021e+00 +1.1045772845503218e-02 -1.0310816499806508e+00 -5.8815648093760359e-02
4.8999999999999986e+00 +9.0437629664378054e+00 +0.0000000000000000e+00 +4.8999997918038396e+00 +1.1045575322951138e-02 -1.0310794407687653e+00 -5.8816153425779144e-02
4.9999999999999982e+00 +9.0437119608389516e+00 +0.0000000000000000e+00 +4.9999997787955408e+00 +1.1045374285173600e-02 -1.0310772387338396e+00 -5.8816647713839723e-02
5.0999999999999979e+00 +9.0436599248762715e+00 +0.0000000000000000e+00 +5.0999997652563902e+00 +1.1045170260982246e-02 -1.0310750432549587e+00 -5.8817131861055236e-02
5.1999999999999975e+00 +9.0436068585519660e+00 +0.0000000000000000e+00 +5.1999997511757732e+00 +1.1044963779334404e-02 -1.0310728537110618e+00 -5.8817606770407781e-02
5.2999999999999972e+00 +9.0435527618682272e+00 +0.0000000000000000e+00 +5.2999997365430742e+00 +1.1044755369340912e-02 -1.0310706694809197e+00 -5.8818073344745120e-02
5.3999999999999968e+00 +9.0434976348272436e+00 +0.0000000000000000e+00 +5.3999997213476778e+00 +1.1044545560274007e-02 -1.0310684899431088e+00 -5.8818532486777590e-02
5.4999999999999964e+00 +9.0434414774312000e+00 +0.0000000000000000e+00 +5.4999997055789684e+00 +1.1044334881575168e-02 -1.0310663144759873e+00 -5.8818985099074808e-02
5.5999999999999961e+00 +9.0433842896822743e+00 +0.0000000000000000e+00 +5.5999996892263315e+00 +1.1044123862862933e-02 -1.0310641424576705e+00 -5.8819432084062491e-02
5.6999999999999957e+00 +9.0433260715826460e+00 +0.0000000000000000e+00 +5.6999996722791524e+00 +1.1043913033940801e-02 -1.0310619732660051e+00 -5.8819874344019189e-02
5.7999999999999954e+00 +9.0432668231344877e+00 +0.0000000000000000e+00 +5.7999996547268156e+00 +1.1043702924805063e-02 -1.0310598062785472e+00 -5.8820312781073178e-02
5.8999999999999950e+00 +9.0432065443399701e+00 +0.0000000000000000e+00 +5.8999996365587064e+00 +1.1043494065652644e-02 -1.0310576408725349e+00 -5.8820748297199091e-02
5.9999999999999947e+00 +9.0431452352012656e+00 +0.0000000000000000e+00 +5.9999996177642094e+00 +1.1043286986888985e-02 -1.0310554764248643e+00 -5.8821181794214812e-02
6.0999999999999943e+00 +9.0430828957205414e+00 +0.0000000000000000e+00 +6.0999995983327109e+00 +1.1043082219135874e-02 -1.0310533123120673e+00 -5.8821614173778250e-02
6.1999999999999940e+00 +9.0430195258999682e+00 +0.0000000000000000e+00 +6.1999995782535962e+00 +1.1042880293239318e-02 -1.0310511479102842e+00 -5.8822046337384075e-02
6.2999999999999936e+00 +9.0429551257417167e+00 +0.0000000000000000e+00 +6.2999995575162497e+00 +1.1042681740277381e-02 -1.0310489825952402e+00 -5.8822479186360514e-02
6.3999999999999932e+00 +9.0428896952479558e+00 +0.0000000000000000e+00 +6.3999995361100579e+00 +1.1042487091568057e-02 -1.0310468157422221e+00 -5.8822913621866174e-02
6.4999999999999929e+00 +9.0428232344208581e+00 +0.0000000000000000e+00 +6.4999995140244051e+00 +1.1042296878677112e-02 -1.0310446467260510e+00 -5.8823350544886716e-02
6.5999999999999925e+00 +9.0427557432625996e+00 +0.0000000000000000e+00 +6.5999994912486777e+00 +1.1042111480051492e-02 -1.0310424753274146e+00 -5.8823790557857324e-02
6.6999999999999922e+00 +9.0426872217753562e+00 +0.0000000000000000e+00 +6.6999994677722619e+00 +1.1041930660774111e-02 -1.0310403029523569e+00 -5.8824233069628896e-02
6.7999999999999918e+00 +9.0426176699613059e+00 +0.0000000000000000e+00 +6.7999994435845421e+00 +1.1041754032482292e-02 -1.0310381314139490e+00 -5.8824677190795024e-02
6.8999999999999915e+00 +9.0425470878226264e+00 +0.0000000000000000e+00 +6.8999994186749047e+00 +1.1041581206711434e-02 -1.0310359625260503e+00 -5.8825122032111224e-02
6.9999999999999911e+00 +9.0424754753614920e+00 +0.0000000000000000e+00 +6.9999993930327360e+00 +1.1041411794889246e-02 -1.0310337981033335e+00 -5.8825566704504124e-02
7.0999999999999908e+00 +9.0424028325800734e+00 +0.0000000000000000e+00 +7.0999993666474221e+00 +1.1041245408329970e-02 -1.0310316399613080e+00 -5.8826010319080649e-02
7.1999999999999904e+00 +9.0423291594805342e+00 +0.0000000000000000e+00 +7.1999993395083486e+00 +1.1041081658228622e-02 -1.0310294899163426e+00 -5.8826451987137256e-02
7.2999999999999901e+00 +9.0422544560650309e+00 +0.0000000000000000e+00 +7.2999993116049007e+00 +1.1040920155655205e-02 -1.0310273497856872e+00 -5.8826890820169057e-02
7.3999999999999897e+00 +9.0421787223357093e+00 +0.0000000000000000e+00 +7.3999992829264656e+00 +1.1040760511548947e-02 -1.0310252213875024e+00 -5.8827325929879139e-02
7.4999999999999893e+00 +9.0421019582947046e+00 +0.0000000000000000e+00 +7.4999992534624287e+00 +1.1040602336712526e-02 -1.0310231065408766e+00 -5.8827756428187591e-02
7.5999999999999890e+00 +9.0420241639441397e+00 +0.0000000000000000e+00 +7.5999992232021771e+00 +1.1040445241806288e-02 -1.0310210070658521e+00 -5.8828181427240826e-02
7.6999999999999886e+00 +9.0419453392861193e+00 +0.0000000000000000e+00 +7.6999991921350963e+00 +1.1040288837342477e-02 -1.0310189247834496e+00 -5.8828600039420711e-02
7.7999999999999883e+00 +9.0418654843227326e+00 +0.0000000000000000e+00 +7.7999991602505734e+00 +1.1040132733679453e-02 -1.0310168615156898e+00 -5.8829011377353808e-02
7.8999999999999879e+00 +9.0417845990560490e+00 +0.0000000000000000e+00 +7.8999991275379937e+00 +1.1039976541015921e-02 -1.0310148190856179e+00 -5.8829414553920482e-02
7.9999999999999876e+00 +9.0417026834881202e+00 +0.0000000000000000e+00 +7.9999990939867445e+00 +1.1039819869385136e-02 -1.0310127993173275e+00 -5.8829808682264222e-02
8.0999999999999872e+00 +9.0416197376209713e+00 +0.0000000000000000e+00 +8.0999990595862119e+00 +1.1039662328649145e-02 -1.0310108040359822e+00 -5.8830192875800685e-02
8.1999999999999869e+00 +9.0415357614566059e+00 +0.0000000000000000e+00 +8.1999990243257823e+00 +1.1039503528492988e-02 -1.0310088350678415e+00 -5.8830566248226981e-02
8.2999999999999865e+00 +9.0414507549969994e+00 +0.0000000000000000e+00 +8.2999989881948419e+00 +1.1039343078418928e-02 -1.0310068942402828e+00 -5.8830927913530839e-02
8.3999999999999861e+00 +9.0413647182441004e+00 +0.0000000000000000e+00 +8.3999989511827788e+00 +1.1039180587740638e-02 -1.0310049833818240e+00 -5.8831276985999763e-02
8.4999999999999858e+00 +9.0412776511998274e+00 +0.0000000000000000e+00 +8.4999989132789775e+00 +1.1039015665577464e-02 -1.0310031043221506e+00 -5.8831612580230314e-02
8.5999999999999854e+00 +9.0411895538660669e+00 +0.0000000000000000e+00 +8.5999988744728260e+00 +1.1038848034259101e-02 -1.0310012593844566e+00 -5.8831934020974155e-02
8.6999999999999851e+00 +9.0411004262446717e+00 +0.0000000000000000e+00 +8.6999988347537105e+00 +1.1038677869652753e-02 -1.0309994528627533e+00 -5.8832241472568769e-02
8.7999999999999847e+00 +9.0410102683374571e+00 +0.0000000000000000e+00 +8.7999987941110192e+00 +1.1038505461073406e-02 -1.0309976895453237e+00 -5.8832535309212036e-02
8.8999999999999844e+00 +9.0409190801461943e+00 +0.0000000000000000e+00 +8.8999987525341364e+00 +1.1038331097888971e-02 -1.0309959742224755e+00 -5.8832815905081992e-02
8.9999999999999840e+00 +9.0408268616726044e+00 +0.0000000000000000e+00 +8.9999987100124503e+00 +1.1038155069522045e-02 -1.0309943116865854e+00 -5.8833083634335738e-02
9.0999999999999837e+00 +9.0407336129183609e+00 +0.0000000000000000e+00 +9.0999986665353472e+00 +1.1037977665451622e-02 -1.0309927067321403e+00 -5.8833338871108525e-02
9.1999999999999833e+00 +9.0406393338850766e+00 +0.0000000000000000e+00 +9.1999986220922150e+00 +1.1037799175214918e-02 -1.0309911641557856e+00 -5.8833581989512884e-02
9.2999999999999829e+00 +9.0405440245743023e+00 +0.0000000000000000e+00 +9.2999985766724382e+00 +1.1037619888409090e-02 -1.0309896887563661e+00 -5.8833813363637549e-02
9.3999999999999826e+00 +9.0404476849875213e+00 +0.0000000000000000e+00 +9.3999985302654050e+00 +1.1037440094692989e-02 -1.0309882853349741e+00 -5.8834033367546647e-02
9.4999999999999822e+00 +9.0403503151261457e+00 +0.0000000000000000e+00 +9.4999984828605015e+00 +1.1037260083788952e-02 -1.0309869586949898e+00 -5.8834242375278678e-02
9.5999999999999819e+00 +9.0402519149915133e+00 +0.0000000000000000e+00 +9.5999984344471159e+00 +1.1037080145484546e-02 -1.0309857136421288e+00 -5.8834440760845555e-02
9.6999999999999815e+00 +9.0401524845848762e+00 +0.0000000000000000e+00 +9.6999983850146325e+00 +1.1036900569634323e-02 -1.0309845549844852e+00 -5.8834628898231725e-02
9.7999999999999812e+00 +9.0400520239074034e+00 +0.0000000000000000e+00 +9.7999983345524395e+00 +1.1036721646161603e-02 -1.0309834875325745e+00 -5.8834807161393214e-02
9.8999999999999808e+00 +9.0399505329601713e+00 +0.0000000000000000e+00 +9.8999982830499214e+00 +1.1036543665060237e-02 -1.0309825160993802e+00 -5.8834975924256627e-02
9.9999999999999805e+00 +9.0398480117441622e+00 +0.0000000000000000e+00 +9.9999982304964661e+00 +1.1036366916396362e-02 -1.0309816455003973e+00 -5.8835135560718330e-02
1.0099999999999980e+01 +9.0397444602602555e+00 +0.0000000000000000e+00 +1.0099998176881460e+01 +1.1036191690310178e-02 -1.0309808805536753e+00 -5.8835286444643413e-02
1.0199999999999980e+01 +9.0396398785092256e+00 +0.0000000000000000e+00 +1.0199998122194289e+01 +1.1036018277017714e-02 -1.0309802260798639e+00 -5.8835428949864751e-02
1.0299999999999979e+01 +9.0395342664917386e+00 +0.0000000000000000e+00 +1.0299998066424340e+01 +1.1035846966812606e-02 -1.0309796869022554e+00 -5.8835563450182135e-02
1.0399999999999979e+01 +9.0394276242083436e+00 +0.0000000000000000e+00 +1.0399998009560999e+01 +1.1035678050067861e-02 -1.0309792678468310e+00 -5.8835690319361318e-02
1.0499999999999979e+01 +9.0393199516594702e+00 +0.0000000000000000e+00 +1.0499997951593651e+01 +1.1035511817237633e-02 -1.0309789737423034e+00 -5.8835809931133083e-02
1.0599999999999978e+01 +9.0392112488454242e+00 +0.0000000000000000e+00 +1.0599997892511682e+01 +1.1035348449438199e-02 -1.0309788071969719e+00 -5.8835922598436279e-02
1.0699999999999978e+01 +9.0391015157663830e+00 +0.0000000000000000e+00 +1.0699997832304479e+01 +1.1035187690092409e-02 -1.0309787619274402e+00 -5.8836028391078203e-02
1.0799999999999978e+01 +9.0389907524224054e+00 +0.0000000000000000e+00 +1.0799997770961426e+01 +1.1035029173086098e-02 -1.0309788294263327e+00 -5.8836127317909381e-02
1.0899999999999977e+01 +9.0388789588134344e+00 +0.0000000000000000e+00 +1.0899997708471910e+01 +1.1034872532182481e-02 -1.0309790011854145e+00 -5.8836219387568334e-02
1.0999999999999977e+01 +9.0387661349393138e+00 +0.0000000000000000e+00 +1.0999997644825314e+01 +1.1034717401019139e-02 -1.0309792686955519e+00 -5.8836304608476678e-02
1.1099999999999977e+01 +9.0386522807997860e+00 +0.0000000000000000e+00 +1.1099997580011024e+01 +1.1034563413104938e-02 -1.0309796234466719e+00 -5.8836382988834257e-02
1.1199999999999976e+01 +9.0385373963945117e+00 +0.0000000000000000e+00 +1.1199997514018428e+01 +1.1034410201817000e-02 -1.0309800569277232e+00 -5.8836454536614242e-02
1.1299999999999976e+01 +9.0384214817230699e+00 +0.0000000000000000e+00 +1.1299997446836908e+01 +1.1034257400397644e-02 -1.0309805606266347e+00 -5.8836519259558240e-02
1.1399999999999975e+01 +9.0383045367849686e+00 +0.0000000000000000e+00 +1.1399997378455851e+01 +1.1034104641951316e-02 -1.0309811260302753e+00 -5.8836577165171412e-02
1.1499999999999975e+01 +9.0381865615796588e+00 +0.0000000000000000e+00 +1.1499997308864639e+01 +1.1033951559441559e-02 -1.0309817446244154e+00 -5.8836628260717533e-02
1.1599999999999975e+01 +9.0380675561065331e+00 +0.0000000000000000e+00 +1.1599997238052659e+01 +1.1033797785687961e-02 -1.0309824078936847e+00 -5.8836672553214189e-02
1.1699999999999974e+01 +9.0379475203649431e+00 +0.0000000000000000e+00 +1.1699997166009295e+01 +1.1033642953363067e-02 -1.0309831073215345e+00 -5.8836710049427809e-02
1.1799999999999974e+01 +9.0378264543542031e+00 +0.0000000000000000e+00 +1.1799997092723931e+01 +1.1033486694989362e-02 -1.0309838343901976e+00 -5.8836740755868831e-02
