# multipoles
# s[mm] polynom_b[n=0][T/m^n] polynom_b[n=1][T/m^n] polynom_b[n=2][T/m^n] polynom_b[n=3][T/m^n] polynom_b[n=4][T/m^n] polynom_b[n=5][T/m^n] polynom_b[n=6][T/m^n] 
+0.0000000000000000e+00 -1.0338295124398806e+00 +2.2737984634212780e+00 +2.3167574009876560e+01 +3.6855071354056855e+02 -3.6208761715735105e+04 -1.0972086125068404e+06 +1.6258774455830711e+08 
+1.0005104645227200e-01 -1.0338273499578665e+00 +2.2739371288037917e+00 +2.3206654396087490e+01 +3.6395150245452783e+02 -3.7416550403293251e+04 -1.0753648566797278e+06 +1.6969455624022537e+08 
+2.0010209290454301e-01 -1.0338251192606869e+00 +2.2740726116138750e+00 +2.3243055469325292e+01 +3.5940070052178862e+02 -3.8595224062054840e+04 -1.0536398322977724e+06 +1.7669815205674332e+08 
+3.0015313935681498e-01 -1.0338228144689261e+00 +2.2742046178788269e+00 +2.3276184277113479e+01 +3.5488660571273459e+02 -3.9734318921258906e+04 -1.0319262837016778e+06 +1.8355124458530354e+08 
+4.0020418580908601e-01 -1.0338204297031706e+00 +2.2743328536577931e+00 +2.3305447867403661e+01 +3.5039751534595285e+02 -4.0823371218343200e+04 -1.0101169520672039e+06 +1.9020654637614888e+08 
+5.0025523226135804e-01 -1.0338179590839534e+00 +2.2744570250624960e+00 +2.3330253284425584e+01 +3.4592172549389335e+02 -4.1851917124025153e+04 -9.8810457191252464e+05 +1.9661676958551127e+08 
+6.0030627871362996e-01 -1.0338153977586468e+00 +2.2745768208855996e+00 +2.3350064027784711e+01 +3.4145361077480987e+02 -4.2810342898654766e+04 -9.6582729623421212e+05 +2.0273841891680545e+08 
+7.0035732516590099e-01 -1.0338127449417389e+00 +2.2746918611631242e+00 +2.3364566516017465e+01 +3.3701170822367249e+02 -4.3692420499562999e+04 -9.4340395063078788e+05 +2.0854320398667759e+08 
+8.0040837161817302e-01 -1.0338100008544651e+00 +2.2748017489124450e+00 +2.3373502177066939e+01 +3.3262055771864090e+02 -4.4492764626679455e+04 -9.2099828165406757e+05 +2.1400664386827481e+08 
+9.0045941807044405e-01 -1.0338071657180135e+00 +2.2749060872049260e+00 +2.3376612435433270e+01 +3.2830469771344639e+02 -4.5205989924528287e+04 -8.9877402806640090e+05 +2.1910425737930670e+08 
+1.0005104645227201e+00 -1.0338042397534957e+00 +2.2750044791679969e+00 +2.3373638706441930e+01 +3.2408866518396655e+02 -4.5826710882272389e+04 -8.7689492066089250e+05 +2.2381156264558113e+08 
+1.1005615109749900e+00 -1.0338012231819000e+00 +2.2750965279821922e+00 +2.3364322390055513e+01 +3.1999699563055702e+02 -4.6349541704654075e+04 -8.5552468209387083e+05 +2.2810407646983773e+08 
+1.2006125574272599e+00 -1.0337981162241878e+00 +2.2751818368857251e+00 +2.3348404881715386e+01 +3.1605422296294563e+02 -4.6769096536435405e+04 -8.3482702637684031e+05 +2.3195731547060093e+08 
+1.3006636038795301e+00 -1.0337949191012044e+00 +2.2752600091804451e+00 +2.3325627563842254e+01 +3.1228487928421356e+02 -4.7079989297426167e+04 -8.1496565753376577e+05 +2.3534679530207878e+08 
+1.4007146503318000e+00 -1.0337916320336900e+00 +2.2753306482294389e+00 +2.3295731801881093e+01 +3.0871349491696583e+02 -4.7276833600657577e+04 -7.9610426975341619e+05 +2.3824803026262462e+08 
+1.5007656967840699e+00 -1.0337882552422459e+00 +2.2753933574589804e+00 +2.3258458944940330e+01 +3.0536459834158757e+02 -4.7354242780734094e+04 -7.7840654704561864e+05 +2.4063653349167320e+08 
+1.6008167432363500e+00 -1.0337847889474276e+00 +2.2754477403621101e+00 +2.3213550332734609e+01 +3.0226271604491598e+02 -4.7306830020601759e+04 -7.6203616235286882e+05 +2.4248781757532617e+08 
+1.7008677896886200e+00 -1.0337812333695888e+00 +2.2754934004989300e+00 +2.3160747277543784e+01 +2.9943237249467859e+02 -4.7129208009901828e+04 -7.4715677740486187e+05 +2.4377739293913844e+08 
+1.8009188361408901e+00 -1.0337775887289808e+00 +2.2755299415021764e+00 +2.3099791076108822e+01 +2.9689808994426784e+02 -4.6815989177319512e+04 -7.3393204157162935e+05 +2.4448076898995626e+08 
+1.9009698825931600e+00 -1.0337738552457469e+00 +2.2755569670725175e+00 +2.3030423008598948e+01 +2.9468438853710626e+02 -4.6361785672400118e+04 -7.2252559246119973e+05 +2.4457345404577613e+08 
+2.0010209290454299e+00 -1.0337700331398123e+00 +2.2755740809904559e+00 +2.2952384323791556e+01 +2.9281578594282837e+02 -4.5761209082621535e+04 -7.1310105382128281e+05 +2.4403095400908023e+08 
+2.1010719754977001e+00 -1.0337661226310122e+00 +2.2755808871076337e+00 +2.2865416254281154e+01 +2.9131679756672537e+02 -4.5008870729382768e+04 -7.0582203674515290e+05 +2.4282877380215904e+08 
+2.2011230219499698e+00 -1.0337621239389934e+00 +2.2755769893577473e+00 +2.2769260005121897e+01 +2.9021193621682710e+02 -4.4099381449219778e+04 -7.0085213772088080e+05 +2.4094241634257305e+08 
+2.3011740684022501e+00 -1.0337580372832109e+00 +2.2755619917503154e+00 +2.2663656752826153e+01 +2.8952571225276756e+02 -4.3027351585414464e+04 -6.9835493951483502e+05 +2.3834738254459935e+08 
+2.4012251148545198e+00 -1.0337538628829728e+00 +2.2755354983810312e+00 +2.2548347648722459e+01 +2.8928263324607775e+02 -4.1787391044531039e+04 -6.9849400916792464e+05 +2.3501917158446282e+08 
+2.5012761613067900e+00 -1.0337496009573992e+00 +2.2754971134363218e+00 +2.2423073815197920e+01 +2.8950720377903366e+02 -4.0374109246697735e+04 -7.0143289674549468e+05 +2.3093328074536261e+08 
+2.6013272077590601e+00 -1.0337452531171052e+00 +2.2754468332016806e+00 +2.2287732545063104e+01 +2.9020932931576715e+02 -3.8784720566457931e+04 -7.0724315415069135e+05 +2.2607637654963118e+08 
+2.7013782542113298e+00 -1.0337408264745895e+00 +2.2753861181322605e+00 +2.2142831431782678e+01 +2.9134333597939479e+02 -3.7026452431750193e+04 -7.1564356617830903e+05 +2.2047745307907355e+08 
+2.8014293006636000e+00 -1.0337363295026181e+00 +2.2753167706477289e+00 +2.1989027401223133e+01 +2.9285029023545087e+02 -3.5108943315266537e+04 -7.2626810634720558e+05 +2.1417555135060337e+08 
+2.9014803471158799e+00 -1.0337317706742226e+00 +2.2752405931203215e+00 +2.1826977417078144e+01 +2.9467125935946149e+02 -3.3041832486806765e+04 -7.3875075153153576e+05 +2.0720971640356436e+08 
+3.0015313935681500e+00 -1.0337271584628764e+00 +2.2751593878711569e+00 +2.1657338502515657e+01 +2.9674731148074795e+02 -3.0834760425447959e+04 -7.5272548201353441e+05 +1.9961899925762415e+08 
+3.1015824400204202e+00 -1.0337225013424014e+00 +2.2750749571516464e+00 +2.1480767731530836e+01 +2.9901951609929785e+02 -2.8497368668502499e+04 -7.6782628437223367e+05 +1.9144245621878931e+08 
+3.2016334864726899e+00 -1.0337178077870821e+00 +2.2749891031339540e+00 +2.1297922240200535e+01 +3.0142894431798277e+02 -2.6039300016809873e+04 -7.8368715269315371e+05 +1.8271914982712987e+08 
+3.3016845329249600e+00 -1.0337130862716846e+00 +2.2749036279156742e+00 +2.1109459232655350e+01 +3.0391666866184534e+02 -2.3470198667229022e+04 -7.9994208732598019e+05 +1.7348814953163195e+08 
+3.4017355793772301e+00 -1.0337083452714562e+00 +2.2748203334907267e+00 +2.0916035980767681e+01 +3.0642376388466420e+02 -2.0799710192139690e+04 -8.1622509942225204e+05 +1.6378853154421160e+08 
+3.5017866258295101e+00 -1.0337035932622090e+00 +2.2747410217554016e+00 +2.0718309834700975e+01 +3.0889130674967606e+02 -1.8037481763598549e+04 -8.3217020952121972e+05 +1.5365937996301979e+08 
+3.6018376722817802e+00 -1.0336988387203705e+00 +2.2746674944895333e+00 +2.0516938230010883e+01 +3.1126037653509570e+02 -1.5193162278408341e+04 -8.4741145031828969e+05 +1.4313978733254263e+08 
+3.7018887187340499e+00 -1.0336940901229565e+00 +2.2746015533488224e+00 +2.0312578685011079e+01 +3.1347205521247508e+02 -1.2276402316721451e+04 -8.6158286753803317e+05 +1.3226885446261713e+08 
+3.8019397651863200e+00 -1.0336893559476590e+00 +2.2745449998621257e+00 +2.0105888812801709e+01 +3.1546742749977028e+02 -9.2968543753870836e+03 -8.7431852012384101e+05 +1.2108569154370110e+08 
+3.9019908116385902e+00 -1.0336846446728747e+00 +2.2744996354084095e+00 +1.9897526323235979e+01 +3.1718758146095718e+02 -6.2641729079455754e+03 -8.8525248351415724e+05 +1.0962941833818117e+08 
+4.0020418580908599e+00 -1.0336799647777466e+00 +2.2744672612180095e+00 +1.9688149032230161e+01 +3.1857360845073538e+02 -3.1880145091658555e+03 -8.9401884919087181e+05 +9.7939165069578335e+07 
+4.1020929045431300e+00 -1.0336753247421777e+00 +2.2744496783642196e+00 +1.9478414861939886e+01 +3.1956660331528582e+02 -7.8037915191120689e+01 -9.0025172570800479e+05 +8.6054072404064029e+07 
+4.2021439509954099e+00 -1.0336707330468751e+00 +2.2744486877417591e+00 +1.9268981845681676e+01 +3.2010766496360793e+02 +3.0560958948432603e+03 -9.0358524182292784e+05 +7.4013291954718262e+07 
+4.3021949974476801e+00 -1.0336661981734354e+00 +2.2744660900730600e+00 +1.9060508141916944e+01 +3.2013789615089371e+02 +6.2047234232325227e+03 -9.0365354509249236e+05 +6.1855987606461480e+07 
+4.4022460438999502e+00 -1.0336617286043122e+00 +2.2745036858829990e+00 +1.8853652028441552e+01 +3.1959840417103942e+02 +9.3581787718165760e+03 -9.0009080575518124e+05 +4.9621334925573900e+07 
+4.5022970903522204e+00 -1.0336573328229686e+00 +2.2745632755151521e+00 +1.8649071925728645e+01 +3.1843030021010708e+02 +1.2506793141487553e+04 -8.9253121589374880e+05 +3.7348523409442730e+07 
+4.6023481368044896e+00 -1.0336530181403252e+00 +2.2746461745627369e+00 +1.8447341151539320e+01 +3.1658816863972703e+02 +1.5641660015900214e+04 -8.8069537902172282e+05 +2.5074639364268519e+07 
+4.7023991832567598e+00 -1.0336487868780326e+00 +2.2747518609258752e+00 +1.8248653963596936e+01 +3.1407950320288671e+02 +1.8757756142161554e+04 -8.6464030783408554e+05 +1.2824811115386423e+07 
+4.8024502297090397e+00 -1.0336446400492234e+00 +2.2748793784531509e+00 +1.8053101712987651e+01 +3.1092474689215516e+02 +2.1851202853654544e+04 -8.4450494675555045e+05 +6.2044131075507053e+05 
+4.9025012761613098e+00 -1.0336405786668761e+00 +2.2750277710086748e+00 +1.7860775728309907e+01 +3.0714434268141667e+02 +2.4918122104818747e+04 -8.2042824029685673e+05 -1.1517071185506616e+07 
+5.0025523226135800e+00 -1.0336366037436309e+00 +2.2751960824711523e+00 +1.7671767292401832e+01 +3.0275873356932976e+02 +2.7954636935591523e+04 -7.9254913327377394e+05 -2.3566333579149973e+07 
+5.1026033690658501e+00 -1.0336327162918935e+00 +2.2753833567350794e+00 +1.7486167652543330e+01 +2.9778836261601401e+02 +3.0956871289725208e+04 -7.6100657118284050e+05 -3.5505958334479220e+07 
+5.2026544155181202e+00 -1.0336289173237252e+00 +2.2755886377206425e+00 +1.7304068008355092e+01 +2.9225367268748232e+02 +3.3920950259705642e+04 -7.2593949872415967e+05 -4.7314564393129319e+07 
+5.3027054619703904e+00 -1.0336252078508541e+00 +2.2758109693692070e+00 +1.7125559511025092e+01 +2.8617510664146874e+02 +3.6843000109552653e+04 -6.8748686098815629e+05 -5.8970777321021050e+07 
+5.4027565084226703e+00 -1.0336215888846343e+00 +2.2760493956481720e+00 +1.6950733260301661e+01 +2.7957310724653018e+02 +3.9719148354366800e+04 -6.4578760305529810e+05 -7.0453229765376806e+07 
+5.5028075548749404e+00 -1.0336180614360382e+00 +2.2763029605552090e+00 +1.6779680300174459e+01 +2.7246811708453612e+02 +4.2545523853004815e+04 -6.0098066947353771e+05 -8.1740561940560579e+07 
+5.6028586013272097e+00 -1.0336146265155608e+00 +2.2765707081250404e+00 +1.6612491608801840e+01 +2.6488057842454515e+02 +4.5318257008780485e+04 -5.5320500364777679e+05 -9.2811422622497886e+07 
+5.7029096477794798e+00 -1.0336112851332868e+00 +2.2768516824194545e+00 +1.6449258105048155e+01 +2.5683093355403645e+02 +4.8033479665741972e+04 -5.0259954980608891e+05 -1.0364446872799797e+08 
+5.8029606942317500e+00 -1.0336080382988300e+00 +2.2771449275484064e+00 +1.6290070640860677e+01 +2.4833962421165606e+02 +5.0687325267454609e+04 -4.4930324977581954e+05 -1.1421836612609182e+08 
+5.9030117406840201e+00 -1.0336048870212164e+00 +2.2774494876584104e+00 +1.6135019987657465e+01 +2.3942709198826554e+02 +5.3275929120994719e+04 -3.9345504542850249e+05 -1.2451179092085992e+08 
+6.0030627871363000e+00 -1.0336018323090288e+00 +2.2777644069403036e+00 +1.5984196850929360e+01 +2.3011377811800187e+02 +5.5795428144038764e+04 -3.3519387745253916e+05 -1.3450342833465618e+08 
+6.1031138335885702e+00 -1.0335988751702110e+00 +2.2780887296322438e+00 +1.5837691847827029e+01 +2.2042012348327131e+02 +5.8241961299097151e+04 -2.7465868556916446e+05 -1.4417197481116506e+08 
+6.2031648800408403e+00 -1.0335960166121536e+00 +2.2784215000275951e+00 +1.5695595516520934e+01 +2.1036656839250739e+02 +6.0611669431722992e+04 -2.1198840719486505e+05 -1.5349613730558592e+08 
+6.3032159264931096e+00 -1.0335932576416009e+00 +2.2787617624675667e+00 +1.5557998304746816e+01 +1.9997355288141469e+02 +6.2900695498146597e+04 -1.4732197937801774e+05 -1.6245463441164330e+08 
+6.4032669729453797e+00 -1.0335905992646364e+00 +2.2791085613515101e+00 +1.5424990566859872e+01 +1.8926151644087889e+02 +6.5105184642899723e+04 -8.0798337218492888e+04 -1.7102619680412525e+08 
+6.5033180193976499e+00 -1.0335880424864003e+00 +2.2794609409342681e+00 +1.5296662507701315e+01 +1.7825090654492610e+02 +6.7221285797382225e+04 -1.2556459581096571e+04 -1.7918957563895273e+08 
+6.6033690658499298e+00 -1.0335855874563469e+00 +2.2798178705646031e+00 +1.5173023897594422e+01 +1.6696789185370537e+02 +6.9247482065489894e+04 +5.7234331359553871e+04 -1.8693620754317454e+08 
+6.7034201123021999e+00 -1.0335832318504381e+00 +2.2801782048307517e+00 +1.5053885509614116e+01 +1.5545128546577899e+02 +7.1188589755122623e+04 +1.2834085955619095e+05 -1.9429289319932428e+08 
+6.8034711587544701e+00 -1.0335809729246406e+00 +2.2805407992468933e+00 +1.4939033162079236e+01 +1.4374122926047502e+02 +7.3050414362285985e+04 +2.0052437145653114e+05 -2.0129224507248148e+08 
+6.9035222052067402e+00 -1.0335788079343990e+00 +2.2809045091983102e+00 +1.4828252604792702e+01 +1.3187786849250597e+02 +7.4838762662404930e+04 +2.7354609635220660e+05 -2.0796688145305523e+08 
+7.0035732516590103e+00 -1.0335767341345767e+00 +2.2812681899445542e+00 +1.4721329507696421e+01 +1.1990135164633432e+02 +7.6559442926075732e+04 +3.4716724742870947e+05 -2.1434942747902974e+08 
+7.1036242981112796e+00 -1.0335747487795022e+00 +2.2816306966144380e+00 +1.4618049468918716e+01 +1.0785183058636792e+02 +7.8218264758255769e+04 +4.2114902094241371e+05 -2.2047251433369920e+08 
+7.2036753445635497e+00 -1.0335728491228822e+00 +2.2819908842023402e+00 +1.4518198003262238e+01 +9.5769460643741411e+01 +7.9821039316663417e+04 +4.9525259580219968e+05 -2.2636878027264747e+08 
+7.3037263910158297e+00 -1.0335710324177940e+00 +2.2823476075627132e+00 +1.4421560539221231e+01 +8.3694400761300756e+01 +8.1373579363874931e+04 +5.6923913278326532e+05 -2.3207087084442869e+08 
+7.4037774374680998e+00 -1.0335692959167211e+00 +2.2826997214094522e+00 +1.4327922426545900e+01 +7.1666813491091489e+01 +8.2881699120238118e+04 +6.4286977467717603e+05 -2.3761143816903293e+08 
+7.5038284839203699e+00 -1.0335676368714748e+00 +2.2830460803039521e+00 +1.4237068923770375e+01 +5.9726865341064759e+01 +8.4351214491523628e+04 +7.1590564426310838e+05 -2.4302314198233131e+08 
+7.6038795303726401e+00 -1.0335660525331833e+00 +2.2833855386625634e+00 +1.4148785197869818e+01 +4.7914726531656925e+01 +8.5787943079559976e+04 +7.8810784586785419e+05 -2.4833864968448547e+08 
+7.7039305768249102e+00 -1.0335645401523157e+00 +2.2837169507469288e+00 +1.4062856325180871e+01 +3.6270571256948578e+01 +8.7197704155313928e+04 +8.5923746390831051e+05 -2.5359063617183641e+08 
+7.8039816232771804e+00 -1.0335630969785992e+00 +2.2840391706569045e+00 +1.3979067284643003e+01 +2.4834577896104285e+01 +8.8586318786504038e+04 +9.2905556171559833e+05 -2.5881178443179411e+08 
+7.9040326697294496e+00 -1.0335617202610763e+00 +2.2843510523307291e+00 +1.3897202960939312e+01 +1.3646928970216115e+01 +8.9959609769764807e+04 +9.9732318189365626e+05 -2.6403478518061829e+08 
+8.0040837161817304e+00 -1.0335604072480014e+00 +2.2846514495404637e+00 +1.3817048133766470e+01 +2.7478112803309904e+00 +9.1323401836654331e+04 +1.0638013455616382e+06 -2.6929233783815759e+08 
+8.1041347626340006e+00 -1.0335591551868810e+00 +2.2849392158884090e+00 +1.3738387481475037e+01 -7.8225840249741729e+00 +9.2683521572967307e+04 +1.1282510520756757e+06 -2.7461715010015780e+08 
+8.2041858090862707e+00 -1.0335579613244583e+00 +2.2852132048013858e+00 +1.3661005579318466e+01 -1.8024061281349283e+01 +9.4045797455935171e+04 +1.1904332780953033e+06 -2.8004193811006284e+08 
+8.3042368555385409e+00 -1.0335568229066605e+00 +2.2854722695276806e+00 +1.3584686893127074e+01 -2.7816420236749977e+01 +9.5416059964353059e+04 +1.2501089772412379e+06 -2.8559942694342303e+08 
+8.4042879019908092e+00 -1.0335557371785931e+00 +2.2857152631352546e+00 +1.3509215778230255e+01 -3.7159456026847714e+01 +9.6800141597231603e+04 +1.3070390800751159e+06 -2.9132235068004763e+08 
+8.5043389484430794e+00 -1.0335547013842847e+00 +2.2859410388261185e+00 +1.3434376494422843e+01 -4.6012972211538120e+01 +9.8203875787984289e+04 +1.3609845760593629e+06 -2.9724344504972833e+08 
+8.6043899948953602e+00 -1.0335537129861780e+00 +2.2861488574902711e+00 +1.3360042284225459e+01 -5.4350049056524334e+01 +9.9630720246672106e+04 +1.4117844910132461e+06 -3.0338244498087215e+08 
+8.7044410413476303e+00 -1.0335527704484655e+00 +2.2863391330941636e+00 +1.3286398885226353e+01 -6.2180128439054087e+01 +1.0107618177691074e+05 +1.4594895109337165e+06 -3.0971633069342613e+08 
+8.8044920877999004e+00 -1.0335518725040354e+00 +2.2865124749483257e+00 +1.3213701603609671e+01 -6.9518549957367114e+01 +1.0253406584688276e+05 +1.5041841928536664e+06 -3.1621306909882796e+08 
+8.9045431342521706e+00 -1.0335510178862120e+00 +2.2866694922739201e+00 +1.3142205809914939e+01 -7.6380648916819609e+01 +1.0399817648120986e+05 +1.5459530629562289e+06 -3.2284061910941142e+08 
+9.0045941807044407e+00 -1.0335502053286785e+00 +2.2868107942097344e+00 +1.3072166929872806e+01 -8.2781756511584391e+01 +1.0546231643125832e+05 +1.5848806174773353e+06 -3.2956693242586422e+08 
+9.1046452271567109e+00 -1.0335494335656084e+00 +2.2869369898050724e+00 +1.3003840460597928e+01 -8.8737199576818824e+01 +1.0692028686406877e+05 +1.6210513211097973e+06 -3.3635995203056711e+08 
+9.2046962736089899e+00 -1.0335487013316069e+00 +2.2870486880232073e+00 +1.2937481963297381e+01 -9.4262300639893070e+01 +1.0836588748969819e+05 +1.6545496070718896e+06 -3.4318761275223482e+08 
+9.3047473200612600e+00 -1.0335480073617178e+00 +2.2871464977406784e+00 +1.2873347065505781e+01 -9.9372377834748818e+01 +1.0979291651492751e+05 +1.6854598764011238e+06 -3.5001784101474148e+08 
+9.4047983665135302e+00 -1.0335473503915380e+00 +2.2872310277480468e+00 +1.2811691474485354e+01 -1.0408274489879824e+02 +1.1119517037687008e+05 +1.7138664977835384e+06 -3.5681855352660620e+08 
+9.5048494129658003e+00 -1.0335467291571163e+00 +2.2873028867433507e+00 +1.2752770965500311e+01 -1.0840871090735270e+02 +1.1256644396542170e+05 +1.7398538057496108e+06 -3.6355765832108814e+08 
+9.6049004594180705e+00 -1.0335461423950463e+00 +2.2873626833370704e+00 +1.2696841394676513e+01 -1.1236558037337980e+02 +1.1390053036813439e+05 +1.7635061010784209e+06 -3.7020305349939984e+08 
+9.7049515058703406e+00 -1.0335455888424654e+00 +2.2874110260510121e+00 +1.2644158697385294e+01 -1.1596865317475915e+02 +1.1519122088905482e+05 +1.7849076501781770e+06 -3.7672262726947361e+08 
+9.8050025523226108e+00 -1.0335450672370270e+00 +2.2874485233098163e+00 +1.2594978886430694e+01 -1.1923322424909460e+02 +1.1643230508907838e+05 +1.8041426831172975e+06 -3.8308425814368105e+08 
+9.9050535987748898e+00 -1.0335445763170268e+00 +2.2874757834541164e+00 +1.2549558066923645e+01 -1.2217458392865827e+02 +1.1761757048190475e+05 +1.8212953953458031e+06 -3.8925581341639584e+08 
+1.0005104645227201e+01 -1.0335441148213071e+00 +2.2874934147262063e+00 +1.2508152427328641e+01 -1.2480801746019056e+02 +1.1874080270416118e+05 +1.8364499447121499e+06 -3.9520514995559645e+08 
+1.0105155691679400e+01 -1.0335436814893302e+00 +2.2875020252813609e+00 +1.2471018245977438e+01 -1.2714880530112404e+02 +1.1979578538408311e+05 +1.8496904529921277e+06 -4.0090011354660350e+08 
