# field on trajectory
# s[mm] rx[mm] ry[mm] rz[mm] bx[T] by[T] bz[T]
-0.0000000000000000e+00 +9.1076201166355002e+00 +0.0000000000000000e+00 -0.0000000000000000e+00 +1.1095755862219274e-02 -1.0316366292945911e+00 -5.9229700660656859e-02
-1.0005104645227200e-01 +9.1076196006322601e+00 +0.0000000000000000e+00 -1.0005104645049701e-01 +1.1095852825601096e-02 -1.0316354179262452e+00 -5.9230191014349315e-02
-2.0010209290454301e-01 +9.1076180526189905e+00 +0.0000000000000000e+00 -2.0010209289035000e-01 +1.1095945447461009e-02 -1.0316341492360537e+00 -5.9230678752451353e-02
-3.0015313935681498e-01 +9.1076154725992300e+00 +0.0000000000000000e+00 -3.0015313930891202e-01 +1.1096034010208720e-02 -1.0316328217975432e+00 -5.9231163705677457e-02
-4.0020418580908601e-01 +9.1076118605712200e+00 +0.0000000000000000e+00 -4.0020418569554000e-01 +1.1096118796256320e-02 -1.0316314341837514e+00 -5.9231645704759306e-02
-5.0025523226135804e-01 +9.1076072165331805e+00 +0.0000000000000000e+00 -5.0025523203958799e-01 +1.1096200088019476e-02 -1.0316299849672130e+00 -5.9232124580436481e-02
-6.0030627871362996e-01 +9.1076015404886608e+00 +0.0000000000000000e+00 -6.0030627833041095e-01 +1.1096278167918678e-02 -1.0316284727199423e+00 -5.9232600163447474e-02
-7.0035732516590099e-01 +9.1075948324376501e+00 +0.0000000000000000e+00 -7.0035732455736299e-01 +1.1096353318381087e-02 -1.0316268960134547e+00 -5.9233072284522084e-02
-8.0040837161817302e-01 +9.1075870923766207e+00 +0.0000000000000000e+00 -8.0040837070980198e-01 +1.1096425821841928e-02 -1.0316252534187635e+00 -5.9233540774372768e-02
-9.0045941807044405e-01 +9.1075783203073204e+00 +0.0000000000000000e+00 -9.0045941677707997e-01 +1.1096495960745648e-02 -1.0316235435063548e+00 -5.9234005463685298e-02
-1.0005104645227201e+00 +9.1075685162297706e+00 +0.0000000000000000e+00 -1.0005104627485499e+00 +1.1096564017547581e-02 -1.0316217648462025e+00 -5.9234466183110700e-02
-1.1005615109749900e+00 +9.1075576801457405e+00 +0.0000000000000000e+00 -1.1005615086135800e+00 +1.1096630274715330e-02 -1.0316199160077599e+00 -5.9234922763256606e-02
-1.2006125574272599e+00 +9.1075458120516792e+00 +0.0000000000000000e+00 -1.2006125543615100e+00 +1.1096695014730469e-02 -1.0316179955599709e+00 -5.9235375034679329e-02
-1.3006636038795301e+00 +9.1075329119511395e+00 +0.0000000000000000e+00 -1.3006635999817000e+00 +1.1096758520089485e-02 -1.0316160020712386e+00 -5.9235822827873846e-02
-1.4007146503318000e+00 +9.1075189798405596e+00 +0.0000000000000000e+00 -1.4007146454635000e+00 +1.1096821073305828e-02 -1.0316139341094586e+00 -5.9236265973267040e-02
-1.5007656967840699e+00 +9.1075040157234994e+00 +0.0000000000000000e+00 -1.5007656907962801e+00 +1.1096882956910761e-02 -1.0316117902419810e+00 -5.9236704301207345e-02
-1.6008167432363500e+00 +9.1074880195981898e+00 +0.0000000000000000e+00 -1.6008167359693799e+00 +1.1096944417503439e-02 -1.0316095713642806e+00 -5.9237137593147145e-02
-1.7008677896886200e+00 +9.1074709914646199e+00 +0.0000000000000000e+00 -1.7008677809721600e+00 +1.1097005561151892e-02 -1.0316072874745712e+00 -5.9237565439644445e-02
-1.8009188361408901e+00 +9.1074529313228005e+00 +0.0000000000000000e+00 -1.8009188257939699e+00 +1.1097066459583790e-02 -1.0316049507950165e+00 -5.9237987384568758e-02
-1.9009698825931600e+00 +9.1074338391727103e+00 +0.0000000000000000e+00 -1.9009698704241800e+00 +1.1097127184520723e-02 -1.0316025735476710e+00 -5.9238402971720415e-02
-2.0010209290454299e+00 +9.1074137150161505e+00 +0.0000000000000000e+00 -2.0010209148521301e+00 +1.1097187807675804e-02 -1.0316001679545272e+00 -5.9238811744827202e-02
-2.1010719754977001e+00 +9.1073925588495506e+00 +0.0000000000000000e+00 -2.1010719590671898e+00 +1.1097248400751714e-02 -1.0315977462375854e+00 -5.9239213247541882e-02
-2.2011230219499698e+00 +9.1073703706746993e+00 +0.0000000000000000e+00 -2.2011230030586999e+00 +1.1097309035437920e-02 -1.0315953206188782e+00 -5.9239607023437807e-02
-2.3011740684022501e+00 +9.1073471504933696e+00 +0.0000000000000000e+00 -2.3011740468160200e+00 +1.1097369783408615e-02 -1.0315929033205331e+00 -5.9239992616006265e-02
-2.4012251148545198e+00 +9.1073228983037797e+00 +0.0000000000000000e+00 -2.4012250903285000e+00 +1.1097430716320592e-02 -1.0315905065648356e+00 -5.9240369568653653e-02
-2.5012761613067900e+00 +9.1072976141041497e+00 +0.0000000000000000e+00 -2.5012761335854998e+00 +1.1097491905810743e-02 -1.0315881425742683e+00 -5.9240737424697876e-02
-2.6013272077590601e+00 +9.1072712978980501e+00 +0.0000000000000000e+00 -2.6013271765763899e+00 +1.1097553423493615e-02 -1.0315858235715516e+00 -5.9241095727364475e-02
-2.7013782542113298e+00 +9.1072439496836903e+00 +0.0000000000000000e+00 -2.7013782192905000e+00 +1.1097615340959507e-02 -1.0315835617797187e+00 -5.9241444019784643e-02
-2.8014293006636000e+00 +9.1072155694610704e+00 +0.0000000000000000e+00 -2.8014292617172001e+00 +1.1097677729771882e-02 -1.0315813694221516e+00 -5.9241781844991181e-02
-2.9014803471158799e+00 +9.1071861572302009e+00 +0.0000000000000000e+00 -2.9014803038458301e+00 +1.1097740661465162e-02 -1.0315792587226338e+00 -5.9242108745915449e-02
-3.0015313935681500e+00 +9.1071557129910694e+00 +0.0000000000000000e+00 -3.0015313456657702e+00 +1.1097804207542437e-02 -1.0315772419054046e+00 -5.9242424265384251e-02
-3.1015824400204202e+00 +9.1071242367454595e+00 +0.0000000000000000e+00 -3.1015823871663502e+00 +1.1097868439473071e-02 -1.0315753311952021e+00 -5.9242727946116208e-02
-3.2016334864726899e+00 +9.1070917284915893e+00 +0.0000000000000000e+00 -3.2016334283369399e+00 +1.1097933428690665e-02 -1.0315735388173306e+00 -5.9243019330719369e-02
-3.3016845329249600e+00 +9.1070581882277004e+00 +0.0000000000000000e+00 -3.3016844691668901e+00 +1.1097999246590575e-02 -1.0315718769977005e+00 -5.9243297961687362e-02
-3.4017355793772301e+00 +9.1070236159573206e+00 +0.0000000000000000e+00 -3.4017355096455599e+00 +1.1098065964527417e-02 -1.0315703579628683e+00 -5.9243563381395803e-02
-3.5017866258295101e+00 +9.1069880116786806e+00 +0.0000000000000000e+00 -3.5017865497623002e+00 +1.1098133653812774e-02 -1.0315689939400847e+00 -5.9243815132101474e-02
-3.6018376722817802e+00 +9.1069513753917892e+00 +0.0000000000000000e+00 -3.6018375895064700e+00 +1.1098202299205884e-02 -1.0315677922732509e+00 -5.9244053016702179e-02
-3.7018887187340499e+00 +9.1069137070966395e+00 +0.0000000000000000e+00 -3.7018886288674100e+00 +1.1098271557460813e-02 -1.0315667417892154e+00 -5.9244277826744608e-02
-3.8019397651863200e+00 +9.1068750067950095e+00 +0.0000000000000000e+00 -3.8019396678344899e+00 +1.1098341007642546e-02 -1.0315658269275385e+00 -5.9244490588199979e-02
-3.9019908116385902e+00 +9.1068352744833394e+00 +0.0000000000000000e+00 -3.9019907063970600e+00 +1.1098410228855965e-02 -1.0315650321284608e+00 -5.9244692327230050e-02
-4.0020418580908599e+00 +9.1067945101634198e+00 +0.0000000000000000e+00 -4.0020417445444796e+00 +1.1098478800248838e-02 -1.0315643418329130e+00 -5.9244884070202883e-02
-4.1020929045431300e+00 +9.1067527138370199e+00 +0.0000000000000000e+00 -4.1020927822660997e+00 +1.1098546301015465e-02 -1.0315637404825644e+00 -5.9245066843710358e-02
-4.2021439509954099e+00 +9.1067098855023705e+00 +0.0000000000000000e+00 -4.2021438195512797e+00 +1.1098612310400264e-02 -1.0315632125198695e+00 -5.9245241674585648e-02
-4.3021949974476801e+00 +9.1066660251594502e+00 +0.0000000000000000e+00 -4.3021948563893604e+00 +1.1098676407700965e-02 -1.0315627423880886e+00 -5.9245409589919508e-02
-4.4022460438999502e+00 +9.1066211328065094e+00 +0.0000000000000000e+00 -4.4022458927697201e+00 +1.1098738172272202e-02 -1.0315623145313357e+00 -5.9245571617077733e-02
-4.5022970903522204e+00 +9.1065752084488594e+00 +0.0000000000000000e+00 -4.5022969286816901e+00 +1.1098797183528552e-02 -1.0315619133945892e+00 -5.9245728783717082e-02
-4.6023481368044896e+00 +9.1065282520811692e+00 +0.0000000000000000e+00 -4.6023479641146396e+00 +1.1098853020948722e-02 -1.0315615234237761e+00 -5.9245882117804280e-02
-4.7023991832567598e+00 +9.1064802637070095e+00 +0.0000000000000000e+00 -4.7023989990579196e+00 +1.1098905264078149e-02 -1.0315611290657554e+00 -5.9246032647630752e-02
-4.8024502297090397e+00 +9.1064312433245895e+00 +0.0000000000000000e+00 -4.8024500335008904e+00 +1.1098953492533026e-02 -1.0315607147683954e+00 -5.9246181401831279e-02
-4.9025012761613098e+00 +9.1063811909321402e+00 +0.0000000000000000e+00 -4.9025010674329002e+00 +1.1098997286003507e-02 -1.0315602649805902e+00 -5.9246329409400306e-02
-5.0025523226135800e+00 +9.1063301065332105e+00 +0.0000000000000000e+00 -5.0025521008432996e+00 +1.1099036224256906e-02 -1.0315597641522909e+00 -5.9246477699708290e-02
-5.1026033690658501e+00 +9.1062779901260207e+00 +0.0000000000000000e+00 -5.1026031337214599e+00 +1.1099069887141575e-02 -1.0315591967345608e+00 -5.9246627302519984e-02
-5.2026544155181202e+00 +9.1062248417123506e+00 +0.0000000000000000e+00 -5.2026541660567203e+00 +1.1099097854589967e-02 -1.0315585471795963e+00 -5.9246779248010320e-02
-5.3027054619703904e+00 +9.1061706612886404e+00 +0.0000000000000000e+00 -5.3027051978384501e+00 +1.1099119706622397e-02 -1.0315577999407801e+00 -5.9246934566782331e-02
-5.4027565084226703e+00 +9.1061154488584606e+00 +0.0000000000000000e+00 -5.4027562290559903e+00 +1.1099135023350006e-02 -1.0315569394726940e+00 -5.9247094289882875e-02
-5.5028075548749404e+00 +9.1060592044200206e+00 +0.0000000000000000e+00 -5.5028072596986997e+00 +1.1099143384982845e-02 -1.0315559502312741e+00 -5.9247259448816147e-02
-5.6028586013272097e+00 +9.1060019279733204e+00 +0.0000000000000000e+00 -5.6028582897559396e+00 +1.1099144577992886e-02 -1.0315548213176555e+00 -5.9247430844042638e-02
-5.7029096477794798e+00 +9.1059436195183707e+00 +0.0000000000000000e+00 -5.7029093192170599e+00 +1.1099139147039172e-02 -1.0315535589110367e+00 -5.9247608424889908e-02
-5.8029606942317500e+00 +9.1058842790551608e+00 +0.0000000000000000e+00 -5.8029603480714202e+00 +1.1099127810966685e-02 -1.0315521731148687e+00 -5.9247791944893644e-02
-5.9030117406840201e+00 +9.1058239065854707e+00 +0.0000000000000000e+00 -5.9030113763083696e+00 +1.1099111288564235e-02 -1.0315506740321543e+00 -5.9247981157389704e-02
-6.0030627871363000e+00 +9.1057625021075204e+00 +0.0000000000000000e+00 -6.0030624039172604e+00 +1.1099090298561279e-02 -1.0315490717654245e+00 -5.9248175815501486e-02
-6.1031138335885702e+00 +9.1057000656213205e+00 +0.0000000000000000e+00 -6.1031134308874604e+00 +1.1099065559624269e-02 -1.0315473764166803e+00 -5.9248375672125798e-02
-6.2031648800408403e+00 +9.1056365971268605e+00 +0.0000000000000000e+00 -6.2031644572083096e+00 +1.1099037790353351e-02 -1.0315455980873602e+00 -5.9248580479919856e-02
-6.3032159264931096e+00 +9.1055720966241402e+00 +0.0000000000000000e+00 -6.3032154828691800e+00 +1.1099007709278897e-02 -1.0315437468782955e+00 -5.9248789991287770e-02
-6.4032669729453797e+00 +9.1055065641149504e+00 +0.0000000000000000e+00 -6.4032665078594100e+00 +1.1098976034858083e-02 -1.0315418328896699e+00 -5.9249003958366964e-02
-6.5033180193976499e+00 +9.1054399995957205e+00 +0.0000000000000000e+00 -6.5033175321683601e+00 +1.1098943485471727e-02 -1.0315398662209918e+00 -5.9249222133015728e-02
-6.6033690658499298e+00 +9.1053724030699996e+00 +0.0000000000000000e+00 -6.6033685557853898e+00 +1.1098910779420375e-02 -1.0315378569710252e+00 -5.9249444266798346e-02
-6.7034201123021999e+00 +9.1053037745378091e+00 +0.0000000000000000e+00 -6.7034195786998501e+00 +1.1098878634921344e-02 -1.0315358152377752e+00 -5.9249670110972937e-02
-6.8034711587544701e+00 +9.1052341139955892e+00 +0.0000000000000000e+00 -6.8034706009011003e+00 +1.1098847770105282e-02 -1.0315337511184437e+00 -5.9249899416478014e-02
-6.9035222052067402e+00 +9.1051634214468908e+00 +0.0000000000000000e+00 -6.9035216223784897e+00 +1.1098818903012366e-02 -1.0315316747093670e+00 -5.9250131933918072e-02
-7.0035732516590103e+00 +9.1050916968899305e+00 +0.0000000000000000e+00 -7.0035726431213803e+00 +1.1098792751589349e-02 -1.0315295961060020e+00 -5.9250367413551448e-02
-7.1036242981112796e+00 +9.1050189403247099e+00 +0.0000000000000000e+00 -7.1036236631191203e+00 +1.1098770033685902e-02 -1.0315275254028669e+00 -5.9250605605276223e-02
-7.2036753445635497e+00 +9.1049451517530091e+00 +0.0000000000000000e+00 -7.2036746823610702e+00 +1.1098751467051166e-02 -1.0315254726935041e+00 -5.9250846258616825e-02
-7.3037263910158297e+00 +9.1048703311712806e+00 +0.0000000000000000e+00 -7.3037257008365799e+00 +1.1098737769330671e-02 -1.0315234480704514e+00 -5.9251089122711466e-02
-7.4037774374680998e+00 +9.1047944785830701e+00 +0.0000000000000000e+00 -7.4037767185350001e+00 +1.1098729658062384e-02 -1.0315214616251736e+00 -5.9251333946297328e-02
-7.5038284839203699e+00 +9.1047175939865994e+00 +0.0000000000000000e+00 -7.5038277354457001e+00 +1.1098727850661048e-02 -1.0315195234479593e+00 -5.9251580477696963e-02
-7.6038795303726401e+00 +9.1046396773836609e+00 +0.0000000000000000e+00 -7.6038787515580202e+00 +1.1098732808719218e-02 -1.0315176418579131e+00 -5.9251828431211490e-02
-7.7039305768249102e+00 +9.1045607287706805e+00 +0.0000000000000000e+00 -7.7039297668613296e+00 +1.1098744081682273e-02 -1.0315158188602409e+00 -5.9252077401083826e-02
-7.8039816232771804e+00 +9.1044807481512198e+00 +0.0000000000000000e+00 -7.8039807813449800e+00 +1.1098761015764598e-02 -1.0315140550541488e+00 -5.9252326954954991e-02
-7.9040326697294496e+00 +9.1043997355235007e+00 +0.0000000000000000e+00 -7.9040317949983097e+00 +1.1098782957244119e-02 -1.0315123510402149e+00 -5.9252576660620636e-02
-8.0040837161817304e+00 +9.1043176908892995e+00 +0.0000000000000000e+00 -8.0040828078106898e+00 +1.1098809252464299e-02 -1.0315107074204068e+00 -5.9252826086036200e-02
-8.1041347626340006e+00 +9.1042346142468507e+00 +0.0000000000000000e+00 -8.1041338197714801e+00 +1.1098839247836946e-02 -1.0315091247981401e+00 -5.9253074799323575e-02
-8.2041858090862707e+00 +9.1041505055961398e+00 +0.0000000000000000e+00 -8.2041848308700196e+00 +1.1098872289844368e-02 -1.0315076037783075e+00 -5.9253322368776749e-02
-8.3042368555385409e+00 +9.1040653649371706e+00 +0.0000000000000000e+00 -8.3042358410956805e+00 +1.1098907725041893e-02 -1.0315061449673233e+00 -5.9253568362867742e-02
-8.4042879019908092e+00 +9.1039791922699393e+00 +0.0000000000000000e+00 -8.4042868504377992e+00 +1.1098944900060305e-02 -1.0315047489731639e+00 -5.9253812350252899e-02
-8.5043389484430794e+00 +9.1038919875980202e+00 +0.0000000000000000e+00 -8.5043378588857408e+00 +1.1098983161608116e-02 -1.0315034164054011e+00 -5.9254053899778295e-02
-8.6043899948953602e+00 +9.1038037509160592e+00 +0.0000000000000000e+00 -8.6043888664288701e+00 +1.1099021856474533e-02 -1.0315021478752731e+00 -5.9254292580487297e-02
-8.7044410413476303e+00 +9.1037144822276108e+00 +0.0000000000000000e+00 -8.7044398730565202e+00 +1.1099060331531112e-02 -1.0315009439956826e+00 -5.9254527961624566e-02
-8.8044920877999004e+00 +9.1036241815309200e+00 +0.0000000000000000e+00 -8.8044908787580596e+00 +1.1099097933734824e-02 -1.0314998053812698e+00 -5.9254759612643600e-02
-8.9045431342521706e+00 +9.1035328488259601e+00 +0.0000000000000000e+00 -8.9045418835228496e+00 +1.1099134010130123e-02 -1.0314987326484408e+00 -5.9254987103212038e-02
-9.0045941807044407e+00 +9.1034404841127508e+00 +0.0000000000000000e+00 -9.0045928873402303e+00 +1.1099167907851494e-02 -1.0314977264154073e+00 -5.9255210003217818e-02
-9.1046452271567109e+00 +9.1033470873930593e+00 +0.0000000000000000e+00 -9.1046438901995597e+00 +1.1099198974125783e-02 -1.0314967873022285e+00 -5.9255427882775082e-02
-9.2046962736089899e+00 +9.1032526586651095e+00 +0.0000000000000000e+00 -9.2046948920902096e+00 +1.1099226556274851e-02 -1.0314959159308605e+00 -5.9255640312230698e-02
-9.3047473200612600e+00 +9.1031571979306793e+00 +0.0000000000000000e+00 -9.3047458930015097e+00 +1.1099250001717676e-02 -1.0314951129251833e+00 -5.9255846862169524e-02
-9.4047983665135302e+00 +9.1030607051879997e+00 +0.0000000000000000e+00 -9.4047968929228301e+00 +1.1099268657973097e-02 -1.0314943789110567e+00 -5.9256047103421264e-02
-9.5048494129658003e+00 +9.1029631804370599e+00 +0.0000000000000000e+00 -9.5048478918435304e+00 +1.1099281872680890e-02 -1.0314937145162424e+00 -5.9256240607075288e-02
-9.6049004594180705e+00 +9.1028646236796291e+00 +0.0000000000000000e+00 -9.6048988897529508e+00 +1.1099289184977471e-02 -1.0314931192939356e+00 -5.9256427039709771e-02
-9.7049515058703406e+00 +9.1027650349139595e+00 +0.0000000000000000e+00 -9.7049498866404598e+00 +1.1099290796238451e-02 -1.0314925890721887e+00 -5.9256606397459999e-02
-9.8050025523226108e+00 +9.1026644141418007e+00 +0.0000000000000000e+00 -9.8050008824953991e+00 +1.1099287050809762e-02 -1.0314921188706765e+00 -5.9256778747371862e-02
-9.9050535987748898e+00 +9.1025627613596107e+00 +0.0000000000000000e+00 -9.9050518773071392e+00 +1.1099278292850774e-02 -1.0314917037053526e+00 -5.9256944156130281e-02
-1.0005104645227201e+01 +9.1024600765709298e+00 +0.0000000000000000e+00 -1.0005102871065001e+01 +1.1099264866328805e-02 -1.0314913385883118e+00 -5.9257102690047865e-02
-1.0105155691679400e+01 +9.1023563597757793e+00 +0.0000000000000000e+00 -1.0105153863758400e+01 +1.1099247115014576e-02 -1.0314910185277093e+00 -5.9257254415056249e-02
-1.0205206738131700e+01 +9.1022516109723703e+00 +0.0000000000000000e+00 -1.0205204855376600e+01 +1.1099225382477158e-02 -1.0314907385276508e+00 -5.9257399396696178e-02
-1.0305257784584001e+01 +9.1021458301607101e+00 +0.0000000000000000e+00 -1.0305255845909100e+01 +1.1099200012078834e-02 -1.0314904935880751e+00 -5.9257537700106951e-02
-1.0405308831036200e+01 +9.1020390173425607e+00 +0.0000000000000000e+00 -1.0405306835345099e+01 +1.1099171346970138e-02 -1.0314902787046527e+00 -5.9257669390016920e-02
-1.0505359877488500e+01 +9.1019311725161600e+00 +0.0000000000000000e+00 -1.0505357823674100e+01 +1.1099139730085080e-02 -1.0314900888686842e+00 -5.9257794530733800e-02
-1.0605410923940800e+01 +9.1018222956832808e+00 +0.0000000000000000e+00 -1.0605408810885301e+01 +1.1099105504135889e-02 -1.0314899190669851e+00 -5.9257913186134353e-02
-1.0705461970393101e+01 +9.1017123868421397e+00 +0.0000000000000000e+00 -1.0705459796968199e+01 +1.1099069011608341e-02 -1.0314897642817895e+00 -5.9258025419655143e-02
-1.0805513016845300e+01 +9.1016014459927401e+00 +0.0000000000000000e+00 -1.0805510781912000e+01 +1.1099030594756545e-02 -1.0314896194906360e+00 -5.9258131294282042e-02
-1.0905564063297600e+01 +9.1014894731368603e+00 +0.0000000000000000e+00 -1.0905561765706199e+01 +1.1098990595598022e-02 -1.0314894796662566e+00 -5.9258230872540486e-02
-1.1005615109749900e+01 +9.1013764682745109e+00 +0.0000000000000000e+00 -1.1005612748340100e+01 +1.1098949355908837e-02 -1.0314893397764828e+00 -5.9258324216485858e-02
-1.1105666156202100e+01 +9.1012624314038906e+00 +0.0000000000000000e+00 -1.1105663729803000e+01 +1.1098907217218689e-02 -1.0314891947841369e+00 -5.9258411387693749e-02
-1.1205717202654400e+01 +9.1011473625250208e+00 +0.0000000000000000e+00 -1.1205714710084401e+01 +1.1098864520805749e-02 -1.0314890396469174e+00 -5.9258492447249581e-02
-1.1305768249106700e+01 +9.1010312616396707e+00 +0.0000000000000000e+00 -1.1305765689173500e+01 +1.1098821607691762e-02 -1.0314888693172917e+00 -5.9258567455738778e-02
-1.1405819295559001e+01 +9.1009141287460693e+00 +0.0000000000000000e+00 -1.1405816667059700e+01 +1.1098778818637273e-02 -1.0314886787424054e+00 -5.9258636473237508e-02
-1.1505870342011200e+01 +9.1007959638459806e+00 +0.0000000000000000e+00 -1.1505867643732399e+01 +1.1098736494123240e-02 -1.0314884628638616e+00 -5.9258699559284249e-02
-1.1605921388463500e+01 +9.1006767669376405e+00 +0.0000000000000000e+00 -1.1605918619181001e+01 +1.1098694897033152e-02 -1.0314882160741403e+00 -5.9258756668709736e-02
-1.1705972434915800e+01 +9.1005565380228095e+00 +0.0000000000000000e+00 -1.1705969593394700e+01 +1.1098654030618212e-02 -1.0314879309362719e+00 -5.9258807406486792e-02
