# multipoles
# s[mm] polynom_b[n=0][T/m^n] polynom_b[n=1][T/m^n] polynom_b[n=2][T/m^n] polynom_b[n=3][T/m^n] polynom_b[n=4][T/m^n] polynom_b[n=5][T/m^n] polynom_b[n=6][T/m^n] 
+0.0000000000000000e+00 -1.0319337290727371e+00 +2.2812614776392932e+00 +1.9561034423005776e+01 -2.2225235146157054e+01 -2.9806575645510147e+04 +8.3324121987828217e+05 +2.9402415483824110e+08 
+1.0000000000000001e-01 -1.0319358985030844e+00 +2.2814346319150127e+00 +1.9451816799817713e+01 -2.4801991266243981e+01 -2.6804757881025565e+04 +8.6154373074006184e+05 +2.7757379269383258e+08 
+2.0000000000000001e-01 -1.0319380845586363e+00 +2.2815937992798259e+00 +1.9341315899885661e+01 -2.6940407861890034e+01 -2.3768079103899767e+04 +8.8734313510086876e+05 +2.6093767970050338e+08 
+3.0000000000000004e-01 -1.0319402861542299e+00 +2.2817391299276455e+00 +1.9229352577770698e+01 -2.8638063216186524e+01 -2.0693944481009006e+04 +9.1058569724943233e+05 +2.4410489530654389e+08 
+4.0000000000000002e-01 -1.0319425022045821e+00 +2.2818707740581377e+00 +1.9115747671975178e+01 -2.9892536015383371e+01 -1.7579758885535150e+04 +9.3121768483240751e+05 +2.2706451765190965e+08 
+5.0000000000000000e-01 -1.0319447316243038e+00 +2.2819888818826555e+00 +1.9000322005733342e+01 -3.0701405509625591e+01 -1.4422926903292006e+04 +9.4918536978185340e+05 +2.0980562357604617e+08 
+5.9999999999999998e-01 -1.0319469726709893e+00 +2.2820937112951394e+00 +1.8882935559232489e+01 -3.1067324510180249e+01 -1.1221622863523453e+04 +9.6447029248922388e+05 +1.9232116389351335e+08 
+6.9999999999999996e-01 -1.0319492209916121e+00 +2.2821859405020848e+00 +1.8763606752936379e+01 -3.1013096607692614e+01 -7.9771187074094814e+03 +9.7719409703158878e+05 +1.7461961440038162e+08 
+7.9999999999999993e-01 -1.0319514715845852e+00 +2.2822663501841980e+00 +1.8642394037991963e+01 -3.0566527773087238e+01 -4.6914647786622163e+03 +9.8751321600923804e+05 +1.5671333636778843e+08 
+8.9999999999999991e-01 -1.0319537194482344e+00 +2.2823357210260609e+00 +1.8519355851759720e+01 -2.9755424075644083e+01 -1.3667111232089137e+03 +9.9558408216916677e+05 +1.3861468953541958e+08 
+9.9999999999999989e-01 -1.0319559595807630e+00 +2.2823948337009092e+00 +1.8394550613286494e+01 -2.8607591099239915e+01 +1.9950926075534362e+03 +1.0015631244068452e+06 +1.2033603160338789e+08 
+1.0999999999999999e+00 -1.0319581869802437e+00 +2.2824444688780883e+00 +1.8268036722197834e+01 -2.7150834138103587e+01 +5.3918971878186157e+03 +1.0056067686676071e+06 +1.0188971803776380e+08 
+1.2000000000000000e+00 -1.0319603966446471e+00 +2.2824854072147192e+00 +1.8139872561851096e+01 -2.5412957861955537e+01 +8.8216537678065124e+03 +1.0078714355383586e+06 +8.3288102257771254e+07 
+1.3000000000000000e+00 -1.0319625835718431e+00 +2.2825184293494130e+00 +1.8010116499165985e+01 -2.3421766076207419e+01 +1.2282313885612584e+04 +1.0085135385066731e+06 +6.4543535538789883e+07 
+1.4000000000000001e+00 -1.0319647427596370e+00 +2.2825443159093246e+00 +1.7878826888833970e+01 -2.1205061837003090e+01 +1.5771829402161155e+04 +1.0076894841755278e+06 +4.5668367259773023e+07 
+1.5000000000000002e+00 -1.0319668692056927e+00 +2.2825638474967391e+00 +1.7746062064098698e+01 -1.8790647021240204e+01 +1.9288152678610382e+04 +1.0055556694721155e+06 +2.6674944036093276e+07 
+1.6000000000000003e+00 -1.0319689579076452e+00 +2.2825778046934802e+00 +1.7611880350191349e+01 -1.6206322345886750e+01 +2.2829236334847759e+04 +1.0022684812492973e+06 +7.5756108095825231e+06 
+1.7000000000000004e+00 -1.0319710038630385e+00 +2.2825869680495607e+00 +1.7476340055798659e+01 -1.3479887008082326e+01 +2.6393033425857462e+04 +9.9798429392676265e+05 -1.1617290047031201e+07 
+1.8000000000000005e+00 -1.0319730020693170e+00 +2.2825921180928468e+00 +1.7339499472442476e+01 -1.0639138868690093e+01 +2.9977497456185429e+04 +9.9285947008502518e+05 -3.0891418824362326e+07 
+1.9000000000000006e+00 -1.0319749475239253e+00 +2.2825940353121013e+00 +1.7201416886900990e+01 -7.7118739010142763e+00 +3.3580582157008314e+04 +9.8705035691444308e+05 -5.0234437474675365e+07 
+2.0000000000000004e+00 -1.0319768352242165e+00 +2.2825935001622226e+00 +1.7062150568857540e+01 -4.7258862598684352e+00 +3.7200241732261878e+04 +9.8071328617675800e+05 -6.9634010829522967e+07 
+2.1000000000000005e+00 -1.0319786601674772e+00 +2.2825912930622989e+00 +1.6921758773954497e+01 -1.7089681830775048e+00 +4.0834430809711936e+04 +9.7400457333277771e+05 -8.9077806411384523e+07 
+2.2000000000000006e+00 -1.0319804173510017e+00 +2.2825881943862534e+00 +1.6780299753096987e+01 +1.3110903855500642e+00 +4.4481104271568569e+04 +9.6708051486478641e+05 -1.0855349366793288e+08 
+2.3000000000000007e+00 -1.0319821017720248e+00 +2.2825849844649144e+00 +1.6637831743616587e+01 +4.3065017845295221e+00 +4.8138217437872649e+04 +9.6009738800453814e+05 -1.2804874490740870e+08 
+2.4000000000000008e+00 -1.0319837084276913e+00 +2.2825824435809623e+00 +1.6494412965027941e+01 +7.2494808481349651e+00 +5.1803726153185358e+04 +9.5321144913051836e+05 -1.4755123574279293e+08 
+2.5000000000000009e+00 -1.0319852323152445e+00 +2.2825813519631981e+00 +1.6350101643063827e+01 +1.0112245192949970e+01 +5.5475586341376569e+04 +9.4657893145766458e+05 -1.6704864303929999e+08 
+2.6000000000000010e+00 -1.0319866700289322e+00 +2.2825824039072637e+00 +1.6204967225071762e+01 +1.2871271361266222e+01 +5.9152095080039973e+04 +9.4032910694247088e+05 -1.8653211072153690e+08 
+2.7000000000000011e+00 -1.0319880245883399e+00 +2.2825860266075466e+00 +1.6059131702749522e+01 +1.5518046294973002e+01 +6.2832682445334052e+04 +9.3449822788141854e+05 -2.0600533962005332e+08 
+2.8000000000000012e+00 -1.0319893006259415e+00 +2.2825925990774532e+00 +1.5912731577063436e+01 +1.8047327852815634e+01 +6.6517015749511062e+04 +9.2910285129714059e+05 -2.2547491004102191e+08 
+2.9000000000000012e+00 -1.0319905027744012e+00 +2.2826025003380752e+00 +1.5765903376424280e+01 +2.0453872712547451e+01 +7.0204761704263190e+04 +9.2415954764196184e+05 -2.4494739893586797e+08 
+3.0000000000000013e+00 -1.0319916356666063e+00 +2.2826161094213084e+00 +1.5618783661220892e+01 +2.2732436166703081e+01 +7.3895586315408596e+04 +9.1968490262680815e+05 -2.6442937929326051e+08 
+3.1000000000000014e+00 -1.0319927039356234e+00 +2.2826338053601729e+00 +1.5471509019651950e+01 +2.4877772284826960e+01 +7.7589154946869123e+04 +9.1569551706821588e+05 -2.8392742036533451e+08 
+3.2000000000000015e+00 -1.0319937122148164e+00 +2.2826559672073206e+00 +1.5324216082719998e+01 +2.6884633236574285e+01 +8.1285132016018921e+04 +9.1220801169988082e+05 -3.0344808612326926e+08 
+3.3000000000000016e+00 -1.0319946651378313e+00 +2.2826829740251955e+00 +1.5177041523401424e+01 +2.8747769442552816e+01 +8.4983180995788760e+04 +9.0923902713128401e+05 -3.2299793519356978e+08 
+3.4000000000000017e+00 -1.0319955673385868e+00 +2.2827152048968182e+00 +1.5030122055501481e+01 +3.0461929143062125e+01 +8.8682964419531461e+04 +9.0680522716536082e+05 -3.4258352079318434e+08 
+3.5000000000000018e+00 -1.0319964234513443e+00 +2.2827530389218795e+00 +1.4883594443867711e+01 +3.2021858387122265e+01 +9.2384143670441146e+04 +9.0492329967047868e+05 -3.6221138964764595e+08 
+3.6000000000000019e+00 -1.0319972381106541e+00 +2.2827968552259916e+00 +1.4737595497994192e+01 +3.3422300608631858e+01 +9.6086379084490254e+04 +9.0360995996947994e+05 -3.8188808238905191e+08 
+3.7000000000000020e+00 -1.0319980159514859e+00 +2.2828470329561315e+00 +1.4592262089167551e+01 +3.4657996659002727e+01 +9.9789329611500594e+04 +9.0288195137099491e+05 -4.0162013186970598e+08 
+3.8000000000000020e+00 -1.0319987616091941e+00 +2.2829039512884242e+00 +1.4447731146404315e+01 +3.5723684440260200e+01 +1.0349265287248080e+05 +9.0275604818852246e+05 -4.2141406334004080e+08 
+3.9000000000000021e+00 -1.0319994797194991e+00 +2.2829679894295887e+00 +1.4304139655313348e+01 +3.6614098723142675e+01 +1.0719600516971918e+05 +9.0324905765935127e+05 -4.4127639443126118e+08 
+4.0000000000000018e+00 -1.0320001749185903e+00 +2.2830395266186851e+00 +1.4161624671533572e+01 +3.7323970987403079e+01 +1.1089904120751163e+05 +9.0437782162862190e+05 -4.6121363371659452e+08 
+4.1000000000000014e+00 -1.0320008518430617e+00 +2.2831189421265834e+00 +1.4020323313195524e+01 +3.7848029296248285e+01 +1.1460141422494270e+05 +9.0615921816921374e+05 -4.8123228127953285e+08 
+4.2000000000000011e+00 -1.0320015151300135e+00 +2.2832066152685608e+00 +1.3880372774528135e+01 +3.8180997795677229e+01 +1.1830277571917130e+05 +9.0861016532327246e+05 -5.0133882730869418e+08 
+4.3000000000000007e+00 -1.0320021694170651e+00 +2.2833029253927752e+00 +1.3741910328317932e+01 +3.8317596934678100e+01 +1.2200277537926273e+05 +9.1174762061447802e+05 -5.2153975169057852e+08 
+4.4000000000000004e+00 -1.0320028193422717e+00 +2.2834082518974799e+00 +1.3605073315362565e+01 +3.8252542830494932e+01 +1.2570106127782394e+05 +9.1558858559441031e+05 -5.4184152485869789e+08 
+4.5000000000000000e+00 -1.0320034695443587e+00 +2.2835229742413325e+00 +1.3469999178384091e+01 +3.7980546605202839e+01 +1.2939727915204671e+05 +9.2015011122807465e+05 -5.6225060409982431e+08 
+4.5999999999999996e+00 -1.0320041237568860e+00 +2.2836473698291115e+00 +1.3336802151401086e+01 +3.7498465445897075e+01 +1.3309046657613292e+05 +9.2543639187005558e+05 -5.8276733203491426e+08 
+4.6999999999999993e+00 -1.0320047819418390e+00 +2.2837811688156378e+00 +1.3205488910601749e+01 +3.6818482331393000e+01 +1.3677749460132589e+05 +9.3135260181205883e+05 -6.0336868717217326e+08 
+4.7999999999999989e+00 -1.0320054430909369e+00 +2.2839239297502023e+00 +1.3076037485542555e+01 +3.5958308195045561e+01 +1.4045470696897485e+05 +9.3776710557049979e+05 -6.2402577340987945e+08 
+4.8999999999999986e+00 -1.0320061061954047e+00 +2.2840752111727176e+00 +1.2948425819544614e+01 +3.4935656901729217e+01 +1.4411844941599795e+05 +9.4454823731028172e+05 -6.4470970539217663e+08 
+4.9999999999999982e+00 -1.0320067702460769e+00 +2.2842345716360044e+00 +1.2822631780377179e+01 +3.3768244517440763e+01 +1.4776506953131527e+05 +9.5156430532250064e+05 -6.6539160809110117e+08 
+5.0999999999999979e+00 -1.0320074342332548e+00 +2.2844015696926818e+00 +1.2698633138759712e+01 +3.2473789823940947e+01 +1.5139091720417293e+05 +9.5868358821184363e+05 -6.8604261907922840e+08 
+5.1999999999999975e+00 -1.0320080971467429e+00 +2.2845757639119508e+00 +1.2576407573365611e+01 +3.1070014015441856e+01 +1.5499234454296180e+05 +9.6577433568722091e+05 -7.0663388821698391e+08 
+5.2999999999999972e+00 -1.0320087579757531e+00 +2.2847567128690440e+00 +1.2455932655878470e+01 +2.9574641167163463e+01 +1.5856570618852851e+05 +9.7270476493378519e+05 -7.2713657925103676e+08 
+5.3999999999999968e+00 -1.0320094157089812e+00 +2.2849439751464873e+00 +1.2337185860172154e+01 +2.8005398363274104e+01 +1.6210735915812440e+05 +9.7934305894311168e+05 -7.4752186915681171e+08 
+5.4999999999999964e+00 -1.0320100693344252e+00 +2.2851371093387685e+00 +1.2220144537310219e+01 +2.6380015717758951e+01 +1.6561366335268455e+05 +9.8555736551440961e+05 -7.6776095067112291e+08 
+5.5999999999999961e+00 -1.0320107178394764e+00 +2.2853356740485364e+00 +1.2104785926234618e+01 +2.4716226678481618e+01 +1.6908098136865662e+05 +9.9121579447738070e+05 -7.8782503147014904e+08 
+5.6999999999999957e+00 -1.0320113602108769e+00 +2.2855392278925035e+00 +1.1991087146125588e+01 +2.3031767984218277e+01 +1.7250567867336606e+05 +9.9618641714468307e+05 -8.0768533511665261e+08 
+5.7999999999999954e+00 -1.0320119954346259e+00 +2.2857473294867625e+00 +1.1879025183611795e+01 +2.1344380279290675e+01 +1.7588412387154691e+05 +1.0003372617432192e+06 -8.2731310242581415e+08 
+5.8999999999999950e+00 -1.0320126224959647e+00 +2.2859595374673662e+00 +1.1768576889319377e+01 +1.9671807686902298e+01 +1.7921268879427205e+05 +1.0035363149704969e+06 -8.4667959198357189e+08 
+5.9999999999999947e+00 -1.0320132403793925e+00 +2.2861754104803844e+00 +1.1659718978271233e+01 +1.8031798238894812e+01 +1.8248774851555991e+05 +1.0056515186479544e+06 -8.6575608032325876e+08 
+6.0999999999999943e+00 -1.0320138480686221e+00 +2.2863945071780987e+00 +1.1552428023528019e+01 +1.6442104176903737e+01 +1.8570568149367222e+05 +1.0065507669799929e+06 -8.8451386268629456e+08 
+6.1999999999999940e+00 -1.0320144445464949e+00 +2.2866163862267679e+00 +1.1446680442959970e+01 +1.4920481880222129e+01 +1.8886286985346099e+05 +1.0061019061007203e+06 -9.0292425448115754e+08 
+6.2999999999999936e+00 -1.0320150287950161e+00 +2.2868406063039131e+00 +1.1342452502389454e+01 +1.3484692103206836e+01 +1.9195569934907931e+05 +1.0041727317857089e+06 -9.2095859120002508e+08 
+6.3999999999999932e+00 -1.0320155997952876e+00 +2.2870667260949586e+00 +1.1239720306735720e+01 +1.2152500257155610e+01 +1.9498055954982270e+05 +1.0006309868527974e+06 -9.3858822938233364e+08 
+6.4999999999999929e+00 -1.0320161565273740e+00 +2.2872943042862066e+00 +1.1138459777839097e+01 +1.0941676542188238e+01 +1.9793384431031067e+05 +9.9534436431421409e+05 -9.5578454863462234e+08 
+6.5999999999999925e+00 -1.0320166984406276e+00 +2.2875227805925933e+00 +1.1038678443497760e+01 +9.8680668800894669e+00 +2.0081216300198002e+05 +9.8821851566984761e+05 -9.7252145778378451e+08 
+6.6999999999999922e+00 -1.0320172270724912e+00 +2.2877512128947344e+00 +1.0940548901244760e+01 +8.9335504708439935e+00 +2.0361259506919800e+05 +9.7934734024272428e+05 -9.8878336761881769e+08 
+6.7999999999999918e+00 -1.0320177445301673e+00 +2.2879785893335414e+00 +1.0844293507847393e+01 +8.1347011147854289e+00 +2.0633228640001599e+05 +9.6888338524532074e+05 -1.0045576826300102e+09 
+6.8999999999999915e+00 -1.0320182529209592e+00 +2.2882038980630486e+00 +1.0750134688611285e+01 +7.4680905290616808e+00 +2.0896838117777070e+05 +9.5697921341759688e+05 -1.0198317987118038e+09 
+6.9999999999999911e+00 -1.0320187543523096e+00 +2.2884261272191253e+00 +1.0658294946712504e+01 +6.9302903620499894e+00 +2.1151802152107650e+05 +9.4378738725716982e+05 -1.0345931007493261e+09 
+7.0999999999999908e+00 -1.0320192509317729e+00 +2.2886442649086161e+00 +1.0568996862280789e+01 +6.5178724683377247e+00 +2.1397834747529155e+05 +9.2946046750479727e+05 -1.0488289625194268e+09 
+7.1999999999999904e+00 -1.0320197447670116e+00 +2.2888572992183533e+00 +1.0482463095668987e+01 +6.2274085866533166e+00 +2.1634649691630987e+05 +9.1415101516715309e+05 -1.0625267461513106e+09 
+7.2999999999999901e+00 -1.0320202379658370e+00 +2.2890642182097811e+00 +1.0398916393418617e+01 +6.0554704377060080e+00 +2.1861960542071552e+05 +8.9801159109489946e+05 -1.0756738014755027e+09 
+7.3999999999999897e+00 -1.0320207326362161e+00 +2.2892640099184436e+00 +1.0318579592661768e+01 +5.9986296804347097e+00 +2.2079480614908505e+05 +8.8119475637428858e+05 -1.0882574653892410e+09 
+7.4999999999999893e+00 -1.0320212308862349e+00 +2.2894556623487032e+00 +1.0241675619441574e+01 +6.0534580242369165e+00 +2.2286922984505398e+05 +8.6385307177115849e+05 -1.1002650617717824e+09 
+7.5999999999999890e+00 -1.0320217348242093e+00 +2.2896381634803276e+00 +1.0168427504305187e+01 +6.2165269621465997e+00 +2.2484000452439950e+05 +8.4613909947441786e+05 -1.1116838999815478e+09 
+7.6999999999999886e+00 -1.0320222465585640e+00 +2.2898105012626617e+00 +1.0099058370309292e+01 +6.4844078955089755e+00 +2.2670425566383745e+05 +8.2820540247231664e+05 -1.1225012756523678e+09 
+7.7999999999999883e+00 -1.0320227681979501e+00 +2.2899716636173206e+00 +1.0033791450007264e+01 +6.8536720038317895e+00 +2.2845910585906860e+05 +8.1020454543372139e+05 -1.1327044690306168e+09 
+7.8999999999999879e+00 -1.0320233018512091e+00 +2.2901206384282271e+00 +9.9728500840074741e+00 +7.3208904806325465e+00 +2.3010167481893799e+05 +7.9228909346553741e+05 -1.1422807448661587e+09 
+7.9999999999999876e+00 -1.0320238496274001e+00 +2.2902564135501589e+00 +9.9164577264513873e+00 +7.8826342018547422e+00 +2.3162907923819369e+05 +7.7461161425467581e+05 -1.1512173517546217e+09 
+8.0999999999999872e+00 -1.0320244136357428e+00 +2.2903779768067012e+00 +9.8648379403757591e+00 +8.5354737725218808e+00 +2.3303843285931382e+05 +7.5732467779973103e+05 -1.1595015223731170e+09 
+8.1999999999999869e+00 -1.0320249959857482e+00 +2.2904843159821340e+00 +9.8182144170800694e+00 +9.2759796805927461e+00 +2.3432684607170214e+05 +7.4058085574217420e+05 -1.1671204714907360e+09 
+8.2999999999999865e+00 -1.0320255987871469e+00 +2.2905744188290722e+00 +9.7768109697423551e+00 +1.0100722015306495e+01 +2.3549142601094462e+05 +7.2453272313470987e+05 -1.1740613963988032e+09 
+8.3999999999999861e+00 -1.0320262241498901e+00 +2.2906472730598892e+00 +9.7408515354779741e+00 +1.1006270689062012e+01 +2.3652927649137046e+05 +7.0933285720560851e+05 -1.1803114765179250e+09 
+8.4999999999999858e+00 -1.0320268741841545e+00 +2.2907018662571024e+00 +9.7105601714984999e+00 +1.1989200191107678e+01 +2.3743749833415780e+05 +6.9513379410087259e+05 -1.1858578767443371e+09 
+8.5999999999999854e+00 -1.0320275504355789e+00 +2.2907374380979291e+00 +9.6860792375517786e+00 +1.3047355509868456e+01 +2.3821481614833797e+05 +6.8204556971992902e+05 -1.1906967725768564e+09 
+8.6999999999999851e+00 -1.0320282520642368e+00 +2.2907544177080292e+00 +9.6671768360492276e+00 +1.4178152702312483e+01 +2.3886677383805456e+05 +6.7005271281545225e+05 -1.1948584507025077e+09 
+8.7999999999999847e+00 -1.0320289775788576e+00 +2.2907535746347554e+00 +9.6535113255402702e+00 +1.5377948553815161e+01 +2.3940079419910649e+05 +6.5911511743337335e+05 -1.1983817786136670e+09 
+8.8999999999999844e+00 -1.0320297254882411e+00 +2.2907356786833972e+00 +9.6447410538323588e+00 +1.6643090579204657e+01 +2.3982430012385707e+05 +6.4919274438589578e+05 -1.2013056230613277e+09 
+8.9999999999999840e+00 -1.0320304943014826e+00 +2.2907014999007913e+00 +9.6405243913351537e+00 +1.7969916134137559e+01 +2.4014471407337824e+05 +6.4024563224674843e+05 -1.2036688480886238e+09 
+9.0999999999999837e+00 -1.0320312825279276e+00 +2.2906518085711833e+00 +9.6405197263929345e+00 +1.9354752430362002e+01 +2.4036945815656535e+05 +6.3223389787285693e+05 -1.2055103153590193e+09 
+9.1999999999999833e+00 -1.0320320886772798e+00 +2.2905873752359209e+00 +9.6443854769099726e+00 +2.0793915868164483e+01 +2.4050595391851928e+05 +6.2511774088412966e+05 -1.2068688831510947e+09 
+9.2999999999999829e+00 -1.0320329112594726e+00 +2.2905089706878545e+00 +9.6517800735076822e+00 +2.2283712108894658e+01 +2.4056162266789263e+05 +6.1885744379429170e+05 -1.2077834079141634e+09 
+9.3999999999999826e+00 -1.0320337487847826e+00 +2.2904173659855238e+00 +9.6623619731003654e+00 +2.3820435561021753e+01 +2.4054388521367635e+05 +6.1341337562578288e+05 -1.2082927429747026e+09 
+9.4999999999999822e+00 -1.0320345997637757e+00 +2.2903133324555243e+00 +9.6757896513743376e+00 +2.5400369222706480e+01 +2.4046016201771784e+05 +6.0874599337173905e+05 -1.2084357392688556e+09 
+9.5999999999999819e+00 -1.0320354627074153e+00 +2.2901976417027146e+00 +9.6917216155754886e+00 +2.7019784280476404e+01 +2.4031787294819547e+05 +6.0481584496419202e+05 -1.2082512441330817e+09 
+9.6999999999999815e+00 -1.0320363361269165e+00 +2.2900710656136987e+00 +9.7098163852129922e+00 +2.8674939921134964e+01 +2.4012443765582409e+05 +6.0158357091049885e+05 -1.2077781030987575e+09 
+9.7999999999999812e+00 -1.0320372185338986e+00 +2.2899343763642390e+00 +9.7297325103899901e+00 +3.0362083019394998e+01 +2.3988727522530741e+05 +5.9900990671249724e+05 -1.2070551582096410e+09 
+9.8999999999999808e+00 -1.0320381084403012e+00 +2.2897883464266160e+00 +9.7511285609358058e+00 +3.2077447822999666e+01 +2.3961380438303691e+05 +5.9705568529932201e+05 -1.2061212489896150e+09 
+9.9999999999999805e+00 -1.0320390043584704e+00 +2.2896337485748162e+00 +9.7736631354721553e+00 +3.3817255716724262e+01 +2.3931144333394660e+05 +5.9568183895207709e+05 -1.2050152116683517e+09 
+1.0099999999999980e+01 -1.0320399048010853e+00 +2.2894713558946620e+00 +9.7969948524053745e+00 +3.5577714820504092e+01 +2.3898760992700135e+05 +5.9484940226344147e+05 -1.2037758799280570e+09 
