# trajectory
# s[mm] rx[mm] ry[mm] rz[mm] px[rad] py[rad] pz[rad]
0.0000000000000000e+00 +9.1798000000000002e+00 +0.0000000000000000e+00 +0.0000000000000000e+00 +0.0000000000000000e+00 +0.0000000000000000e+00 +1.0000000000000000e+00
1.0000000000000001e-01 +9.1797994845882673e+00 +0.0000000000000000e+00 +9.9999999998229006e-02 -1.0308231928945079e-05 +0.0000000000000000e+00 +9.9999999994687017e-01
2.0000000000000001e-01 +9.1797979383541719e+00 +0.0000000000000000e+00 +1.9999999998583207e-01 -2.0616447101116113e-05 +0.0000000000000000e+00 +9.9999999978748100e-01
3.0000000000000004e-01 +9.1797953612994352e+00 +0.0000000000000000e+00 +2.9999999995218329e-01 -3.0924644606962159e-05 +0.0000000000000000e+00 +9.9999999952183316e-01
4.0000000000000002e-01 +9.1797917534258726e+00 +0.0000000000000000e+00 +3.9999999988665680e-01 -4.1232823450093751e-05 +0.0000000000000000e+00 +9.9999999914992710e-01
5.0000000000000000e-01 +9.1797871147354027e+00 +0.0000000000000000e+00 +4.9999999977862680e-01 -5.1540982547280832e-05 +0.0000000000000000e+00 +9.9999999867176348e-01
5.9999999999999998e-01 +9.1797814452300592e+00 +0.0000000000000000e+00 +5.9999999961746764e-01 -6.1849120733088088e-05 +0.0000000000000000e+00 +9.9999999808734308e-01
6.9999999999999996e-01 +9.1797747449119935e+00 +0.0000000000000000e+00 +6.9999999939255364e-01 -7.2157236810883275e-05 +0.0000000000000000e+00 +9.9999999739666656e-01
7.9999999999999993e-01 +9.1797670137834739e+00 +0.0000000000000000e+00 +7.9999999909325914e-01 -8.2465329603846770e-05 +0.0000000000000000e+00 +9.9999999659973471e-01
8.9999999999999991e-01 +9.1797582518468879e+00 +0.0000000000000000e+00 +8.9999999870895875e-01 -9.2773397959609372e-05 +0.0000000000000000e+00 +9.9999999569654829e-01
9.9999999999999989e-01 +9.1797484591047347e+00 +0.0000000000000000e+00 +9.9999999822902708e-01 -1.0308144075025367e-04 +0.0000000000000000e+00 +9.9999999468710821e-01
1.0999999999999999e+00 +9.1797376355596274e+00 +0.0000000000000000e+00 +1.0999999976428387e+00 -1.1338945687231618e-04 +0.0000000000000000e+00 +9.9999999357141545e-01
1.2000000000000000e+00 +9.1797257812142856e+00 +0.0000000000000000e+00 +1.1999999969397686e+00 -1.2369744524679010e-04 +0.0000000000000000e+00 +9.9999999234947090e-01
1.3000000000000000e+00 +9.1797128960715373e+00 +0.0000000000000000e+00 +1.2999999961091913e+00 -1.3400540481912899e-04 +0.0000000000000000e+00 +9.9999999102127557e-01
1.4000000000000001e+00 +9.1796989801343152e+00 +0.0000000000000000e+00 +1.3999999951404820e+00 -1.4431333455925096e-04 +0.0000000000000000e+00 +9.9999998958683056e-01
1.5000000000000002e+00 +9.1796840334056533e+00 +0.0000000000000000e+00 +1.4999999940230158e+00 -1.5462123346154390e-04 +0.0000000000000000e+00 +9.9999998804613688e-01
1.6000000000000003e+00 +9.1796680558886834e+00 +0.0000000000000000e+00 +1.5999999927461679e+00 -1.6492910054487117e-04 +0.0000000000000000e+00 +9.9999998639919563e-01
1.7000000000000004e+00 +9.1796510475866366e+00 +0.0000000000000000e+00 +1.6999999912993133e+00 -1.7523693485257824e-04 +0.0000000000000000e+00 +9.9999998464600803e-01
1.8000000000000005e+00 +9.1796330085028366e+00 +0.0000000000000000e+00 +1.7999999896718279e+00 -1.8554473545249998e-04 +0.0000000000000000e+00 +9.9999998278657520e-01
1.9000000000000006e+00 +9.1796139386406992e+00 +0.0000000000000000e+00 +1.8999999878530869e+00 -1.9585250143696868e-04 +0.0000000000000000e+00 +9.9999998082089847e-01
2.0000000000000004e+00 +9.1795938380037310e+00 +0.0000000000000000e+00 +1.9999999858324662e+00 -2.0616023192282287e-04 +0.0000000000000000e+00 +9.9999997874897895e-01
2.1000000000000005e+00 +9.1795727065955255e+00 +0.0000000000000000e+00 +2.0999999835993415e+00 -2.1646792605141686e-04 +0.0000000000000000e+00 +9.9999997657081796e-01
2.2000000000000006e+00 +9.1795505444197598e+00 +0.0000000000000000e+00 +2.1999999811430886e+00 -2.2677558298863103e-04 +0.0000000000000000e+00 +9.9999997428641685e-01
2.3000000000000007e+00 +9.1795273514801945e+00 +0.0000000000000000e+00 +2.2999999784530836e+00 -2.3708320192488284e-04 +0.0000000000000000e+00 +9.9999997189577694e-01
2.4000000000000008e+00 +9.1795031277806682e+00 +0.0000000000000000e+00 +2.3999999755187029e+00 -2.4739078207513865e-04 +0.0000000000000000e+00 +9.9999996939889968e-01
2.5000000000000009e+00 +9.1794778733250979e+00 +0.0000000000000000e+00 +2.4999999723293227e+00 -2.5769832267892617e-04 +0.0000000000000000e+00 +9.9999996679578640e-01
2.6000000000000010e+00 +9.1794515881174750e+00 +0.0000000000000000e+00 +2.5999999688743194e+00 -2.6800582300215463e-04 +0.0000000000000000e+00 +9.9999996408643843e-01
2.7000000000000011e+00 +9.1794242721618637e+00 +0.0000000000000000e+00 +2.6999999651430695e+00 -2.7831328235700207e-04 +0.0000000000000000e+00 +9.9999996127085733e-01
2.8000000000000012e+00 +9.1793959254623907e+00 +0.0000000000000000e+00 +2.7999999611249500e+00 -2.8862070012179741e-04 +0.0000000000000000e+00 +9.9999995834904454e-01
2.9000000000000012e+00 +9.1793665480232445e+00 +0.0000000000000000e+00 +2.8999999568093378e+00 -2.9892807574283080e-04 +0.0000000000000000e+00 +9.9999995532100139e-01
3.0000000000000013e+00 +9.1793361398486635e+00 +0.0000000000000000e+00 +2.9999999521856093e+00 -3.0923540873435690e-04 +0.0000000000000000e+00 +9.9999995218672943e-01
3.1000000000000014e+00 +9.1793047009429323e+00 +0.0000000000000000e+00 +3.0999999472431425e+00 -3.1954269867859769e-04 +0.0000000000000000e+00 +9.9999994894623012e-01
3.2000000000000015e+00 +9.1792722313103745e+00 +0.0000000000000000e+00 +3.1999999419713143e+00 -3.2984994522574512e-04 +0.0000000000000000e+00 +9.9999994559950489e-01
3.3000000000000016e+00 +9.1792387309553440e+00 +0.0000000000000000e+00 +3.2999999363595025e+00 -3.4015714809396336e-04 +0.0000000000000000e+00 +9.9999994214655519e-01
3.4000000000000017e+00 +9.1792041998822196e+00 +0.0000000000000000e+00 +3.3999999303970845e+00 -3.5046430706939095e-04 +0.0000000000000000e+00 +9.9999993858738245e-01
3.5000000000000018e+00 +9.1791686380953976e+00 +0.0000000000000000e+00 +3.4999999240734381e+00 -3.6077142200614224e-04 +0.0000000000000000e+00 +9.9999993492198802e-01
3.6000000000000019e+00 +9.1791320455992889e+00 +0.0000000000000000e+00 +3.5999999173779411e+00 -3.7107849282630895e-04 +0.0000000000000000e+00 +9.9999993115037333e-01
3.7000000000000020e+00 +9.1790944223983040e+00 +0.0000000000000000e+00 +3.6999999102999719e+00 -3.8138551951996127e-04 +0.0000000000000000e+00 +9.9999992727253972e-01
3.8000000000000020e+00 +9.1790557684968537e+00 +0.0000000000000000e+00 +3.7999999028289086e+00 -3.9169250214514856e-04 +0.0000000000000000e+00 +9.9999992328848852e-01
3.9000000000000021e+00 +9.1790160838993398e+00 +0.0000000000000000e+00 +3.8999998949541292e+00 -4.0199944082790001e-04 +0.0000000000000000e+00 +9.9999991919822107e-01
4.0000000000000018e+00 +9.1789753686101463e+00 +0.0000000000000000e+00 +3.9999998866650124e+00 -4.1230633576222464e-04 +0.0000000000000000e+00 +9.9999991500173868e-01
4.1000000000000014e+00 +9.1789336226336360e+00 +0.0000000000000000e+00 +4.0999998779509363e+00 -4.2261318721011136e-04 +0.0000000000000000e+00 +9.9999991069904259e-01
4.2000000000000011e+00 +9.1788908459741432e+00 +0.0000000000000000e+00 +4.1999998688012798e+00 -4.3291999550152841e-04 +0.0000000000000000e+00 +9.9999990629013391e-01
4.3000000000000007e+00 +9.1788470386359613e+00 +0.0000000000000000e+00 +4.2999998592054220e+00 -4.4322676103442278e-04 +0.0000000000000000e+00 +9.9999990177501386e-01
4.4000000000000004e+00 +9.1788022006233447e+00 +0.0000000000000000e+00 +4.3999998491527421e+00 -4.5353348427471917e-04 +0.0000000000000000e+00 +9.9999989715368354e-01
4.5000000000000000e+00 +9.1787563319404981e+00 +0.0000000000000000e+00 +4.4999998386326183e+00 -4.6384016575631864e-04 +0.0000000000000000e+00 +9.9999989242614407e-01
4.5999999999999996e+00 +9.1787094325915657e+00 +0.0000000000000000e+00 +4.5999998276344307e+00 -4.7414680607483985e-04 +0.0000000000000000e+00 +9.9999988759239633e-01
4.6999999999999993e+00 +9.1786615025806348e+00 +0.0000000000000000e+00 +4.6999998161475576e+00 -4.8445340581878697e-04 +0.0000000000000000e+00 +9.9999988265244144e-01
4.7999999999999989e+00 +9.1786125419117361e+00 +0.0000000000000000e+00 +4.7999998041613789e+00 -4.9475996550071171e-04 +0.0000000000000000e+00 +9.9999987760628029e-01
4.8999999999999986e+00 +9.1785625505888557e+00 +0.0000000000000000e+00 +4.8999997916652740e+00 -5.0506648555094481e-04 +0.0000000000000000e+00 +9.9999987245391397e-01
4.9999999999999982e+00 +9.1785115286159353e+00 +0.0000000000000000e+00 +4.9999997786486219e+00 -5.1537296631758319e-04 +0.0000000000000000e+00 +9.9999986719534351e-01
5.0999999999999979e+00 +9.1784594759968918e+00 +0.0000000000000000e+00 +5.0999997651008027e+00 -5.2567940806647680e-04 +0.0000000000000000e+00 +9.9999986183056999e-01
5.1999999999999975e+00 +9.1784063927356172e+00 +0.0000000000000000e+00 +5.1999997510111955e+00 -5.3598581098121469e-04 +0.0000000000000000e+00 +9.9999985635959443e-01
5.2999999999999972e+00 +9.1783522788359875e+00 +0.0000000000000000e+00 +5.2999997363691813e+00 -5.4629217516310980e-04 +0.0000000000000000e+00 +9.9999985078241804e-01
5.3999999999999968e+00 +9.1782971343018751e+00 +0.0000000000000000e+00 +5.3999997211641393e+00 -5.5659850063118381e-04 +0.0000000000000000e+00 +9.9999984509904205e-01
5.4999999999999964e+00 +9.1782409591371543e+00 +0.0000000000000000e+00 +5.4999997053854495e+00 -5.6690478732215031e-04 +0.0000000000000000e+00 +9.9999983930946768e-01
5.5999999999999961e+00 +9.1781837533457082e+00 +0.0000000000000000e+00 +5.5999996890224928e+00 -5.7721103509039804e-04 +0.0000000000000000e+00 +9.9999983341369614e-01
5.6999999999999957e+00 +9.1781255169314413e+00 +0.0000000000000000e+00 +5.6999996720646493e+00 -5.8751724370797260e-04 +0.0000000000000000e+00 +9.9999982741172877e-01
5.7999999999999954e+00 +9.1780662498982828e+00 +0.0000000000000000e+00 +5.7999996545012991e+00 -5.9782341286455812e-04 +0.0000000000000000e+00 +9.9999982130356702e-01
5.8999999999999950e+00 +9.1780059522501976e+00 +0.0000000000000000e+00 +5.8999996363218230e+00 -6.0812954216745742e-04 +0.0000000000000000e+00 +9.9999981508921232e-01
5.9999999999999947e+00 +9.1779446239911930e+00 +0.0000000000000000e+00 +5.9999996175156021e+00 -6.1843563114157203e-04 +0.0000000000000000e+00 +9.9999980876866623e-01
6.0999999999999943e+00 +9.1778822651253318e+00 +0.0000000000000000e+00 +6.0999995980720172e+00 -6.2874167922938123e-04 +0.0000000000000000e+00 +9.9999980234193031e-01
6.1999999999999940e+00 +9.1778188756567314e+00 +0.0000000000000000e+00 +6.1999995779804493e+00 -6.3904768579092005e-04 +0.0000000000000000e+00 +9.9999979580900622e-01
6.2999999999999936e+00 +9.1777544555895805e+00 +0.0000000000000000e+00 +6.2999995572302794e+00 -6.4935365010375693e-04 +0.0000000000000000e+00 +9.9999978916989574e-01
6.3999999999999932e+00 +9.1776890049281441e+00 +0.0000000000000000e+00 +6.3999995358108892e+00 -6.5965957136297011e-04 +0.0000000000000000e+00 +9.9999978242460075e-01
6.4999999999999929e+00 +9.1776225236767726e+00 +0.0000000000000000e+00 +6.4999995137116606e+00 -6.6996544868112406e-04 +0.0000000000000000e+00 +9.9999977557312303e-01
6.5999999999999925e+00 +9.1775550118399050e+00 +0.0000000000000000e+00 +6.5999994909219746e+00 -6.8027128109609039e-04 +0.0000000000000000e+00 +9.9999976861546469e-01
6.6999999999999922e+00 +9.1774864694220817e+00 +0.0000000000000000e+00 +6.6999994674312138e+00 -6.9057706765733226e-04 +0.0000000000000000e+00 +9.9999976155162773e-01
6.7999999999999918e+00 +9.1774168964279301e+00 +0.0000000000000000e+00 +6.7999994432287609e+00 -7.0088280751219091e-04 +0.0000000000000000e+00 +9.9999975438161426e-01
6.8999999999999915e+00 +9.1773462928621612e+00 +0.0000000000000000e+00 +6.8999994183039979e+00 -7.1118849991370870e-04 +0.0000000000000000e+00 +9.9999974710542616e-01
6.9999999999999911e+00 +9.1772746587295515e+00 +0.0000000000000000e+00 +6.9999993926463073e+00 -7.2149414422060490e-04 +0.0000000000000000e+00 +9.9999973972306544e-01
7.0999999999999908e+00 +9.1772019940349381e+00 +0.0000000000000000e+00 +7.0999993662450720e+00 -7.3179973989725099e-04 +0.0000000000000000e+00 +9.9999973223453387e-01
7.1999999999999904e+00 +9.1771282987832077e+00 +0.0000000000000000e+00 +7.1999993390896755e+00 -7.4210528651364534e-04 +0.0000000000000000e+00 +9.9999972463983333e-01
7.2999999999999901e+00 +9.1770535729792826e+00 +0.0000000000000000e+00 +7.2999993111695005e+00 -7.5241078374538707e-04 +0.0000000000000000e+00 +9.9999971693896561e-01
7.3999999999999897e+00 +9.1769778166281135e+00 +0.0000000000000000e+00 +7.3999992824739298e+00 -7.6271623137364971e-04 +0.0000000000000000e+00 +9.9999970913193237e-01
7.4999999999999893e+00 +9.1769010297346654e+00 +0.0000000000000000e+00 +7.4999992529923478e+00 -7.7302162928515343e-04 +0.0000000000000000e+00 +9.9999970121873516e-01
7.5999999999999890e+00 +9.1768232123039137e+00 +0.0000000000000000e+00 +7.5999992227141382e+00 -7.8332697747213772e-04 +0.0000000000000000e+00 +9.9999969319937554e-01
7.6999999999999886e+00 +9.1767443643408253e+00 +0.0000000000000000e+00 +7.6999991916286845e+00 -7.9363227603233225e-04 +0.0000000000000000e+00 +9.9999968507385506e-01
7.7999999999999883e+00 +9.1766644858503543e+00 +0.0000000000000000e+00 +7.7999991597253704e+00 -8.0393752516892800e-04 +0.0000000000000000e+00 +9.9999967684217506e-01
7.8999999999999879e+00 +9.1765835768374284e+00 +0.0000000000000000e+00 +7.8999991269935803e+00 -8.1424272519054733e-04 +0.0000000000000000e+00 +9.9999966850433675e-01
7.9999999999999876e+00 +9.1765016373069397e+00 +0.0000000000000000e+00 +7.9999990934226988e+00 -8.2454787651121346e-04 +0.0000000000000000e+00 +9.9999966006034136e-01
8.0999999999999872e+00 +9.1764186672637322e+00 +0.0000000000000000e+00 +8.0999990590021103e+00 -8.3485297965031949e-04 +0.0000000000000000e+00 +9.9999965151018988e-01
8.1999999999999869e+00 +9.1763346667125951e+00 +0.0000000000000000e+00 +8.1999990237211993e+00 -8.4515803523259629e-04 +0.0000000000000000e+00 +9.9999964285388343e-01
8.2999999999999865e+00 +9.1762496356582464e+00 +0.0000000000000000e+00 +8.2999989875693494e+00 -8.5546304398808042e-04 +0.0000000000000000e+00 +9.9999963409142267e-01
8.3999999999999861e+00 +9.1761635741053293e+00 +0.0000000000000000e+00 +8.3999989505359451e+00 -8.6576800675208093e-04 +0.0000000000000000e+00 +9.9999962522280850e-01
8.4999999999999858e+00 +9.1760764820583969e+00 +0.0000000000000000e+00 +8.4999989126103728e+00 -8.7607292446514559e-04 +0.0000000000000000e+00 +9.9999961624804135e-01
8.5999999999999854e+00 +9.1759883595219023e+00 +0.0000000000000000e+00 +8.5999988737820150e+00 -8.8637779817267329e-04 +0.0000000000000000e+00 +9.9999960716712177e-01
8.6999999999999851e+00 +9.1758992065001905e+00 +0.0000000000000000e+00 +8.6999988340402581e+00 -8.9668262902100628e-04 +0.0000000000000000e+00 +9.9999959798005011e-01
8.7999999999999847e+00 +9.1758090229974858e+00 +0.0000000000000000e+00 +8.7999987933744865e+00 -9.0698741825359359e-04 +0.0000000000000000e+00 +9.9999958868682648e-01
8.8999999999999844e+00 +9.1757178090178826e+00 +0.0000000000000000e+00 +8.8999987517740848e+00 -9.1729216721072953e-04 +0.0000000000000000e+00 +9.9999957928745098e-01
8.9999999999999840e+00 +9.1756255645653386e+00 +0.0000000000000000e+00 +8.9999987092284375e+00 -9.2759687732965157e-04 +0.0000000000000000e+00 +9.9999956978192350e-01
9.0999999999999837e+00 +9.1755322896436606e+00 +0.0000000000000000e+00 +9.0999986657269307e+00 -9.3790155014464099e-04 +0.0000000000000000e+00 +9.9999956017024383e-01
9.1999999999999833e+00 +9.1754379842564990e+00 +0.0000000000000000e+00 +9.1999986212589473e+00 -9.4820618728712661e-04 +0.0000000000000000e+00 +9.9999955045241162e-01
9.2999999999999829e+00 +9.1753426484073355e+00 +0.0000000000000000e+00 +9.2999985758138735e+00 -9.5851079048579172e-04 +0.0000000000000000e+00 +9.9999954062842622e-01
9.3999999999999826e+00 +9.1752462820994722e+00 +0.0000000000000000e+00 +9.3999985293810937e+00 -9.6881536156668364e-04 +0.0000000000000000e+00 +9.9999953069828695e-01
9.4999999999999822e+00 +9.1751488853360286e+00 +0.0000000000000000e+00 +9.4999984819499925e+00 -9.7911990245332699e-04 +0.0000000000000000e+00 +9.9999952066199294e-01
9.5999999999999819e+00 +9.1750504581199213e+00 +0.0000000000000000e+00 +9.5999984335099544e+00 -9.8942441516683952e-04 +0.0000000000000000e+00 +9.9999951051954306e-01
9.6999999999999815e+00 +9.1749510004538628e+00 +0.0000000000000000e+00 +9.6999983840503639e+00 -9.9972890182605054e-04 +0.0000000000000000e+00 +9.9999950027093609e-01
9.7999999999999812e+00 +9.1748505123403508e+00 +0.0000000000000000e+00 +9.7999983335606036e+00 -1.0100333646476240e-03 +0.0000000000000000e+00 +9.9999948991617060e-01
9.8999999999999808e+00 +9.1747489937816518e+00 +0.0000000000000000e+00 +9.8999982820300598e+00 -1.0203378059461827e-03 +0.0000000000000000e+00 +9.9999947945524492e-01
9.9999999999999805e+00 +9.1746464447797980e+00 +0.0000000000000000e+00 +9.9999982294481153e+00 -1.0306422281344365e-03 +0.0000000000000000e+00 +9.9999946888815727e-01
1.0099999999999980e+01 +9.1745428653365781e+00 +0.0000000000000000e+00 +1.0099998175804153e+01 -1.0409466337233139e-03 +0.0000000000000000e+00 +9.9999945821490566e-01
1.0199999999999980e+01 +9.1744382554535200e+00 +0.0000000000000000e+00 +1.0199998121087557e+01 -1.0512510253220958e-03 +0.0000000000000000e+00 +9.9999944743548774e-01
1.0299999999999979e+01 +9.1743326151318900e+00 +0.0000000000000000e+00 +1.0299998065287712e+01 -1.0615554056385530e-03 +0.0000000000000000e+00 +9.9999943654990120e-01
1.0399999999999979e+01 +9.1742259443726759e+00 +0.0000000000000000e+00 +1.0399998008393998e+01 -1.0718597774790864e-03 +0.0000000000000000e+00 +9.9999942555814325e-01
1.0499999999999979e+01 +9.1741182431765811e+00 +0.0000000000000000e+00 +1.0499997950395802e+01 -1.0821641437488705e-03 +0.0000000000000000e+00 +9.9999941446021112e-01
1.0599999999999978e+01 +9.1740095115440123e+00 +0.0000000000000000e+00 +1.0599997891282502e+01 -1.0924685074454525e-03 +0.0000000000000000e+00 +9.9999940325610159e-01
1.0699999999999978e+01 +9.1738997494750762e+00 +0.0000000000000000e+00 +1.0699997831043483e+01 -1.1027728715868551e-03 +0.0000000000000000e+00 +9.9999939194581156e-01
1.0799999999999978e+01 +9.1737889569695810e+00 +0.0000000000000000e+00 +1.0799997769668124e+01 -1.1130772391395507e-03 +0.0000000000000000e+00 +9.9999938052933757e-01
1.0899999999999977e+01 +9.1736771340270380e+00 +0.0000000000000000e+00 +1.0899997707145809e+01 -1.1233816130118391e-03 +0.0000000000000000e+00 +9.9999936900667630e-01
1.0999999999999977e+01 +9.1735642806466728e+00 +0.0000000000000000e+00 +1.0999997643465919e+01 -1.1336859960537676e-03 +0.0000000000000000e+00 +9.9999935737782431e-01
1.1099999999999977e+01 +9.1734503968274286e+00 +0.0000000000000000e+00 +1.1099997578617835e+01 -1.1439903910570477e-03 +0.0000000000000000e+00 +9.9999934564277815e-01
1.1199999999999976e+01 +9.1733354825679712e+00 +0.0000000000000000e+00 +1.1199997512590935e+01 -1.1542948007549696e-03 +0.0000000000000000e+00 +9.9999933380153427e-01
1.1299999999999976e+01 +9.1732195378666983e+00 +0.0000000000000000e+00 +1.1299997445374601e+01 -1.1645992278223154e-03 +0.0000000000000000e+00 +9.9999932185408902e-01
1.1399999999999975e+01 +9.1731025627217413e+00 +0.0000000000000000e+00 +1.1399997376958211e+01 -1.1749036748752684e-03 +0.0000000000000000e+00 +9.9999930980043883e-01
1.1499999999999975e+01 +9.1729845571309720e+00 +0.0000000000000000e+00 +1.1499997307331148e+01 -1.1852081444713219e-03 +0.0000000000000000e+00 +9.9999929764058015e-01
1.1599999999999975e+01 +9.1728655210920120e+00 +0.0000000000000000e+00 +1.1599997236482787e+01 -1.1955126391091839e-03 +0.0000000000000000e+00 +9.9999928537450922e-01
1.1699999999999974e+01 +9.1727454546022340e+00 +0.0000000000000000e+00 +1.1699997164402509e+01 -1.2058171612286807e-03 +0.0000000000000000e+00 +9.9999927300222224e-01
1.1799999999999974e+01 +9.1726243576587709e+00 +0.0000000000000000e+00 +1.1799997091079691e+01 -1.2161217132106578e-03 +0.0000000000000000e+00 +9.9999926052371557e-01
