# field on trajectory
# s[mm] rx[mm] ry[mm] rz[mm] bx[T] by[T] bz[T]
-0.0000000000000000e+00 +9.1076201166355002e+00 +0.0000000000000000e+00 -0.0000000000000000e+00 +1.1165194935396505e-02 -1.0335781746288026e+00 -5.8792612154240649e-02
-1.0005104645227200e-01 +9.1076196006322601e+00 +0.0000000000000000e+00 -1.0005104645049701e-01 +1.1165486777456823e-02 -1.0335847645008873e+00 -5.8794902485231601e-02
-2.0010209290454301e-01 +9.1076180526189905e+00 +0.0000000000000000e+00 -2.0010209289035000e-01 +1.1165778577217572e-02 -1.0335913950814632e+00 -5.8797182159525660e-02
-3.0015313935681498e-01 +9.1076154725992300e+00 +0.0000000000000000e+00 -3.0015313930891202e-01 +1.1166070242051561e-02 -1.0335980509474008e+00 -5.8799450863424370e-02
-4.0020418580908601e-01 +9.1076118605712200e+00 +0.0000000000000000e+00 -4.0020418569554000e-01 +1.1166361679328485e-02 -1.0336047166763855e+00 -5.8801708283227921e-02
-5.0025523226135804e-01 +9.1076072165331805e+00 +0.0000000000000000e+00 -5.0025523203958799e-01 +1.1166652796410497e-02 -1.0336113768465638e+00 -5.8803954105227312e-02
-6.0030627871362996e-01 +9.1076015404886608e+00 +0.0000000000000000e+00 -6.0030627833041095e-01 +1.1166943500647749e-02 -1.0336180160361941e+00 -5.8806188015696474e-02
-7.0035732516590099e-01 +9.1075948324376501e+00 +0.0000000000000000e+00 -7.0035732455736299e-01 +1.1167233699374453e-02 -1.0336246188233305e+00 -5.8808409700886202e-02
-8.0040837161817302e-01 +9.1075870923766207e+00 +0.0000000000000000e+00 -8.0040837070980198e-01 +1.1167523299904541e-02 -1.0336311697854821e+00 -5.8810618847016632e-02
-9.0045941807044405e-01 +9.1075783203073204e+00 +0.0000000000000000e+00 -9.0045941677707997e-01 +1.1167812209527183e-02 -1.0336376534992573e+00 -5.8812815140269342e-02
-1.0005104645227201e+00 +9.1075685162297706e+00 +0.0000000000000000e+00 -1.0005104627485499e+00 +1.1168100335502694e-02 -1.0336440545400394e+00 -5.8814998266780542e-02
-1.1005615109749900e+00 +9.1075576801457405e+00 +0.0000000000000000e+00 -1.1005615086135800e+00 +1.1168387585058190e-02 -1.0336503574816420e+00 -5.8817167912633701e-02
-1.2006125574272599e+00 +9.1075458120516792e+00 +0.0000000000000000e+00 -1.2006125543615100e+00 +1.1168673865383521e-02 -1.0336565468959875e+00 -5.8819323763853022e-02
-1.3006636038795301e+00 +9.1075329119511395e+00 +0.0000000000000000e+00 -1.3006635999817000e+00 +1.1168959083626600e-02 -1.0336626073527382e+00 -5.8821465506394763e-02
-1.4007146503318000e+00 +9.1075189798405596e+00 +0.0000000000000000e+00 -1.4007146454635000e+00 +1.1169243146889614e-02 -1.0336685234189928e+00 -5.8823592826141628e-02
-1.5007656967840699e+00 +9.1075040157234994e+00 +0.0000000000000000e+00 -1.5007656907962801e+00 +1.1169525962224338e-02 -1.0336742796589187e+00 -5.8825705408893925e-02
-1.6008167432363500e+00 +9.1074880195981898e+00 +0.0000000000000000e+00 -1.6008167359693799e+00 +1.1169807527822892e-02 -1.0336798659465685e+00 -5.8827802985554775e-02
-1.7008677896886200e+00 +9.1074709914646199e+00 +0.0000000000000000e+00 -1.7008677809721600e+00 +1.1170088198338883e-02 -1.0336852929236686e+00 -5.8829885463622306e-02
-1.8009188361408901e+00 +9.1074529313228005e+00 +0.0000000000000000e+00 -1.8009188257939699e+00 +1.1170368415524948e-02 -1.0336905763059074e+00 -5.8831952793741885e-02
-1.9009698825931600e+00 +9.1074338391727103e+00 +0.0000000000000000e+00 -1.9009698704241800e+00 +1.1170648621140275e-02 -1.0336957318086470e+00 -5.8834004926555911e-02
-2.0010209290454299e+00 +9.1074137150161505e+00 +0.0000000000000000e+00 -2.0010209148521301e+00 +1.1170929256955465e-02 -1.0337007751470730e+00 -5.8836041812709884e-02
-2.1010719754977001e+00 +9.1073925588495506e+00 +0.0000000000000000e+00 -2.1010719590671898e+00 +1.1171210764757728e-02 -1.0337057220363670e+00 -5.8838063402859395e-02
-2.2011230219499698e+00 +9.1073703706746993e+00 +0.0000000000000000e+00 -2.2011230030586999e+00 +1.1171493586355516e-02 -1.0337105881918349e+00 -5.8840069647675110e-02
-2.3011740684022501e+00 +9.1073471504933696e+00 +0.0000000000000000e+00 -2.3011740468160200e+00 +1.1171778163583623e-02 -1.0337153893290758e+00 -5.8842060497849562e-02
-2.4012251148545198e+00 +9.1073228983037797e+00 +0.0000000000000000e+00 -2.4012250903285000e+00 +1.1172064938308269e-02 -1.0337201411641443e+00 -5.8844035904103843e-02
-2.5012761613067900e+00 +9.1072976141041497e+00 +0.0000000000000000e+00 -2.5012761335854998e+00 +1.1172354352431928e-02 -1.0337248594136947e+00 -5.8845995817193346e-02
-2.6013272077590601e+00 +9.1072712978980501e+00 +0.0000000000000000e+00 -2.6013271765763899e+00 +1.1172646847898144e-02 -1.0337295597951268e+00 -5.8847940187913297e-02
-2.7013782542113298e+00 +9.1072439496836903e+00 +0.0000000000000000e+00 -2.7013782192905000e+00 +1.1172942866696785e-02 -1.0337342580267628e+00 -5.8849868967106360e-02
-2.8014293006636000e+00 +9.1072155694610704e+00 +0.0000000000000000e+00 -2.8014292617172001e+00 +1.1173242850868782e-02 -1.0337389698279862e+00 -5.8851782105667855e-02
-2.9014803471158799e+00 +9.1071861572302009e+00 +0.0000000000000000e+00 -2.9014803038458301e+00 +1.1173547242511166e-02 -1.0337437109193996e+00 -5.8853679554552257e-02
-3.0015313935681500e+00 +9.1071557129910694e+00 +0.0000000000000000e+00 -3.0015313456657702e+00 +1.1173856483781991e-02 -1.0337484970229820e+00 -5.8855561264779359e-02
-3.1015824400204202e+00 +9.1071242367454595e+00 +0.0000000000000000e+00 -3.1015823871663502e+00 +1.1174171016905245e-02 -1.0337533438622344e+00 -5.8857427187440352e-02
-3.2016334864726899e+00 +9.1070917284915893e+00 +0.0000000000000000e+00 -3.2016334283369399e+00 +1.1174491284175966e-02 -1.0337582671623522e+00 -5.8859277273704567e-02
-3.3016845329249600e+00 +9.1070581882277004e+00 +0.0000000000000000e+00 -3.3016844691668901e+00 +1.1174817727965074e-02 -1.0337632826503658e+00 -5.8861111474825298e-02
-3.4017355793772301e+00 +9.1070236159573206e+00 +0.0000000000000000e+00 -3.4017355096455599e+00 +1.1175150790724191e-02 -1.0337684060552881e+00 -5.8862929742145395e-02
-3.5017866258295101e+00 +9.1069880116786806e+00 +0.0000000000000000e+00 -3.5017865497623002e+00 +1.1175490914990012e-02 -1.0337736531082662e+00 -5.8864732027104620e-02
-3.6018376722817802e+00 +9.1069513753917892e+00 +0.0000000000000000e+00 -3.6018375895064700e+00 +1.1175838381892038e-02 -1.0337790350867109e+00 -5.8866518255240585e-02
-3.7018887187340499e+00 +9.1069137070966395e+00 +0.0000000000000000e+00 -3.7018886288674100e+00 +1.1176192860302896e-02 -1.0337845463749757e+00 -5.8868288253547341e-02
-3.8019397651863200e+00 +9.1068750067950095e+00 +0.0000000000000000e+00 -3.8019396678344899e+00 +1.1176553873983664e-02 -1.0337901773545985e+00 -5.8870041825609620e-02
-3.9019908116385902e+00 +9.1068352744833394e+00 +0.0000000000000000e+00 -3.9019907063970600e+00 +1.1176920946662146e-02 -1.0337959184075081e+00 -5.8871778774948140e-02
-4.0020418580908599e+00 +9.1067945101634198e+00 +0.0000000000000000e+00 -4.0020417445444796e+00 +1.1177293602028859e-02 -1.0338017599160028e+00 -5.8873498905012984e-02
-4.1020929045431300e+00 +9.1067527138370199e+00 +0.0000000000000000e+00 -4.1020927822660997e+00 +1.1177671363733419e-02 -1.0338076922627688e+00 -5.8875202019178799e-02
-4.2021439509954099e+00 +9.1067098855023705e+00 +0.0000000000000000e+00 -4.2021438195512797e+00 +1.1178053755380956e-02 -1.0338137058308960e+00 -5.8876887920739814e-02
-4.3021949974476801e+00 +9.1066660251594502e+00 +0.0000000000000000e+00 -4.3021948563893604e+00 +1.1178440300528187e-02 -1.0338197910038678e+00 -5.8878556412903869e-02
-4.4022460438999502e+00 +9.1066211328065094e+00 +0.0000000000000000e+00 -4.4022458927697201e+00 +1.1178830522679834e-02 -1.0338259381655774e+00 -5.8880207298787388e-02
-4.5022970903522204e+00 +9.1065752084488594e+00 +0.0000000000000000e+00 -4.5022969286816901e+00 +1.1179223945284603e-02 -1.0338321377003115e+00 -5.8881840381408923e-02
-4.6023481368044896e+00 +9.1065282520811692e+00 +0.0000000000000000e+00 -4.6023479641146396e+00 +1.1179620091731976e-02 -1.0338383799927973e+00 -5.8883455463685931e-02
-4.7023991832567598e+00 +9.1064802637070095e+00 +0.0000000000000000e+00 -4.7023989990579196e+00 +1.1180018485347923e-02 -1.0338446554281617e+00 -5.8885052348426947e-02
-4.8024502297090397e+00 +9.1064312433245895e+00 +0.0000000000000000e+00 -4.8024500335008904e+00 +1.1180418649391585e-02 -1.0338509543919727e+00 -5.8886630838328027e-02
-4.9025012761613098e+00 +9.1063811909321402e+00 +0.0000000000000000e+00 -4.9025010674329002e+00 +1.1180820107051371e-02 -1.0338572672702286e+00 -5.8888190735966572e-02
-5.0025523226135800e+00 +9.1063301065332105e+00 +0.0000000000000000e+00 -5.0025521008432996e+00 +1.1181222381441107e-02 -1.0338635844493547e+00 -5.8889731843795458e-02
-5.1026033690658501e+00 +9.1062779901260207e+00 +0.0000000000000000e+00 -5.1026031337214599e+00 +1.1181624995596579e-02 -1.0338698963162314e+00 -5.8891253964138725e-02
-5.2026544155181202e+00 +9.1062248417123506e+00 +0.0000000000000000e+00 -5.2026541660567203e+00 +1.1182027472471578e-02 -1.0338761932581808e+00 -5.8892756899185307e-02
-5.3027054619703904e+00 +9.1061706612886404e+00 +0.0000000000000000e+00 -5.3027051978384501e+00 +1.1182429334934397e-02 -1.0338824656629906e+00 -5.8894240450984542e-02
-5.4027565084226703e+00 +9.1061154488584606e+00 +0.0000000000000000e+00 -5.4027562290559903e+00 +1.1182830105763771e-02 -1.0338887039188935e+00 -5.8895704421439481e-02
-5.5028075548749404e+00 +9.1060592044200206e+00 +0.0000000000000000e+00 -5.5028072596986997e+00 +1.1183229307648599e-02 -1.0338948984146130e+00 -5.8897148612305356e-02
-5.6028586013272097e+00 +9.1060019279733204e+00 +0.0000000000000000e+00 -5.6028582897559396e+00 +1.1183626615272491e-02 -1.0339010401993900e+00 -5.8898572951519915e-02
-5.7029096477794798e+00 +9.1059436195183707e+00 +0.0000000000000000e+00 -5.7029093192170599e+00 +1.1184022262548905e-02 -1.0339071227496028e+00 -5.8899977831513732e-02
-5.8029606942317500e+00 +9.1058842790551608e+00 +0.0000000000000000e+00 -5.8029603480714202e+00 +1.1184416611912508e-02 -1.0339131400983546e+00 -5.8901363751482076e-02
-5.9030117406840201e+00 +9.1058239065854707e+00 +0.0000000000000000e+00 -5.9030113763083696e+00 +1.1184810025796228e-02 -1.0339190862774756e+00 -5.8902731210632192e-02
-6.0030627871363000e+00 +9.1057625021075204e+00 +0.0000000000000000e+00 -6.0030624039172604e+00 +1.1185202866632103e-02 -1.0339249553174719e+00 -5.8904080708186139e-02
-6.1031138335885702e+00 +9.1057000656213205e+00 +0.0000000000000000e+00 -6.1031134308874604e+00 +1.1185595496851849e-02 -1.0339307412474423e+00 -5.8905412743382478e-02
-6.2031648800408403e+00 +9.1056365971268605e+00 +0.0000000000000000e+00 -6.2031644572083096e+00 +1.1185988278887584e-02 -1.0339364380950187e+00 -5.8906727815478774e-02
-6.3032159264931096e+00 +9.1055720966241402e+00 +0.0000000000000000e+00 -6.3032154828691800e+00 +1.1186381575172547e-02 -1.0339420398862931e+00 -5.8908026423753833e-02
-6.4032669729453797e+00 +9.1055065641149504e+00 +0.0000000000000000e+00 -6.4032665078594100e+00 +1.1186775748141763e-02 -1.0339475406457546e+00 -5.8909309067509762e-02
-6.5033180193976499e+00 +9.1054399995957205e+00 +0.0000000000000000e+00 -6.5033175321683601e+00 +1.1187171160232910e-02 -1.0339529343962299e+00 -5.8910576246075187e-02
-6.6033690658499298e+00 +9.1053724030699996e+00 +0.0000000000000000e+00 -6.6033685557853898e+00 +1.1187568173886706e-02 -1.0339582151587954e+00 -5.8911828458805916e-02
-6.7034201123021999e+00 +9.1053037745378091e+00 +0.0000000000000000e+00 -6.7034195786998501e+00 +1.1187967151547898e-02 -1.0339633769527288e+00 -5.8913066205088495e-02
-6.8034711587544701e+00 +9.1052341139955892e+00 +0.0000000000000000e+00 -6.8034706009011003e+00 +1.1188368455665960e-02 -1.0339684137954446e+00 -5.8914289984342560e-02
-6.9035222052067402e+00 +9.1051634214468908e+00 +0.0000000000000000e+00 -6.9035216223784897e+00 +1.1188772448695518e-02 -1.0339733197024035e+00 -5.8915500296021828e-02
-7.0035732516590103e+00 +9.1050916968899305e+00 +0.0000000000000000e+00 -7.0035726431213803e+00 +1.1189179493097378e-02 -1.0339780886870698e+00 -5.8916697639617668e-02
-7.1036242981112796e+00 +9.1050189403247099e+00 +0.0000000000000000e+00 -7.1036236631191203e+00 +1.1189589951339047e-02 -1.0339827147608340e+00 -5.8917882514660770e-02
-7.2036753445635497e+00 +9.1049451517530091e+00 +0.0000000000000000e+00 -7.2036746823610702e+00 +1.1190004185895438e-02 -1.0339871919329415e+00 -5.8919055420723232e-02
-7.3037263910158297e+00 +9.1048703311712806e+00 +0.0000000000000000e+00 -7.3037257008365799e+00 +1.1190422559249775e-02 -1.0339915142104434e+00 -5.8920216857421721e-02
-7.4037774374680998e+00 +9.1047944785830701e+00 +0.0000000000000000e+00 -7.4037767185350001e+00 +1.1190845433893950e-02 -1.0339956755981012e+00 -5.8921367324418272e-02
-7.5038284839203699e+00 +9.1047175939865994e+00 +0.0000000000000000e+00 -7.5038277354457001e+00 +1.1191273172322007e-02 -1.0339996700984861e+00 -5.8922507321415032e-02
-7.6038795303726401e+00 +9.1046396773836609e+00 +0.0000000000000000e+00 -7.6038787515580202e+00 +1.1191705985944281e-02 -1.0340034944756935e+00 -5.8923637170389925e-02
-7.7039305768249102e+00 +9.1045607287706805e+00 +0.0000000000000000e+00 -7.7039297668613296e+00 +1.1192143547286254e-02 -1.0340071553517427e+00 -5.8924756559293079e-02
-7.8039816232771804e+00 +9.1044807481512198e+00 +0.0000000000000000e+00 -7.8039807813449800e+00 +1.1192585408893160e-02 -1.0340106615476099e+00 -5.8925865034881814e-02
-7.9040326697294496e+00 +9.1043997355235007e+00 +0.0000000000000000e+00 -7.9040317949983097e+00 +1.1193031123458874e-02 -1.0340140218864402e+00 -5.8926962144057196e-02
-8.0040837161817304e+00 +9.1043176908892995e+00 +0.0000000000000000e+00 -8.0040828078106898e+00 +1.1193480243830630e-02 -1.0340172451936069e+00 -5.8928047433868098e-02
-8.1041347626340006e+00 +9.1042346142468507e+00 +0.0000000000000000e+00 -8.1041338197714801e+00 +1.1193932323014133e-02 -1.0340203402968089e+00 -5.8929120451516742e-02
-8.2041858090862707e+00 +9.1041505055961398e+00 +0.0000000000000000e+00 -8.2041848308700196e+00 +1.1194386914178385e-02 -1.0340233160261414e+00 -5.8930180744363368e-02
-8.3042368555385409e+00 +9.1040653649371706e+00 +0.0000000000000000e+00 -8.3042358410956805e+00 +1.1194843570660654e-02 -1.0340261812141773e+00 -5.8931227859931136e-02
-8.4042879019908092e+00 +9.1039791922699393e+00 +0.0000000000000000e+00 -8.4042868504377992e+00 +1.1195301845971435e-02 -1.0340289446960518e+00 -5.8932261345911265e-02
-8.5043389484430794e+00 +9.1038919875980202e+00 +0.0000000000000000e+00 -8.5043378588857408e+00 +1.1195761293799280e-02 -1.0340316153095332e+00 -5.8933280750167509e-02
-8.6043899948953602e+00 +9.1038037509160592e+00 +0.0000000000000000e+00 -8.6043888664288701e+00 +1.1196221468016092e-02 -1.0340342018951323e+00 -5.8934285620742523e-02
-8.7044410413476303e+00 +9.1037144822276108e+00 +0.0000000000000000e+00 -8.7044398730565202e+00 +1.1196681922681580e-02 -1.0340367132961437e+00 -5.8935275505860862e-02
-8.8044920877999004e+00 +9.1036241815309200e+00 +0.0000000000000000e+00 -8.8044908787580596e+00 +1.1197142212048568e-02 -1.0340391583587574e+00 -5.8936249953935572e-02
-8.9045431342521706e+00 +9.1035328488259601e+00 +0.0000000000000000e+00 -8.9045418835228496e+00 +1.1197601890567774e-02 -1.0340415459321242e+00 -5.8937208513572287e-02
-9.0045941807044407e+00 +9.1034404841127508e+00 +0.0000000000000000e+00 -9.0045928873402303e+00 +1.1198060512892764e-02 -1.0340438848684403e+00 -5.8938150733574467e-02
-9.1046452271567109e+00 +9.1033470873930593e+00 +0.0000000000000000e+00 -9.1046438901995597e+00 +1.1198517633884865e-02 -1.0340461840230248e+00 -5.8939076162948092e-02
-9.2046962736089899e+00 +9.1032526586651095e+00 +0.0000000000000000e+00 -9.2046948920902096e+00 +1.1198972808618240e-02 -1.0340484522544109e+00 -5.8939984350907332e-02
-9.3047473200612600e+00 +9.1031571979306793e+00 +0.0000000000000000e+00 -9.3047458930015097e+00 +1.1199425592384633e-02 -1.0340506984244102e+00 -5.8940874846878641e-02
-9.4047983665135302e+00 +9.1030607051879997e+00 +0.0000000000000000e+00 -9.4047968929228301e+00 +1.1199875540698500e-02 -1.0340529313982108e+00 -5.8941747200506565e-02
-9.5048494129658003e+00 +9.1029631804370599e+00 +0.0000000000000000e+00 -9.5048478918435304e+00 +1.1200322209315683e-02 -1.0340551600442383e+00 -5.8942600961668652e-02
-9.6049004594180705e+00 +9.1028646236796291e+00 +0.0000000000000000e+00 -9.6048988897529508e+00 +1.1200765294859638e-02 -1.0340573911445528e+00 -5.8943435786990288e-02
-9.7049515058703406e+00 +9.1027650349139595e+00 +0.0000000000000000e+00 -9.7049498866404598e+00 +1.1201204980608372e-02 -1.0340596242510145e+00 -5.8944251701763976e-02
-9.8050025523226108e+00 +9.1026644141418007e+00 +0.0000000000000000e+00 -9.8050008824953991e+00 +1.1201641554745878e-02 -1.0340618573494458e+00 -5.8945048810821035e-02
-9.9050535987748898e+00 +9.1025627613596107e+00 +0.0000000000000000e+00 -9.9050518773071392e+00 +1.1202075305141510e-02 -1.0340640884219456e+00 -5.8945827218839814e-02
-1.0005104645227201e+01 +9.1024600765709298e+00 +0.0000000000000000e+00 -1.0005102871065001e+01 +1.1202506519340563e-02 -1.0340663154467569e+00 -5.8946587030339420e-02
-1.0105155691679400e+01 +9.1023563597757793e+00 +0.0000000000000000e+00 -1.0105153863758400e+01 +1.1202935484555497e-02 -1.0340685363981819e+00 -5.8947328349675997e-02
-1.0205206738131700e+01 +9.1022516109723703e+00 +0.0000000000000000e+00 -1.0205204855376600e+01 +1.1203362487656809e-02 -1.0340707492464751e+00 -5.8948051281037715e-02
-1.0305257784584001e+01 +9.1021458301607101e+00 +0.0000000000000000e+00 -1.0305255845909100e+01 +1.1203787815163855e-02 -1.0340729519577263e+00 -5.8948755928439414e-02
-1.0405308831036200e+01 +9.1020390173425607e+00 +0.0000000000000000e+00 -1.0405306835345099e+01 +1.1204211753235794e-02 -1.0340751424937551e+00 -5.8949442395717873e-02
-1.0505359877488500e+01 +9.1019311725161600e+00 +0.0000000000000000e+00 -1.0505357823674100e+01 +1.1204634587662639e-02 -1.0340773188120154e+00 -5.8950110786527309e-02
-1.0605410923940800e+01 +9.1018222956832808e+00 +0.0000000000000000e+00 -1.0605408810885301e+01 +1.1205056603856015e-02 -1.0340794788654744e+00 -5.8950761204334012e-02
-1.0705461970393101e+01 +9.1017123868421397e+00 +0.0000000000000000e+00 -1.0705459796968199e+01 +1.1205478086840257e-02 -1.0340816206025210e+00 -5.8951393752412019e-02
-1.0805513016845300e+01 +9.1016014459927401e+00 +0.0000000000000000e+00 -1.0805510781912000e+01 +1.1205899321243218e-02 -1.0340837419668474e+00 -5.8952008533837780e-02
-1.0905564063297600e+01 +9.1014894731368603e+00 +0.0000000000000000e+00 -1.0905561765706199e+01 +1.1206320591287202e-02 -1.0340858408973439e+00 -5.8952605651485392e-02
-1.1005615109749900e+01 +9.1013764682745109e+00 +0.0000000000000000e+00 -1.1005612748340100e+01 +1.1206742180779971e-02 -1.0340879153279985e+00 -5.8953185208021903e-02
-1.1105666156202100e+01 +9.1012624314038906e+00 +0.0000000000000000e+00 -1.1105663729803000e+01 +1.1207164373105724e-02 -1.0340899631877916e+00 -5.8953747305902755e-02
-1.1205717202654400e+01 +9.1011473625250208e+00 +0.0000000000000000e+00 -1.1205714710084401e+01 +1.1207587451215877e-02 -1.0340919824005814e+00 -5.8954292047366297e-02
-1.1305768249106700e+01 +9.1010312616396707e+00 +0.0000000000000000e+00 -1.1305765689173500e+01 +1.1208011697620066e-02 -1.0340939708849963e+00 -5.8954819534429125e-02
-1.1405819295559001e+01 +9.1009141287460693e+00 +0.0000000000000000e+00 -1.1405816667059700e+01 +1.1208437394377178e-02 -1.0340959265543432e+00 -5.8955329868881731e-02
-1.1505870342011200e+01 +9.1007959638459806e+00 +0.0000000000000000e+00 -1.1505867643732399e+01 +1.1208864823065242e-02 -1.0340978473165827e+00 -5.8955823152315255e-02
-1.1605921388463500e+01 +9.1006767669376405e+00 +0.0000000000000000e+00 -1.1605918619181001e+01 +1.1209294142050104e-02 -1.0340997316791543e+00 -5.8956299676078926e-02
-1.1705972434915800e+01 +9.1005565380228095e+00 +0.0000000000000000e+00 -1.1705969593394700e+01 +1.1209725097491205e-02 -1.0341015801778597e+00 -5.8956760369263152e-02
