# multipoles
# s[mm] polynom_b[n=0][T/m^n] polynom_b[n=1][T/m^n] polynom_b[n=2][T/m^n] polynom_b[n=3][T/m^n] polynom_b[n=4][T/m^n] polynom_b[n=5][T/m^n] polynom_b[n=6][T/m^n] 
+0.0000000000000000e+00 -1.0317912687148159e+00 +2.2828599559899665e+00 +1.9640062753903777e+01 +4.7875624149995968e+00 -3.1565092585979222e+04 +6.8818397097359318e+05 +3.0570489363671988e+08 
+1.0005104645227200e-01 -1.0317934017195820e+00 +2.2830438968137732e+00 +1.9525479452398407e+01 +1.9758100266699394e+00 -2.8433792692650244e+04 +7.1763060485740018e+05 +2.8855063380937797e+08 
+2.0010209290454301e-01 -1.0317955527591498e+00 +2.2832138124544068e+00 +1.9409788852442972e+01 -3.9390513064051386e-01 -2.5270728072622009e+04 +7.4454220669834211e+05 +2.7122413911635399e+08 
+3.0015313935681498e-01 -1.0317977207814242e+00 +2.2833698363641322e+00 +1.9292820003093809e+01 -2.3187350522326255e+00 -2.2073514432073553e+04 +7.6886256560064224e+05 +2.5371562554310295e+08 
+4.0020418580908601e-01 -1.0317999047342250e+00 +2.2835121019942299e+00 +1.9174401940145664e+01 -3.7958319262751035e+00 -1.8839767238028573e+04 +7.9053547274524847e+05 +2.3601530802960443e+08 
+5.0025523226135804e-01 -1.0318021035651310e+00 +2.2836407428106842e+00 +1.9054363666692879e+01 -4.8223486083161111e+00 -1.5567101331248437e+04 +8.0950472425770038e+05 +2.1811339858147600e+08 
+6.0030627871362996e-01 -1.0318043155461769e+00 +2.2837560067643343e+00 +1.8932571685184527e+01 -5.4007880180168328e+00 -1.2253871220163794e+04 +8.2575144317375019e+05 +2.0000386779831454e+08 
+7.0035732516590099e-01 -1.0318065362844904e+00 +2.2838585860006688e+00 +1.8809043017185353e+01 -5.5547493832454071e+00 -8.9013825593795791e+03 +8.3940394668138656e+05 +1.8169561381928113e+08 
+8.0040837161817302e-01 -1.0318087607301909e+00 +2.2839492803374588e+00 +1.8683832444403336e+01 -5.3130318387219697e+00 -5.5116769478146734e+03 +8.5062683569938829e+05 +1.6320124054970199e+08 
+9.0045941807044405e-01 -1.0318109838332126e+00 +2.2840288895870415e+00 +1.8556994723600891e+01 -4.7044342788918687e+00 -2.0867954704340000e+03 +8.5958470910360769e+05 +1.4453334932166940e+08 
+1.0005104645227201e+00 -1.0318132005433993e+00 +2.2840982135545480e+00 +1.8428584597512700e+01 -3.7577552598188424e+00 +1.3712210965234906e+03 +8.6644216280895798e+05 +1.2570453984381016e+08 
+1.1005615109749900e+00 -1.0318154058104989e+00 +2.2841580520403388e+00 +1.8298656793073370e+01 -2.5017929916299582e+00 +4.8603323386585625e+03 +8.7136378930589894e+05 +1.0672740987719265e+08 
+1.2006125574272599e+00 -1.0318175945841230e+00 +2.2842092048292160e+00 +1.8167266015951675e+01 -9.6534495910457729e-01 +8.3784983088848476e+03 +8.7451417505035456e+05 +8.7614554706763327e+07 
+1.3006636038795301e+00 -1.0318197618138165e+00 +2.2842524716905479e+00 +1.8034466961803144e+01 +8.2279216411866041e-01 +1.1923679326707450e+04 +8.7605789954866143e+05 +6.8378568043119878e+07 
+1.4007146503318000e+00 -1.0318219024489976e+00 +2.2842886523793573e+00 +1.7900314303928806e+01 +2.8338225292964574e+00 +1.5493836223568000e+04 +8.7615953490688244e+05 +4.9032040806892306e+07 
+1.5007656967840699e+00 -1.0318240114390502e+00 +2.2843185466308218e+00 +1.7764862710403328e+01 +5.0389513577473908e+00 +1.9086930020792315e+04 +8.7498364401191147e+05 +2.9587562629230492e+07 
+1.6008167432363500e+00 -1.0318260837332389e+00 +2.2843429541543543e+00 +1.7628166827406265e+01 +7.4093851901503900e+00 +2.2700922268005150e+04 +8.7269477860831388e+05 +1.0057720162863668e+07 
+1.7008677896886200e+00 -1.0318281142807875e+00 +2.2843626746327312e+00 +1.7490281293036286e+01 +9.9163319645913415e+00 +2.6333774774560661e+04 +8.6945747853583004e+05 -9.5449016390710454e+06 
+1.8009188361408901e+00 -1.0318300980308630e+00 +2.2843785077253438e+00 +1.7351260733272781e+01 +1.2531001010960106e+01 +2.9983449708548331e+04 +8.6543627129235561e+05 -2.9207720079880569e+07 
+1.9009698825931600e+00 -1.0318320299325345e+00 +2.2843912530500314e+00 +1.7211159756808467e+01 +1.5224603640715426e+01 +3.3647909700293785e+04 +8.6079566823642503e+05 -4.8918155242014028e+07 
+2.0010209290454299e+00 -1.0318339049348682e+00 +2.2844017101962866e+00 +1.7070032967537447e+01 +1.7968352834669961e+01 +3.7325117614515540e+04 +8.5570016600539465e+05 -6.8663628950752214e+07 
+2.1010719754977001e+00 -1.0318357179868753e+00 +2.2844106787178902e+00 +1.6927934955774308e+01 +2.0733463527512392e+01 +4.1013036725672311e+04 +8.5031424443358986e+05 -8.8431565650451660e+07 
+2.2011230219499698e+00 -1.0318374640375381e+00 +2.2844189581215777e+00 +1.6784920304367162e+01 +2.3491153019014753e+01 +4.4709630611248431e+04 +8.4480236376645695e+05 -1.0820939194091119e+08 
+2.3011740684022501e+00 -1.0318391380358163e+00 +2.2844273478762220e+00 +1.6641043587399363e+01 +2.6212640765423622e+01 +4.8412863192270663e+04 +8.3932896549787442e+05 -1.2798453683707739e+08 
+2.4012251148545198e+00 -1.0318407349306276e+00 +2.2844366474003990e+00 +1.6496359366961524e+01 +2.8869148812555991e+01 +5.2120698795082142e+04 +8.3405846942616603e+05 -1.4774443207906270e+08 
+2.5012761613067900e+00 -1.0318422496708937e+00 +2.2844476560562232e+00 +1.6350922198059052e+01 +3.1431902118898041e+01 +5.5831102091772314e+04 +8.2915527086364757e+05 -1.6747651199943322e+08 
+2.6013272077590601e+00 -1.0318436788504051e+00 +2.2844610773167426e+00 +1.6204795258970709e+01 +3.3876973204670740e+01 +5.9542479903568688e+04 +8.2475190581558365e+05 -1.8717238206157222e+08 
+2.7013782542113298e+00 -1.0318450254378311e+00 +2.2844773258262316e+00 +1.6058083464299081e+01 +3.6196903265047098e+01 +6.3254683765163725e+04 +8.2087441341819486e+05 -2.0683821692060429e+08 
+2.8014293006636000e+00 -1.0318462939432425e+00 +2.2844967654983477e+00 +1.5910903302709771e+01 +3.8387693658126409e+01 +6.6967862488736500e+04 +8.1752693819822650e+05 -2.2648340562652645e+08 
+2.9014803471158799e+00 -1.0318474888769025e+00 +2.2845197602434721e+00 +1.5763371289751097e+01 +4.0445344885295640e+01 +7.0682164301683020e+04 +8.1471363626568415e+05 -2.4611733394330910e+08 
+3.0015313935681500e+00 -1.0318486147492818e+00 +2.2845466739824309e+00 +1.5615603970898556e+01 +4.2365856033891987e+01 +7.4397736769303403e+04 +8.1243867946091481e+05 -2.6574938388698885e+08 
+3.1015824400204202e+00 -1.0318496760710687e+00 +2.2845778706533642e+00 +1.5467717924079901e+01 +4.4145224461957312e+01 +7.8114726734469674e+04 +8.1070625801754650e+05 -2.8538893336570758e+08 
+3.2016334864726899e+00 -1.0318506773531910e+00 +2.2846137141993039e+00 +1.5319829760287744e+01 +4.5779446017058071e+01 +8.1833280294159151e+04 +8.0952058016349352e+05 -3.0504535599417418e+08 
+3.3016845329249600e+00 -1.0318516231068628e+00 +2.2846545685806476e+00 +1.5172056132693648e+01 +4.7264514548520779e+01 +8.5553542601111651e+04 +8.0888587581267999e+05 -3.2472802004305226e+08 
+3.4017355793772301e+00 -1.0318525178435649e+00 +2.2847007977807396e+00 +1.5024513735717520e+01 +4.8596421607297472e+01 +8.9275657871530770e+04 +8.0880639921307040e+05 -3.4444628840762055e+08 
+3.5017866258295101e+00 -1.0318533660750895e+00 +2.2847527657996647e+00 +1.4877319307230231e+01 +4.9771156505728037e+01 +9.2999769330261843e+04 +8.0928642938551051e+05 -3.6420951827101326e+08 
+3.6018376722817802e+00 -1.0318541723135450e+00 +2.2848108366655802e+00 +1.4730589633470702e+01 +5.0784705824156099e+01 +9.6726019096076940e+04 +8.1033027398912876e+05 -3.8402706046317929e+08 
+3.7018887187340499e+00 -1.0318549410714106e+00 +2.2848753744245358e+00 +1.4584441555183236e+01 +5.1633053612800182e+01 +1.0045454804951987e+05 +8.1194226887583663e+05 -4.0390825874748790e+08 
+3.8019397651863200e+00 -1.0318556768615312e+00 +2.2849467431611301e+00 +1.4438991967634896e+01 +5.2312180636304049e+01 +1.0418549582160018e+05 +8.1412678343834088e+05 -4.2386244969657600e+08 
+3.9019908116385902e+00 -1.0318563841971251e+00 +2.2850253069872717e+00 +1.4294357821155572e+01 +5.2818064565043613e+01 +1.0791900076509173e+05 +8.1688822033430100e+05 -4.4389896246959466e+08 
+4.0020418580908599e+00 -1.0318570675918353e+00 +2.2851114300483033e+00 +1.4150656130623037e+01 +5.3146679680560844e+01 +1.1165519975582219e+05 +8.2023101805660094e+05 -4.6402711777138734e+08 
+4.1020929045431300e+00 -1.0318577315597413e+00 +2.2852054765271621e+00 +1.4008003976384492e+01 +5.3293996612095434e+01 +1.1539422816312601e+05 +8.2415965334970830e+05 -4.8425622764261001e+08 
+4.2021439509954099e+00 -1.0318583806153492e+00 +2.2853078106452700e+00 +1.3866518502212280e+01 +5.3255982174995637e+01 +1.1913621987258534e+05 +8.2867864299896534e+05 -5.0459559548420793e+08 
+4.3021949974476801e+00 -1.0318590192736696e+00 +2.2854187966703012e+00 +1.3726316927415610e+01 +5.3028599011244488e+01 +1.2288130703971947e+05 +8.3379254681492900e+05 -5.2505451479945666e+08 
+4.4022460438999502e+00 -1.0318596520502297e+00 +2.2855387989068809e+00 +1.3587516548061799e+01 +5.2607805737310848e+01 +1.2662962004826109e+05 +8.3950596759544895e+05 -5.4564226890615797e+08 
+4.5022970903522204e+00 -1.0318602834611261e+00 +2.2856681817747311e+00 +1.3450234754069555e+01 +5.1989553693402996e+01 +1.3038128701846619e+05 +8.4582357362532697e+05 -5.6636812797993159e+08 
+4.6023481368044896e+00 -1.0318609171092794e+00 +2.2858072057711665e+00 +1.3314573602143314e+01 +5.1171588927101723e+01 +1.3413555442159367e+05 +8.5274129773284600e+05 -5.8723348437292886e+08 
+4.7023991832567598e+00 -1.0318615530295099e+00 +2.2859555903240985e+00 +1.3180561964269440e+01 +5.0165652177261990e+01 +1.3788868510829686e+05 +8.6017082141262759e+05 -6.0821173881657887e+08 
+4.8024502297090397e+00 -1.0318621903972731e+00 +2.2861128928384042e+00 +1.3048209829871764e+01 +4.8988461527629198e+01 +1.4163626586731666e+05 +8.6799199841112830e+05 -6.2926978699784279e+08 
+4.9025012761613098e+00 -1.0318628283876530e+00 +2.2862786707201859e+00 +1.2917527116976764e+01 +4.7656737604453632e+01 +1.4537388522837748e+05 +8.7608465447225980e+05 -6.5037453428731620e+08 
+5.0025523226135800e+00 -1.0318634661752042e+00 +2.2864524813820406e+00 +1.2788523652505951e+01 +4.6187203553691965e+01 +1.4909713386541905e+05 +8.8432858674650989e+05 -6.7149289778154576e+08 
+5.1026033690658501e+00 -1.0318641029340703e+00 +2.2866338822308081e+00 +1.2661209182197755e+01 +4.4596585555587986e+01 +1.5280160443279217e+05 +8.9260355983026384e+05 -6.9259180562675297e+08 
+5.2026544155181202e+00 -1.0318647378378427e+00 +2.2868224306863900e+00 +1.2535593354647526e+01 +4.2901612483811718e+01 +1.5648289189004799e+05 +9.0078930670858023e+05 -7.1363819865432346e+08 
+5.3027054619703904e+00 -1.0318653700595908e+00 +2.2870176841639447e+00 +1.2411685720389887e+01 +4.1119016551848702e+01 +1.6013659354485880e+05 +9.0876552412868105e+05 -7.3459903068742752e+08 
+5.4027565084226703e+00 -1.0318659987717997e+00 +2.2872192000864437e+00 +1.2289495727366308e+01 +3.9265533164605557e+01 +1.6375830915700764e+05 +9.1641187240572413e+05 -7.5544126911910677e+08 
+5.5028075548749404e+00 -1.0318666231463554e+00 +2.2874265358763579e+00 +1.2169032712755593e+01 +3.7357901307265493e+01 +1.6734364112429487e+05 +9.2360797221935331e+05 -7.7613189591153264e+08 
+5.6028586013272097e+00 -1.0318672423545439e+00 +2.2876392489589819e+00 +1.2050305904909555e+01 +3.5412863628012872e+01 +1.7088819446120964e+05 +9.3023340317619371e+05 -7.9663790757236505e+08 
+5.7029096477794798e+00 -1.0318678555669321e+00 +2.2878568967638664e+00 +1.1933324404718125e+01 +3.3447166584769128e+01 +1.7438757718683826e+05 +9.3616770192650892e+05 -8.1692631712335670e+08 
+5.8029606942317500e+00 -1.0318684619534295e+00 +2.2880790367207648e+00 +1.1818097194123576e+01 +3.1477560707771950e+01 +1.7783740017286292e+05 +9.4129035975707765e+05 -8.3696415343847179e+08 
+5.9030117406840201e+00 -1.0318690606832182e+00 +2.2883052262659955e+00 +1.1704633124415935e+01 +2.9520800619714219e+01 +1.8123327740052604e+05 +9.4548082140919205e+05 -8.5671846259334671e+08 
+6.0030627871363000e+00 -1.0318696509247260e+00 +2.2885350228327122e+00 +1.1592940911374836e+01 +2.7593645470149642e+01 +1.8457082607019064e+05 +9.4861848163583141e+05 -8.7615630846686149e+08 
+6.1031138335885702e+00 -1.0318702318456234e+00 +2.2887679838589619e+00 +1.1483029133987239e+01 +2.5712858882368739e+01 +1.8784566665117652e+05 +9.5058268452747422e+05 -8.9524477307942438e+08 
+6.2031648800408403e+00 -1.0318708026127199e+00 +2.2890036667885512e+00 +1.1374906220274619e+01 +2.3895209099175922e+01 +1.9105342317425387e+05 +9.5125272169548878e+05 -9.1395095808477449e+08 
+6.3032159264931096e+00 -1.0318713623920119e+00 +2.2892416290595201e+00 +1.1268580451550008e+01 +2.2157469502896532e+01 +1.9418972317235023e+05 +9.5050782825084578e+05 -9.3224198457474089e+08 
+6.4032669729453797e+00 -1.0318719103486138e+00 +2.2894814281184592e+00 +1.1164059952806337e+01 +2.0516418351205953e+01 +1.9725019789005135e+05 +9.4822718343452504e+05 -9.5008499418695450e+08 
+6.5033180193976499e+00 -1.0318724456465456e+00 +2.2897226213425492e+00 +1.1061352650151511e+01 +1.8988841029160671e+01 +2.0023048323445520e+05 +9.4428990929250361e+05 -9.6744715296412349e+08 
+6.6033690658499298e+00 -1.0318729679223573e+00 +2.2899646305284280e+00 +1.0960491227102693e+01 +1.7589800275889818e+01 +2.0312671175303459e+05 +9.3861325537122099e+05 -9.8429988593686807e+08 
+6.7034201123021999e+00 -1.0318734787435686e+00 +2.2902065036750328e+00 +1.0861637868977242e+01 +1.6320956671435649e+01 +2.0593637934092994e+05 +9.3129508280367800e+05 -1.0006300893719885e+09 
+6.8034711587544701e+00 -1.0318739801585084e+00 +2.2904472327857373e+00 +1.0764991756282514e+01 +1.5179092201276239e+01 +2.0865724208656620e+05 +9.2248594936669292e+05 -1.0164284668746521e+09 
+6.9035222052067402e+00 -1.0318744742155819e+00 +2.2906858098564480e+00 +1.0670752140384861e+01 +1.4160988244626211e+01 +2.1128705416732674e+05 +9.1233641699057387e+05 -1.0316857118238996e+09 
+7.0035732516590103e+00 -1.0318749629633897e+00 +2.2909212268637034e+00 +1.0579118356185411e+01 +1.3263425944429610e+01 +2.1382356757629840e+05 +9.0099704923016392e+05 -1.0463925059583702e+09 
+7.1036242981112796e+00 -1.0318754484506032e+00 +2.2911524757664328e+00 +1.0490289813053804e+01 +1.2483186108157188e+01 +2.1626453225393841e+05 +8.8861841200623440e+05 -1.0605395199014002e+09 
+7.2036753445635497e+00 -1.0318759327260745e+00 +2.2913785485075362e+00 +1.0404466009814783e+01 +1.1817049098752399e+01 +2.1860769578187671e+05 +8.7535107439673319e+05 -1.0741174116538796e+09 
+7.3037263910158297e+00 -1.0318764178388011e+00 +2.2915984370104434e+00 +1.0321846531419043e+01 +1.1261794859562180e+01 +2.2085080341850704e+05 +8.6134560869814584e+05 -1.0871168267003217e+09 
+7.4037774374680998e+00 -1.0318769058379413e+00 +2.2918111331786046e+00 +1.0242631056978315e+01 +1.0814202881047546e+01 +2.2299159791905314e+05 +8.4675259078088019e+05 -1.0995283970885880e+09 
+7.5038284839203699e+00 -1.0318773987728562e+00 +2.2920156288946987e+00 +1.0167019364264958e+01 +1.0471052139229078e+01 +2.2502781941648060e+05 +8.3172260064453899e+05 -1.1113427407786937e+09 
+7.6038795303726401e+00 -1.0318778986930512e+00 +2.2922109160237296e+00 +1.0095211327059953e+01 +1.0229120947995474e+01 +2.2695720545199260e+05 +8.1640622346154589e+05 -1.1225504617463937e+09 
+7.7039305768249102e+00 -1.0318784076482774e+00 +2.2923959864031813e+00 +1.0027406928239156e+01 +1.0085187188737534e+01 +2.2877749069308076e+05 +8.0095404837863508e+05 -1.1331421485593479e+09 
+7.8039816232771804e+00 -1.0318789276884528e+00 +2.2925698318517029e+00 +9.9638062562385841e+00 +1.0036027987538301e+01 +2.3048640697479321e+05 +7.8551667061947077e+05 -1.1431083745134389e+09 
+7.9040326697294496e+00 -1.0318794608637276e+00 +2.2927314441640489e+00 +9.9046095114320476e+00 +1.0078419791923704e+01 +2.3208168315272321e+05 +7.7024469119786518e+05 -1.1524396968727584e+09 
+8.0040837161817304e+00 -1.0318800092244915e+00 +2.2928798151097225e+00 +9.8500170133600928e+00 +1.0209138356274746e+01 +2.3356104493340425e+05 +7.5528871718230459e+05 -1.1611266559839985e+09 
+8.1041347626340006e+00 -1.0318805748214008e+00 +2.2930139364327271e+00 +9.8002292038115204e+00 +1.0424958677977321e+01 +2.3492221479104858e+05 +7.4079936223284237e+05 -1.1691597748231571e+09 
+8.2041858090862707e+00 -1.0318811597052655e+00 +2.2931327998553908e+00 +9.7554466370291415e+00 +1.0722654810568638e+01 +2.3616291212749187e+05 +7.2692724792438757e+05 -1.1765295596968076e+09 
+8.3042368555385409e+00 -1.0318817659272637e+00 +2.2932353970681785e+00 +9.7158700088036944e+00 +1.1099000126719645e+01 +2.3728085268789632e+05 +7.1382300228911836e+05 -1.1832264973840308e+09 
+8.4042879019908092e+00 -1.0318823955387795e+00 +2.2933207197385457e+00 +9.6817001387222614e+00 +1.1550766967167707e+01 +2.3827374887136964e+05 +7.0163726213536132e+05 -1.1892410565526390e+09 
+8.5043389484430794e+00 -1.0318830505912957e+00 +2.2933877592903102e+00 +9.6531379523982324e+00 +1.2074740048155522e+01 +2.3913931084361696e+05 +6.9052054690959596e+05 -1.1945636984379852e+09 
+8.6043899948953602e+00 -1.0318837324986829e+00 +2.2934357919839350e+00 +9.6302954555175440e+00 +1.2669197777609108e+01 +2.3987697709215916e+05 +6.8057446486278868e+05 -1.1991944725851991e+09 
+8.7044410413476303e+00 -1.0318844402905918e+00 +2.2934652586760604e+00 +9.6129230265804360e+00 +1.3332835713715701e+01 +2.4049261914879497e+05 +6.7176896978559392e+05 -1.2031653654292367e+09 
+8.8044920877999004e+00 -1.0318851724223070e+00 +2.2934768905066210e+00 +9.6006772332632533e+00 +1.4063729472165855e+01 +2.4099367442154410e+05 +6.6405030009437527e+05 -1.2065154067570887e+09 
+8.9045431342521706e+00 -1.0318859273493806e+00 +2.2934714188402041e+00 +9.5932146642263625e+00 +1.4859945211208556e+01 +2.4138757990623955e+05 +6.5736476676270086e+05 -1.2092836236555369e+09 
+9.0045941807044407e+00 -1.0318867035275132e+00 +2.2934495752795887e+00 +9.5901919107089615e+00 +1.5719539029144231e+01 +2.4168177256498349e+05 +6.5165875813493505e+05 -1.2115090424094460e+09 
+9.1046452271567109e+00 -1.0318874994127194e+00 +2.2934120916714305e+00 +9.5912655882004465e+00 +1.6640556724921872e+01 +2.4188368890617075e+05 +6.4687874185740657e+05 -1.2132306864586449e+09 
+9.2046962736089899e+00 -1.0318883134612462e+00 +2.2933597001042383e+00 +9.5960923239470954e+00 +1.7621033755950659e+01 +2.4200076522678568e+05 +6.4297126570347673e+05 -1.2144875775380473e+09 
+9.3047473200612600e+00 -1.0318891441295717e+00 +2.2932931329296027e+00 +9.6043287569817100e+00 +1.8658994531187965e+01 +2.4204043762125770e+05 +6.3988296229577844e+05 -1.2153187357234457e+09 
+9.4047983665135302e+00 -1.0318899898744918e+00 +2.2932131227546231e+00 +9.6156315473311071e+00 +1.9752452527043328e+01 +2.4201014180089504e+05 +6.3756054902223987e+05 -1.2157631785306430e+09 
+9.5048494129658003e+00 -1.0318908491529952e+00 +2.2931204024554508e+00 +9.6296573597391291e+00 +2.0899409816842418e+01 +2.4191731341922068e+05 +6.3595083131668437e+05 -1.2158599224866781e+09 
+9.6049004594180705e+00 -1.0318917204224378e+00 +2.2930157051867250e+00 +9.6460628859249713e+00 +2.2097856689314163e+01 +2.4176938763730947e+05 +6.3500070552360720e+05 -1.2156479810019808e+09 
+9.7049515058703406e+00 -1.0318926021404029e+00 +2.2928997643773013e+00 +9.6645048234474800e+00 +2.3345771684198066e+01 +2.4157379954394128e+05 +6.3465715922658588e+05 -1.2151663663982906e+09 
+9.8050025523226108e+00 -1.0318934927647911e+00 +2.2927733137476030e+00 +9.6846398888611684e+00 +2.4641120991213104e+01 +2.4133798390109921e+05 +6.3486727537213312e+05 -1.2144540886606157e+09 
+9.9050535987748898e+00 -1.0318943907538345e+00 +2.2926370873130439e+00 +9.7061248164804770e+00 +2.5981858257585543e+01 +2.4106937516782116e+05 +6.3557823394503084e+05 -1.2135501555286100e+09 
+1.0005104645227201e+01 -1.0318952945660369e+00 +2.2924918193872865e+00 +9.7286163524788627e+00 +2.7365924406868260e+01 +2.4077540762571912e+05 +6.3673731361777429e+05 -1.2124935731050351e+09 
+1.0105155691679400e+01 -1.0318962026602407e+00 +2.2923382445916713e+00 +9.7517712599712087e+00 +2.8791247258369651e+01 +2.4046351528062226e+05 +6.3829189456606493e+05 -1.2113233453597329e+09 
