# field on trajectory
# s[mm] rx[mm] ry[mm] rz[mm] bx[T] by[T] bz[T]
0.0000000000000000e+00 +9.1013000000000002e+00 +0.0000000000000000e+00 +0.0000000000000000e+00 +1.1051181013329737e-02 -1.0310249432561471e+00 -5.8772766810203346e-02
-1.0000000000000001e-01 +9.1012994847988100e+00 +0.0000000000000000e+00 -9.9999999998230449e-02 +1.1051397894859222e-02 -1.0310251624375557e+00 -5.8771931558543357e-02
-2.0000000000000001e-01 +9.1012979391951028e+00 +0.0000000000000000e+00 -1.9999999998584361e-01 +1.1051616929049567e-02 -1.0310253147402193e+00 -5.8771099835899773e-02
-3.0000000000000004e-01 +9.1012953631887274e+00 +0.0000000000000000e+00 -2.9999999995222215e-01 +1.1051837260250353e-02 -1.0310254035839324e+00 -5.8770272047043506e-02
-4.0000000000000002e-01 +9.1012917567795935e+00 +0.0000000000000000e+00 -3.9999999988674884e-01 +1.1052058032813729e-02 -1.0310254323884676e+00 -5.8769448596720945e-02
-5.0000000000000000e-01 +9.1012871199676741e+00 +0.0000000000000000e+00 -4.9999999977880633e-01 +1.1052278391095649e-02 -1.0310254045736298e+00 -5.8768629889657115e-02
-5.9999999999999998e-01 +9.1012814527529962e+00 +0.0000000000000000e+00 -5.9999999961777728e-01 +1.1052497479457142e-02 -1.0310253235593108e+00 -5.8767816330559164e-02
-6.9999999999999996e-01 +9.1012747551356412e+00 +0.0000000000000000e+00 -6.9999999939304447e-01 +1.1052714442265566e-02 -1.0310251927655438e+00 -5.8767008324119449e-02
-7.9999999999999993e-01 +9.1012670271157408e+00 +0.0000000000000000e+00 -7.9999999909399067e-01 +1.1052928423895903e-02 -1.0310250156125595e+00 -5.8766206275019085e-02
-8.9999999999999991e-01 +9.1012582686934707e+00 +0.0000000000000000e+00 -8.9999999870999847e-01 +1.1053138568731993e-02 -1.0310247955208391e+00 -5.8765410587931027e-02
-9.9999999999999989e-01 +9.1012484798690529e+00 +0.0000000000000000e+00 -9.9999999823045072e-01 +1.1053344021167810e-02 -1.0310245359111705e+00 -5.8764621667523630e-02
-1.0999999999999999e+00 +9.1012376606427488e+00 +0.0000000000000000e+00 -1.0999999976447301e+00 +1.1053543925608738e-02 -1.0310242402047032e+00 -5.8763839918463748e-02
-1.2000000000000000e+00 +9.1012258110148530e+00 +0.0000000000000000e+00 -1.1999999969422193e+00 +1.1053737426472827e-02 -1.0310239118230007e+00 -5.8763065745420125e-02
-1.3000000000000000e+00 +9.1012129309856959e+00 +0.0000000000000000e+00 -1.2999999961123012e+00 +1.1053923668192063e-02 -1.0310235541880990e+00 -5.8762299553066777e-02
-1.4000000000000001e+00 +9.1011990205556348e+00 +0.0000000000000000e+00 -1.3999999951443585e+00 +1.1054101795213617e-02 -1.0310231707225586e+00 -5.8761541746086193e-02
-1.5000000000000002e+00 +9.1011840797250549e+00 +0.0000000000000000e+00 -1.4999999940277740e+00 +1.1054270952001156e-02 -1.0310227648495189e+00 -5.8760792729172714e-02
-1.6000000000000003e+00 +9.1011681084943632e+00 +0.0000000000000000e+00 -1.5999999927519306e+00 +1.1054430587297421e-02 -1.0310223409592942e+00 -5.8760052969759939e-02
-1.7000000000000004e+00 +9.1011511068639841e+00 +0.0000000000000000e+00 -1.6999999913062109e+00 +1.1054581366907519e-02 -1.0310219073085707e+00 -5.8759323186192189e-02
-1.8000000000000005e+00 +9.1011330748343511e+00 +0.0000000000000000e+00 -1.7999999896799981e+00 +1.1054724260911425e-02 -1.0310214731199303e+00 -5.8758604159547305e-02
-1.9000000000000006e+00 +9.1011140124058993e+00 +0.0000000000000000e+00 -1.8999999878626748e+00 +1.1054860239402227e-02 -1.0310210476150492e+00 -5.8757896670913023e-02
-2.0000000000000004e+00 +9.1010939195790570e+00 +0.0000000000000000e+00 -1.9999999858436239e+00 +1.1054990272486310e-02 -1.0310206400145370e+00 -5.8757201501388287e-02
-2.1000000000000005e+00 +9.1010727963542326e+00 +0.0000000000000000e+00 -2.0999999836122285e+00 +1.1055115330283598e-02 -1.0310202595377791e+00 -5.8756519432084799e-02
-2.2000000000000006e+00 +9.1010506427318063e+00 +0.0000000000000000e+00 -2.1999999811578710e+00 +1.1055236382927736e-02 -1.0310199154027797e+00 -5.8755851244128347e-02
-2.3000000000000007e+00 +9.1010274587121245e+00 +0.0000000000000000e+00 -2.2999999784699345e+00 +1.1055354400566333e-02 -1.0310196168260006e+00 -5.8755197718660175e-02
-2.4000000000000008e+00 +9.1010032442954873e+00 +0.0000000000000000e+00 -2.3999999755378023e+00 +1.1055470353361138e-02 -1.0310193730222044e+00 -5.8754559636838462e-02
-2.5000000000000009e+00 +9.1009779994821400e+00 +0.0000000000000000e+00 -2.4999999723508570e+00 +1.1055585211488283e-02 -1.0310191932042951e+00 -5.8753937779839692e-02
-2.6000000000000010e+00 +9.1009517242722637e+00 +0.0000000000000000e+00 -2.5999999688984814e+00 +1.1055699945138490e-02 -1.0310190865831612e+00 -5.8753332928860154e-02
-2.7000000000000011e+00 +9.1009244186659686e+00 +0.0000000000000000e+00 -2.6999999651700581e+00 +1.1055815524517258e-02 -1.0310190623675157e+00 -5.8752745865117195e-02
-2.8000000000000012e+00 +9.1008960826632794e+00 +0.0000000000000000e+00 -2.7999999611549704e+00 +1.1055932919845109e-02 -1.0310191297637377e+00 -5.8752177369850750e-02
-2.9000000000000012e+00 +9.1008667162641324e+00 +0.0000000000000000e+00 -2.8999999568426009e+00 +1.1056053101357764e-02 -1.0310192979757136e+00 -5.8751628224324656e-02
-3.0000000000000013e+00 +9.1008363194683604e+00 +0.0000000000000000e+00 -2.9999999522223324e+00 +1.1056177039306385e-02 -1.0310195762046797e+00 -5.8751099209828198e-02
-3.1000000000000014e+00 +9.1008048922756881e+00 +0.0000000000000000e+00 -3.0999999472835476e+00 +1.1056305703957761e-02 -1.0310199736490635e+00 -5.8750591107677379e-02
-3.2000000000000015e+00 +9.1007724346857213e+00 +0.0000000000000000e+00 -3.1999999420156291e+00 +1.1056440065594537e-02 -1.0310204995043240e+00 -5.8750104699216397e-02
-3.3000000000000016e+00 +9.1007389466979376e+00 +0.0000000000000000e+00 -3.2999999364079597e+00 +1.1056581094515400e-02 -1.0310211629627950e+00 -5.8749640765819060e-02
-3.4000000000000017e+00 +9.1007044283116763e+00 +0.0000000000000000e+00 -3.3999999304499222e+00 +1.1056729761035311e-02 -1.0310219732135253e+00 -5.8749200088890140e-02
-3.5000000000000018e+00 +9.1006688795261308e+00 +0.0000000000000000e+00 -3.4999999241308988e+00 +1.1056887035485687e-02 -1.0310229394421175e+00 -5.8748783449866747e-02
-3.6000000000000019e+00 +9.1006323003403384e+00 +0.0000000000000000e+00 -3.5999999174402721e+00 +1.1057053563567247e-02 -1.0310240683146241e+00 -5.8748391416424593e-02
-3.7000000000000020e+00 +9.1005946907531747e+00 +0.0000000000000000e+00 -3.6999999103674241e+00 +1.1057228692386638e-02 -1.0310253564304734e+00 -5.8748023701086456e-02
-3.8000000000000020e+00 +9.1005560507633572e+00 +0.0000000000000000e+00 -3.7999999029017375e+00 +1.1057411444366538e-02 -1.0310267978720018e+00 -5.8747679802602461e-02
-3.9000000000000021e+00 +9.1005163803694487e+00 +0.0000000000000000e+00 -3.8999998950325940e+00 +1.1057600841886551e-02 -1.0310283867206915e+00 -5.8747359219745547e-02
-4.0000000000000018e+00 +9.1004756795698682e+00 +0.0000000000000000e+00 -3.9999998867493760e+00 +1.1057795907279651e-02 -1.0310301170572183e+00 -5.8747061451312116e-02
-4.1000000000000014e+00 +9.1004339483628893e+00 +0.0000000000000000e+00 -4.0999998780414648e+00 +1.1057995662828623e-02 -1.0310319829614907e+00 -5.8746785996122382e-02
-4.2000000000000011e+00 +9.1003911867466538e+00 +0.0000000000000000e+00 -4.1999998688982432e+00 +1.1058199130762478e-02 -1.0310339785126947e+00 -5.8746532353020811e-02
-4.3000000000000007e+00 +9.1003473947191704e+00 +0.0000000000000000e+00 -4.2999998593090920e+00 +1.1058405333252910e-02 -1.0310360977893374e+00 -5.8746300020876718e-02
-4.4000000000000004e+00 +9.1003025722783288e+00 +0.0000000000000000e+00 -4.3999998492633932e+00 +1.1058613292410733e-02 -1.0310383348692889e+00 -5.8746088498584606e-02
-4.5000000000000000e+00 +9.1002567194218962e+00 +0.0000000000000000e+00 -4.4999998387505276e+00 +1.1058822030282297e-02 -1.0310406838298261e+00 -5.8745897285064713e-02
-4.5999999999999996e+00 +9.1002098361475312e+00 +0.0000000000000000e+00 -4.5999998277598779e+00 +1.1059030568845947e-02 -1.0310431387476764e+00 -5.8745725879263452e-02
-4.6999999999999993e+00 +9.1001619224527861e+00 +0.0000000000000000e+00 -4.6999998162808243e+00 +1.1059237930008438e-02 -1.0310456936990595e+00 -5.8745573780153805e-02
-4.7999999999999989e+00 +9.1001129783351136e+00 +0.0000000000000000e+00 -4.7999998043027476e+00 +1.1059443135601397e-02 -1.0310483427597303e+00 -5.8745440486735967e-02
-4.8999999999999986e+00 +9.1000630037918722e+00 +0.0000000000000000e+00 -4.8999997918150298e+00 +1.1059645207377726e-02 -1.0310510800050241e+00 -5.8745325498037543e-02
-4.9999999999999982e+00 +9.1000119988203299e+00 +0.0000000000000000e+00 -4.9999997788070507e+00 +1.1059843167008089e-02 -1.0310538995098977e+00 -5.8745228313114392e-02
-5.0999999999999979e+00 +9.0999599634176764e+00 +0.0000000000000000e+00 -5.0999997652681914e+00 +1.1060036036077289e-02 -1.0310567953489729e+00 -5.8745148431050699e-02
-5.1999999999999975e+00 +9.0999068975810236e+00 +0.0000000000000000e+00 -5.1999997511878329e+00 +1.1060222836080748e-02 -1.0310597615965804e+00 -5.8745085350959701e-02
-5.2999999999999972e+00 +9.0998528013074136e+00 +0.0000000000000000e+00 -5.2999997365553551e+00 +1.1060402588420918e-02 -1.0310627923268028e+00 -5.8745038571984078e-02
-5.3999999999999968e+00 +9.0997976745938232e+00 +0.0000000000000000e+00 -5.3999997213601389e+00 +1.1060574314403757e-02 -1.0310658816135170e+00 -5.8745007593296455e-02
-5.4999999999999964e+00 +9.0997415174371703e+00 +0.0000000000000000e+00 -5.4999997055915637e+00 +1.1060737035235109e-02 -1.0310690235304378e+00 -5.8744991914099792e-02
-5.5999999999999961e+00 +9.0996843298343233e+00 +0.0000000000000000e+00 -5.5999996892390103e+00 +1.1060890108604745e-02 -1.0310722117937410e+00 -5.8744991144316590e-02
-5.6999999999999957e+00 +9.0996261117821007e+00 +0.0000000000000000e+00 -5.6999996722918587e+00 +1.1061034238518130e-02 -1.0310754386903167e+00 -5.8745005336648962e-02
-5.7999999999999954e+00 +9.0995668632772855e+00 +0.0000000000000000e+00 -5.7999996547394881e+00 +1.1061170465634340e-02 -1.0310786961509579e+00 -5.8745034654492781e-02
-5.8999999999999950e+00 +9.0995065843166287e+00 +0.0000000000000000e+00 -5.8999996365712786e+00 +1.1061299830691880e-02 -1.0310819761080152e+00 -5.8745079261243852e-02
-5.9999999999999947e+00 +9.0994452748968602e+00 +0.0000000000000000e+00 -5.9999996177766093e+00 +1.1061423374513208e-02 -1.0310852704955022e+00 -5.8745139320296985e-02
-6.0999999999999943e+00 +9.0993829350146935e+00 +0.0000000000000000e+00 -6.0999995983448603e+00 +1.1061542138009205e-02 -1.0310885712492051e+00 -5.8745214995045078e-02
-6.1999999999999940e+00 +9.0993195646668390e+00 +0.0000000000000000e+00 -6.1999995782654107e+00 +1.1061657162183734e-02 -1.0310918703067877e+00 -5.8745306448878210e-02
-6.2999999999999936e+00 +9.0992551638500050e+00 +0.0000000000000000e+00 -6.2999995575276397e+00 +1.1061769488138102e-02 -1.0310951596079021e+00 -5.8745413845182795e-02
-6.3999999999999932e+00 +9.0991897325609123e+00 +0.0000000000000000e+00 -6.3999995361209274e+00 +1.1061880157075602e-02 -1.0310984310942926e+00 -5.8745537347340622e-02
-6.4999999999999929e+00 +9.0991232707962997e+00 +0.0000000000000000e+00 -6.4999995140346520e+00 +1.1061990210306018e-02 -1.0311016767099073e+00 -5.8745677118728072e-02
-6.5999999999999925e+00 +9.0990557785529305e+00 +0.0000000000000000e+00 -6.5999994912581927e+00 +1.1062100689250096e-02 -1.0311048884010028e+00 -5.8745833322715074e-02
-6.6999999999999922e+00 +9.0989872558276037e+00 +0.0000000000000000e+00 -6.6999994677809278e+00 +1.1062212635444107e-02 -1.0311080581162526e+00 -5.8746006122664292e-02
-6.7999999999999918e+00 +9.0989177026171593e+00 +0.0000000000000000e+00 -6.7999994435922373e+00 +1.1062327090544319e-02 -1.0311111778068556e+00 -5.8746195681930242e-02
-6.8999999999999915e+00 +9.0988471189184867e+00 +0.0000000000000000e+00 -6.8999994186814995e+00 +1.1062445096331521e-02 -1.0311142394266415e+00 -5.8746402163858326e-02
-6.9999999999999911e+00 +9.0987755047285344e+00 +0.0000000000000000e+00 -6.9999993930380926e+00 +1.1062567694715510e-02 -1.0311172349321824e+00 -5.8746625731783964e-02
-7.0999999999999908e+00 +9.0987028600443178e+00 +0.0000000000000000e+00 -7.0999993666513959e+00 +1.1062695927739626e-02 -1.0311201562828951e+00 -5.8746866549031704e-02
-7.1999999999999904e+00 +9.0986291848629257e+00 +0.0000000000000000e+00 -7.1999993395107875e+00 +1.1062830837585233e-02 -1.0311229954411534e+00 -5.8747124778914299e-02
-7.2999999999999901e+00 +9.0985544791815283e+00 +0.0000000000000000e+00 -7.2999993116056467e+00 +1.1062973466576257e-02 -1.0311257443723933e+00 -5.8747400584731775e-02
-7.3999999999999897e+00 +9.0984787429973881e+00 +0.0000000000000000e+00 -7.3999992829253518e+00 +1.1063124857183661e-02 -1.0311283950452219e+00 -5.8747694129770593e-02
-7.4999999999999893e+00 +9.0984019763078638e+00 +0.0000000000000000e+00 -7.4999992534592819e+00 +1.1063286052029962e-02 -1.0311309394315233e+00 -5.8748005577302628e-02
-7.5999999999999890e+00 +9.0983241791104206e+00 +0.0000000000000000e+00 -7.5999992231968152e+00 +1.1063457749499852e-02 -1.0311333715613051e+00 -5.8748334930937438e-02
-7.6999999999999886e+00 +9.0982453514026371e+00 +0.0000000000000000e+00 -7.6999991921273301e+00 +1.1063639270454896e-02 -1.0311356936853109e+00 -5.8748681555721730e-02
-7.7999999999999883e+00 +9.0981654931822007e+00 +0.0000000000000000e+00 -7.7999991602402057e+00 +1.1063829591296623e-02 -1.0311379101074383e+00 -5.8749044657186535e-02
-7.8999999999999879e+00 +9.0980846044469033e+00 +0.0000000000000000e+00 -7.8999991275248203e+00 +1.1064027688353821e-02 -1.0311400251293668e+00 -5.8749423441019695e-02
-7.9999999999999876e+00 +9.0980026851946398e+00 +0.0000000000000000e+00 -7.9999990939705530e+00 +1.1064232537879514e-02 -1.0311420430504843e+00 -5.8749817113070306e-02
-8.0999999999999872e+00 +9.0979197354234032e+00 +0.0000000000000000e+00 -8.0999990595667821e+00 +1.1064443116047883e-02 -1.0311439681678038e+00 -5.8750224879353372e-02
-8.1999999999999869e+00 +9.0978357551312765e+00 +0.0000000000000000e+00 -8.1999990243028869e+00 +1.1064658398951205e-02 -1.0311458047758915e+00 -5.8750645946054385e-02
-8.2999999999999865e+00 +9.0977507443164320e+00 +0.0000000000000000e+00 -8.2999989881682446e+00 +1.1064877362596809e-02 -1.0311475571667861e+00 -5.8751079519533997e-02
-8.3999999999999861e+00 +9.0976647029771289e+00 +0.0000000000000000e+00 -8.3999989511522344e+00 +1.1065098982903998e-02 -1.0311492296299203e+00 -5.8751524806332493e-02
-8.4999999999999858e+00 +9.0975776311117027e+00 +0.0000000000000000e+00 -8.4999989132442355e+00 +1.1065322235701003e-02 -1.0311508264520441e+00 -5.8751981013174429e-02
-8.5999999999999854e+00 +9.0974895287185689e+00 +0.0000000000000000e+00 -8.5999988744336271e+00 +1.1065546096721921e-02 -1.0311523519171490e+00 -5.8752447346973324e-02
-8.6999999999999851e+00 +9.0974003957962104e+00 +0.0000000000000000e+00 -8.6999988347097883e+00 +1.1065769541603675e-02 -1.0311538103063864e+00 -5.8752923014836145e-02
-8.7999999999999847e+00 +9.0973102323431778e+00 +0.0000000000000000e+00 -8.7999987940620965e+00 +1.1065991545882918e-02 -1.0311552058979929e+00 -5.8753407224067924e-02
-8.8999999999999844e+00 +9.0972190383580873e+00 +0.0000000000000000e+00 -8.8999987524799309e+00 +1.1066211084993029e-02 -1.0311565429672112e+00 -5.8753899182176481e-02
-8.9999999999999840e+00 +9.0971268138396120e+00 +0.0000000000000000e+00 -8.9999987099526706e+00 +1.1066427134261000e-02 -1.0311578257862122e+00 -5.8754398096876874e-02
-9.0999999999999837e+00 +9.0970335587864781e+00 +0.0000000000000000e+00 -9.0999986664696948e+00 +1.1066638668904420e-02 -1.0311590586240182e+00 -5.8754903176096100e-02
-9.1999999999999833e+00 +9.0969392731974636e+00 +0.0000000000000000e+00 -9.1999986220203809e+00 +1.1066844664028415e-02 -1.0311602457464244e+00 -5.8755413627977683e-02
-9.2999999999999829e+00 +9.0968439570713926e+00 +0.0000000000000000e+00 -9.2999985765941080e+00 +1.1067044094622565e-02 -1.0311613914159199e+00 -5.8755928660886275e-02
-9.3999999999999826e+00 +9.0967476104071281e+00 +0.0000000000000000e+00 -9.3999985301802553e+00 +1.1067235935557893e-02 -1.0311624998916118e+00 -5.8756447483412313e-02
-9.4999999999999822e+00 +9.0966502332035741e+00 +0.0000000000000000e+00 -9.4999984827682020e+00 +1.1067419161583785e-02 -1.0311635754291477e+00 -5.8756969304376586e-02
-9.5999999999999819e+00 +9.0965518254596649e+00 +0.0000000000000000e+00 -9.5999984343473272e+00 +1.1067593043581984e-02 -1.0311646216095833e+00 -5.8757493444037745e-02
-9.6999999999999815e+00 +9.0964523871743648e+00 +0.0000000000000000e+00 -9.6999983849070102e+00 +1.1067758037444230e-02 -1.0311656393276754e+00 -5.8758019667573033e-02
-9.7999999999999812e+00 +9.0963519183466666e+00 +0.0000000000000000e+00 -9.7999983344366282e+00 +1.1067914895370162e-02 -1.0311666288079355e+00 -5.8758547851191424e-02
-9.8999999999999808e+00 +9.0962504189755933e+00 +0.0000000000000000e+00 -9.8999982829255604e+00 +1.1068064369598198e-02 -1.0311675902761985e+00 -5.8759077870875788e-02
-9.9999999999999805e+00 +9.0961478890601946e+00 +0.0000000000000000e+00 -9.9999982303631860e+00 +1.1068207212406794e-02 -1.0311685239596728e+00 -5.8759609602375584e-02
-1.0099999999999980e+01 +9.0960443285995485e+00 +0.0000000000000000e+00 -1.0099998176738884e+01 +1.1068344176115691e-02 -1.0311694300869867e+00 -5.8760142921199549e-02
-1.0199999999999980e+01 +9.0959397375927615e+00 +0.0000000000000000e+00 -1.0199998122042034e+01 +1.1068476013087187e-02 -1.0311703088882416e+00 -5.8760677702608420e-02
-1.0299999999999979e+01 +9.0958341160389651e+00 +0.0000000000000000e+00 -1.0299998066262013e+01 +1.1068603475727383e-02 -1.0311711605950584e+00 -5.8761213821607712e-02
-1.0399999999999979e+01 +9.0957274639373189e+00 +0.0000000000000000e+00 -1.0399998009388201e+01 +1.1068727316487432e-02 -1.0311719854406307e+00 -5.8761751152940363e-02
-1.0499999999999979e+01 +9.0956197812870094e+00 +0.0000000000000000e+00 -1.0499997951409975e+01 +1.1068848287864804e-02 -1.0311727836597713e+00 -5.8762289571079492e-02
-1.0599999999999978e+01 +9.0955110680872515e+00 +0.0000000000000000e+00 -1.0599997892316717e+01 +1.1068967142404523e-02 -1.0311735554889645e+00 -5.8762828950221106e-02
-1.0699999999999978e+01 +9.0954013243372849e+00 +0.0000000000000000e+00 -1.0699997832097802e+01 +1.1069084632700447e-02 -1.0311743011664132e+00 -5.8763369164276727e-02
-1.0799999999999978e+01 +9.0952905500363759e+00 +0.0000000000000000e+00 -1.0799997770742612e+01 +1.1069201511396494e-02 -1.0311750209320911e+00 -5.8763910086866336e-02
-1.0899999999999977e+01 +9.0951787451838175e+00 +0.0000000000000000e+00 -1.0899997708240525e+01 +1.1069318531187920e-02 -1.0311757150277907e+00 -5.8764451591310843e-02
-1.0999999999999977e+01 +9.0950659097789277e+00 +0.0000000000000000e+00 -1.0999997644580919e+01 +1.1069436444822549e-02 -1.0311763836971739e+00 -5.8764993550624929e-02
-1.1099999999999977e+01 +9.0949520438210492e+00 +0.0000000000000000e+00 -1.1099997579753174e+01 +1.1069556005102050e-02 -1.0311770271858207e+00 -5.8765535837509750e-02
-1.1199999999999976e+01 +9.0948371473095531e+00 +0.0000000000000000e+00 -1.1199997513746668e+01 +1.1069677964883175e-02 -1.0311776457412800e+00 -5.8766078324345654e-02
-1.1299999999999976e+01 +9.0947212202438319e+00 +0.0000000000000000e+00 -1.1299997446550780e+01 +1.1069803077079020e-02 -1.0311782396131186e+00 -5.8766620883184864e-02
-1.1399999999999975e+01 +9.0946042626233048e+00 +0.0000000000000000e+00 -1.1399997378154890e+01 +1.1069932094660270e-02 -1.0311788090529714e+00 -5.8767163385744246e-02
-1.1499999999999975e+01 +9.0944862744474140e+00 +0.0000000000000000e+00 -1.1499997308548375e+01 +1.1070065770656451e-02 -1.0311793543145902e+00 -5.8767705703397975e-02
-1.1599999999999975e+01 +9.0943672557156283e+00 +0.0000000000000000e+00 -1.1599997237720615e+01 +1.1070204651646445e-02 -1.0311798757912507e+00 -5.8768247649665928e-02
-1.1699999999999974e+01 +9.0942472064274380e+00 +0.0000000000000000e+00 -1.1699997165660989e+01 +1.1070348458086594e-02 -1.0311803744276988e+00 -5.8768788807821652e-02
