# trajectory
# s[mm] rx[mm] ry[mm] rz[mm] px[rad] py[rad] pz[rad]
0.0000000000000000e+00 +9.1013000000000002e+00 +0.0000000000000000e+00 +0.0000000000000000e+00 +0.0000000000000000e+00 +0.0000000000000000e+00 +1.0000000000000000e+00
-1.0000000000000001e-01 +9.1012994847988100e+00 +0.0000000000000000e+00 -9.9999999998230449e-02 +1.0304024182833189e-05 +0.0000000000000000e+00 +9.9999999994691358e-01
-2.0000000000000001e-01 +9.1012979391951028e+00 +0.0000000000000000e+00 -1.9999999998584361e-01 +2.0608050218022892e-05 +0.0000000000000000e+00 +9.9999999978765419e-01
-3.0000000000000004e-01 +9.1012953631887274e+00 +0.0000000000000000e+00 -2.9999999995222215e-01 +3.0912077453180227e-05 +0.0000000000000000e+00 +9.9999999952222174e-01
-4.0000000000000002e-01 +9.1012917567795935e+00 +0.0000000000000000e+00 -3.9999999988674884e-01 +4.1216105270093437e-05 +0.0000000000000000e+00 +9.9999999915061633e-01
-5.0000000000000000e-01 +9.1012871199676741e+00 +0.0000000000000000e+00 -4.9999999977880633e-01 +5.1520133084727966e-05 +0.0000000000000000e+00 +9.9999999867283795e-01
-5.9999999999999998e-01 +9.1012814527529962e+00 +0.0000000000000000e+00 -5.9999999961777728e-01 +6.1824160347227042e-05 +0.0000000000000000e+00 +9.9999999808888662e-01
-6.9999999999999996e-01 +9.1012747551356412e+00 +0.0000000000000000e+00 -6.9999999939304447e-01 +7.2128186541912815e-05 +0.0000000000000000e+00 +9.9999999739876233e-01
-7.9999999999999993e-01 +9.1012670271157408e+00 +0.0000000000000000e+00 -7.9999999909399067e-01 +8.2432211187288048e-05 +0.0000000000000000e+00 +9.9999999660246530e-01
-8.9999999999999991e-01 +9.1012582686934707e+00 +0.0000000000000000e+00 -8.9999999870999847e-01 +9.2736233836038397e-05 +0.0000000000000000e+00 +9.9999999569999554e-01
-9.9999999999999989e-01 +9.1012484798690529e+00 +0.0000000000000000e+00 -9.9999999823045072e-01 +1.0304025407503513e-04 +0.0000000000000000e+00 +9.9999999469135303e-01
-1.0999999999999999e+00 +9.1012376606427488e+00 +0.0000000000000000e+00 -1.0999999976447301e+00 +1.1334427152533851e-04 +0.0000000000000000e+00 +9.9999999357653802e-01
-1.2000000000000000e+00 +9.1012258110148530e+00 +0.0000000000000000e+00 -1.1999999969422193e+00 +1.2364828584220168e-04 +0.0000000000000000e+00 +9.9999999235555070e-01
-1.3000000000000000e+00 +9.1012129309856959e+00 +0.0000000000000000e+00 -1.2999999961123012e+00 +1.3395229671507504e-04 +0.0000000000000000e+00 +9.9999999102839110e-01
-1.4000000000000001e+00 +9.1011990205556348e+00 +0.0000000000000000e+00 -1.3999999951443585e+00 +1.4425630386761127e-04 +0.0000000000000000e+00 +9.9999998959505942e-01
-1.5000000000000002e+00 +9.1011840797250549e+00 +0.0000000000000000e+00 -1.4999999940277740e+00 +1.5456030705767086e-04 +0.0000000000000000e+00 +9.9999998805555579e-01
-1.6000000000000003e+00 +9.1011681084943632e+00 +0.0000000000000000e+00 -1.5999999927519306e+00 +1.6486430607974307e-04 +0.0000000000000000e+00 +9.9999998640988030e-01
-1.7000000000000004e+00 +9.1011511068639841e+00 +0.0000000000000000e+00 -1.6999999913062109e+00 +1.7516830079151473e-04 +0.0000000000000000e+00 +9.9999998465803319e-01
-1.8000000000000005e+00 +9.1011330748343511e+00 +0.0000000000000000e+00 -1.7999999896799981e+00 +1.8547229114043159e-04 +0.0000000000000000e+00 +9.9999998280001456e-01
-1.9000000000000006e+00 +9.1011140124058993e+00 +0.0000000000000000e+00 -1.8999999878626748e+00 +1.9577627716610511e-04 +0.0000000000000000e+00 +9.9999998083582453e-01
-2.0000000000000004e+00 +9.1010939195790570e+00 +0.0000000000000000e+00 -1.9999999858436239e+00 +2.0608025900030263e-04 +0.0000000000000000e+00 +9.9999997876546332e-01
-2.1000000000000005e+00 +9.1010727963542326e+00 +0.0000000000000000e+00 -2.0999999836122285e+00 +2.1638423686693592e-04 +0.0000000000000000e+00 +9.9999997658893081e-01
-2.2000000000000006e+00 +9.1010506427318063e+00 +0.0000000000000000e+00 -2.1999999811578710e+00 +2.2668821108204814e-04 +0.0000000000000000e+00 +9.9999997430622722e-01
-2.3000000000000007e+00 +9.1010274587121245e+00 +0.0000000000000000e+00 -2.2999999784699345e+00 +2.3699218205379928e-04 +0.0000000000000000e+00 +9.9999997191735246e-01
-2.4000000000000008e+00 +9.1010032442954873e+00 +0.0000000000000000e+00 -2.3999999755378023e+00 +2.4729615028244988e-04 +0.0000000000000000e+00 +9.9999996942230662e-01
-2.5000000000000009e+00 +9.1009779994821400e+00 +0.0000000000000000e+00 -2.4999999723508570e+00 +2.5760011636034332e-04 +0.0000000000000000e+00 +9.9999996682108949e-01
-2.6000000000000010e+00 +9.1009517242722637e+00 +0.0000000000000000e+00 -2.5999999688984814e+00 +2.6790408097188644e-04 +0.0000000000000000e+00 +9.9999996411370107e-01
-2.7000000000000011e+00 +9.1009244186659686e+00 +0.0000000000000000e+00 -2.6999999651700581e+00 +2.7820804489352857e-04 +0.0000000000000000e+00 +9.9999996130014113e-01
-2.8000000000000012e+00 +9.1008960826632794e+00 +0.0000000000000000e+00 -2.7999999611549704e+00 +2.8851200899373901e-04 +0.0000000000000000e+00 +9.9999995838040945e-01
-2.9000000000000012e+00 +9.1008667162641324e+00 +0.0000000000000000e+00 -2.8999999568426009e+00 +2.9881597423298299e-04 +0.0000000000000000e+00 +9.9999995535450581e-01
-3.0000000000000013e+00 +9.1008363194683604e+00 +0.0000000000000000e+00 -2.9999999522223324e+00 +3.0911994166369581e-04 +0.0000000000000000e+00 +9.9999995222242977e-01
-3.1000000000000014e+00 +9.1008048922756881e+00 +0.0000000000000000e+00 -3.0999999472835476e+00 +3.1942391243025564e-04 +0.0000000000000000e+00 +9.9999994898418088e-01
-3.2000000000000015e+00 +9.1007724346857213e+00 +0.0000000000000000e+00 -3.1999999420156291e+00 +3.2972788776895474e-04 +0.0000000000000000e+00 +9.9999994563975858e-01
-3.3000000000000016e+00 +9.1007389466979376e+00 +0.0000000000000000e+00 -3.2999999364079597e+00 +3.4003186900796885e-04 +0.0000000000000000e+00 +9.9999994218916244e-01
-3.4000000000000017e+00 +9.1007044283116763e+00 +0.0000000000000000e+00 -3.3999999304499222e+00 +3.5033585756732522e-04 +0.0000000000000000e+00 +9.9999993863239167e-01
-3.5000000000000018e+00 +9.1006688795261308e+00 +0.0000000000000000e+00 -3.4999999241308988e+00 +3.6063985495886900e-04 +0.0000000000000000e+00 +9.9999993496944550e-01
-3.6000000000000019e+00 +9.1006323003403384e+00 +0.0000000000000000e+00 -3.5999999174402721e+00 +3.7094386277994193e-04 +0.0000000000000000e+00 +9.9999993120032304e-01
-3.7000000000000020e+00 +9.1005946907531747e+00 +0.0000000000000000e+00 -3.6999999103674241e+00 +3.8124788264420157e-04 +0.0000000000000000e+00 +9.9999992732502341e-01
-3.8000000000000020e+00 +9.1005560507633572e+00 +0.0000000000000000e+00 -3.7999999029017375e+00 +3.9155191611245572e-04 +0.0000000000000000e+00 +9.9999992334354559e-01
-3.9000000000000021e+00 +9.1005163803694487e+00 +0.0000000000000000e+00 -3.8999998950325940e+00 +4.0185596468636687e-04 +0.0000000000000000e+00 +9.9999991925588860e-01
-4.0000000000000018e+00 +9.1004756795698682e+00 +0.0000000000000000e+00 -3.9999998867493760e+00 +4.1216002980844403e-04 +0.0000000000000000e+00 +9.9999991506205133e-01
-4.1000000000000014e+00 +9.1004339483628893e+00 +0.0000000000000000e+00 -4.0999998780414648e+00 +4.2246411286203482e-04 +0.0000000000000000e+00 +9.9999991076203276e-01
-4.2000000000000011e+00 +9.1003911867466538e+00 +0.0000000000000000e+00 -4.1999998688982432e+00 +4.3276821517131798e-04 +0.0000000000000000e+00 +9.9999990635583169e-01
-4.3000000000000007e+00 +9.1003473947191704e+00 +0.0000000000000000e+00 -4.2999998593090920e+00 +4.4307233800129647e-04 +0.0000000000000000e+00 +9.9999990184344689e-01
-4.4000000000000004e+00 +9.1003025722783288e+00 +0.0000000000000000e+00 -4.3999998492633932e+00 +4.5337648255779078e-04 +0.0000000000000000e+00 +9.9999989722487737e-01
-4.5000000000000000e+00 +9.1002567194218962e+00 +0.0000000000000000e+00 -4.4999998387505276e+00 +4.6368064998743286e-04 +0.0000000000000000e+00 +9.9999989250012178e-01
-4.5999999999999996e+00 +9.1002098361475312e+00 +0.0000000000000000e+00 -4.5999998277598779e+00 +4.7398484137766035e-04 +0.0000000000000000e+00 +9.9999988766917891e-01
-4.6999999999999993e+00 +9.1001619224527861e+00 +0.0000000000000000e+00 -4.6999998162808243e+00 +4.8428905775671136e-04 +0.0000000000000000e+00 +9.9999988273204754e-01
-4.7999999999999989e+00 +9.1001129783351136e+00 +0.0000000000000000e+00 -4.7999998043027476e+00 +4.9459330009361964e-04 +0.0000000000000000e+00 +9.9999987768872645e-01
-4.8999999999999986e+00 +9.1000630037918722e+00 +0.0000000000000000e+00 -4.8999997918150298e+00 +5.0489756929820995e-04 +0.0000000000000000e+00 +9.9999987253921430e-01
-4.9999999999999982e+00 +9.1000119988203299e+00 +0.0000000000000000e+00 -4.9999997788070507e+00 +5.1520186622109438e-04 +0.0000000000000000e+00 +9.9999986728350987e-01
-5.0999999999999979e+00 +9.0999599634176764e+00 +0.0000000000000000e+00 -5.0999997652681914e+00 +5.2550619165366865e-04 +0.0000000000000000e+00 +9.9999986192161194e-01
-5.1999999999999975e+00 +9.0999068975810236e+00 +0.0000000000000000e+00 -5.1999997511878329e+00 +5.3581054632810879e-04 +0.0000000000000000e+00 +9.9999985645351908e-01
-5.2999999999999972e+00 +9.0998528013074136e+00 +0.0000000000000000e+00 -5.2999997365553551e+00 +5.4611493091736869e-04 +0.0000000000000000e+00 +9.9999985087923016e-01
-5.3999999999999968e+00 +9.0997976745938232e+00 +0.0000000000000000e+00 -5.3999997213601389e+00 +5.5641934603517789e-04 +0.0000000000000000e+00 +9.9999984519874385e-01
-5.4999999999999964e+00 +9.0997415174371703e+00 +0.0000000000000000e+00 -5.4999997055915637e+00 +5.6672379223603956e-04 +0.0000000000000000e+00 +9.9999983941205894e-01
-5.5999999999999961e+00 +9.0996843298343233e+00 +0.0000000000000000e+00 -5.5999996892390103e+00 +5.7702827001433602e-04 +0.0000000000000000e+00 +9.9999983351917410e-01
-5.6999999999999957e+00 +9.0996261117821007e+00 +0.0000000000000000e+00 -5.6999996722918587e+00 +5.8733277979450629e-04 +0.0000000000000000e+00 +9.9999982752008820e-01
-5.7999999999999954e+00 +9.0995668632772855e+00 +0.0000000000000000e+00 -5.7999996547394881e+00 +5.9763732192123211e-04 +0.0000000000000000e+00 +9.9999982141479993e-01
-5.8999999999999950e+00 +9.0995065843166287e+00 +0.0000000000000000e+00 -5.8999996365712786e+00 +6.0794189665855955e-04 +0.0000000000000000e+00 +9.9999981520330827e-01
-5.9999999999999947e+00 +9.0994452748968602e+00 +0.0000000000000000e+00 -5.9999996177766093e+00 +6.1824650418991511e-04 +0.0000000000000000e+00 +9.9999980888561202e-01
-6.0999999999999943e+00 +9.0993829350146935e+00 +0.0000000000000000e+00 -6.0999995983448603e+00 +6.2855114461812280e-04 +0.0000000000000000e+00 +9.9999980246171005e-01
-6.1999999999999940e+00 +9.0993195646668390e+00 +0.0000000000000000e+00 -6.1999995782654107e+00 +6.3885581796542252e-04 +0.0000000000000000e+00 +9.9999979593160138e-01
-6.2999999999999936e+00 +9.0992551638500050e+00 +0.0000000000000000e+00 -6.2999995575276397e+00 +6.4916052417348942e-04 +0.0000000000000000e+00 +9.9999978929528499e-01
-6.3999999999999932e+00 +9.0991897325609123e+00 +0.0000000000000000e+00 -6.3999995361209274e+00 +6.5946526310345409e-04 +0.0000000000000000e+00 +9.9999978255276001e-01
-6.4999999999999929e+00 +9.0991232707962997e+00 +0.0000000000000000e+00 -6.4999995140346520e+00 +6.6977003453592423e-04 +0.0000000000000000e+00 +9.9999977570402554e-01
-6.5999999999999925e+00 +9.0990557785529305e+00 +0.0000000000000000e+00 -6.5999994912581927e+00 +6.8007483817100712e-04 +0.0000000000000000e+00 +9.9999976874908081e-01
-6.6999999999999922e+00 +9.0989872558276037e+00 +0.0000000000000000e+00 -6.6999994677809278e+00 +6.9037967362833321e-04 +0.0000000000000000e+00 +9.9999976168792504e-01
-6.7999999999999918e+00 +9.0989177026171593e+00 +0.0000000000000000e+00 -6.7999994435922373e+00 +7.0068454044708089e-04 +0.0000000000000000e+00 +9.9999975452055756e-01
-6.8999999999999915e+00 +9.0988471189184867e+00 +0.0000000000000000e+00 -6.8999994186814995e+00 +7.1098943808600213e-04 +0.0000000000000000e+00 +9.9999974724697782e-01
-6.9999999999999911e+00 +9.0987755047285344e+00 +0.0000000000000000e+00 -6.9999993930380926e+00 +7.2129436592344946e-04 +0.0000000000000000e+00 +9.9999973986718527e-01
-7.0999999999999908e+00 +9.0987028600443178e+00 +0.0000000000000000e+00 -7.0999993666513959e+00 +7.3159932325740390e-04 +0.0000000000000000e+00 +9.9999973238117956e-01
-7.1999999999999904e+00 +9.0986291848629257e+00 +0.0000000000000000e+00 -7.1999993395107875e+00 +7.4190430930550389e-04 +0.0000000000000000e+00 +9.9999972478896026e-01
-7.2999999999999901e+00 +9.0985544791815283e+00 +0.0000000000000000e+00 -7.2999993116056467e+00 +7.5220932320507533e-04 +0.0000000000000000e+00 +9.9999971709052726e-01
-7.3999999999999897e+00 +9.0984787429973881e+00 +0.0000000000000000e+00 -7.3999992829253518e+00 +7.6251436401316287e-04 +0.0000000000000000e+00 +9.9999970928588033e-01
-7.4999999999999893e+00 +9.0984019763078638e+00 +0.0000000000000000e+00 -7.4999992534592819e+00 +7.7281943070656200e-04 +0.0000000000000000e+00 +9.9999970137501948e-01
-7.5999999999999890e+00 +9.0983241791104206e+00 +0.0000000000000000e+00 -7.5999992231968152e+00 +7.8312452218698620e-04 +0.0000000000000000e+00 +9.9999969335794470e-01
-7.6999999999999886e+00 +9.0982453514026371e+00 +0.0000000000000000e+00 -7.6999991921273301e+00 +7.9342963733756706e-04 +0.0000000000000000e+00 +9.9999968523465610e-01
-7.7999999999999883e+00 +9.0981654931822007e+00 +0.0000000000000000e+00 -7.7999991602402057e+00 +8.0373477507932490e-04 +0.0000000000000000e+00 +9.9999967700515380e-01
-7.8999999999999879e+00 +9.0980846044469033e+00 +0.0000000000000000e+00 -7.8999991275248203e+00 +8.1403993437628198e-04 +0.0000000000000000e+00 +9.9999966866943801e-01
-7.9999999999999876e+00 +9.0980026851946398e+00 +0.0000000000000000e+00 -7.9999990939705530e+00 +8.2434511423543999e-04 +0.0000000000000000e+00 +9.9999966022750886e-01
-8.0999999999999872e+00 +9.0979197354234032e+00 +0.0000000000000000e+00 -8.0999990595667821e+00 +8.3465031370675679e-04 +0.0000000000000000e+00 +9.9999965167936655e-01
-8.1999999999999869e+00 +9.0978357551312765e+00 +0.0000000000000000e+00 -8.1999990243028869e+00 +8.4495553188312217e-04 +0.0000000000000000e+00 +9.9999964302501121e-01
-8.2999999999999865e+00 +9.0977507443164320e+00 +0.0000000000000000e+00 -8.2999989881682446e+00 +8.5526076790033310e-04 +0.0000000000000000e+00 +9.9999963426444294e-01
-8.3999999999999861e+00 +9.0976647029771289e+00 +0.0000000000000000e+00 -8.3999989511522344e+00 +8.6556602093706817e-04 +0.0000000000000000e+00 +9.9999962539766196e-01
-8.4999999999999858e+00 +9.0975776311117027e+00 +0.0000000000000000e+00 -8.4999989132442355e+00 +8.7587129021486089e-04 +0.0000000000000000e+00 +9.9999961642466839e-01
-8.5999999999999854e+00 +9.0974895287185689e+00 +0.0000000000000000e+00 -8.5999988744336271e+00 +8.8617657499807283e-04 +0.0000000000000000e+00 +9.9999960734546234e-01
-8.6999999999999851e+00 +9.0974003957962104e+00 +0.0000000000000000e+00 -8.6999988347097883e+00 +8.9648187459386540e-04 +0.0000000000000000e+00 +9.9999959816004402e-01
-8.7999999999999847e+00 +9.0973102323431778e+00 +0.0000000000000000e+00 -8.7999987940620965e+00 +9.0678718835217114e-04 +0.0000000000000000e+00 +9.9999958886841356e-01
-8.8999999999999844e+00 +9.0972190383580873e+00 +0.0000000000000000e+00 -8.8999987524799309e+00 +9.1709251566566424e-04 +0.0000000000000000e+00 +9.9999957947057094e-01
-8.9999999999999840e+00 +9.0971268138396120e+00 +0.0000000000000000e+00 -8.9999987099526706e+00 +9.2739785596973015e-04 +0.0000000000000000e+00 +9.9999956996651640e-01
-9.0999999999999837e+00 +9.0970335587864781e+00 +0.0000000000000000e+00 -9.0999986664696948e+00 +9.3770320874243470e-04 +0.0000000000000000e+00 +9.9999956035625004e-01
-9.1999999999999833e+00 +9.0969392731974636e+00 +0.0000000000000000e+00 -9.1999986220203809e+00 +9.4800857350449202e-04 +0.0000000000000000e+00 +9.9999955063977186e-01
-9.2999999999999829e+00 +9.0968439570713926e+00 +0.0000000000000000e+00 -9.2999985765941080e+00 +9.5831394981923197e-04 +0.0000000000000000e+00 +9.9999954081708187e-01
-9.3999999999999826e+00 +9.0967476104071281e+00 +0.0000000000000000e+00 -9.3999985301802553e+00 +9.6861933729256659e-04 +0.0000000000000000e+00 +9.9999953088818017e-01
-9.4999999999999822e+00 +9.0966502332035741e+00 +0.0000000000000000e+00 -9.4999984827682020e+00 +9.7892473557295622e-04 +0.0000000000000000e+00 +9.9999952085306676e-01
-9.5999999999999819e+00 +9.0965518254596649e+00 +0.0000000000000000e+00 -9.5999984343473272e+00 +9.8923014434969757e-04 +0.0000000000000000e+00 +9.9999951071174153e-01
-9.6999999999999815e+00 +9.0964523871743648e+00 +0.0000000000000000e+00 -9.6999983849070102e+00 +9.9953556333445023e-04 +0.0000000000000000e+00 +9.9999950046420449e-01
-9.7999999999999812e+00 +9.0963519183466666e+00 +0.0000000000000000e+00 -9.7999983344366282e+00 +1.0098409922427889e-03 +0.0000000000000000e+00 +9.9999949011045564e-01
-9.8999999999999808e+00 +9.0962504189755933e+00 +0.0000000000000000e+00 -9.8999982829255604e+00 +1.0201464307925383e-03 +0.0000000000000000e+00 +9.9999947965049496e-01
-9.9999999999999805e+00 +9.0961478890601946e+00 +0.0000000000000000e+00 -9.9999982303631860e+00 +1.0304518787037874e-03 +0.0000000000000000e+00 +9.9999946908432236e-01
-1.0099999999999980e+01 +9.0960443285995485e+00 +0.0000000000000000e+00 -1.0099998176738884e+01 +1.0407573356989027e-03 +0.0000000000000000e+00 +9.9999945841193794e-01
-1.0199999999999980e+01 +9.0959397375927615e+00 +0.0000000000000000e+00 -1.0199998122042034e+01 +1.0510628015025429e-03 +0.0000000000000000e+00 +9.9999944763334159e-01
-1.0299999999999979e+01 +9.0958341160389651e+00 +0.0000000000000000e+00 -1.0299998066262013e+01 +1.0613682758416740e-03 +0.0000000000000000e+00 +9.9999943674853342e-01
-1.0399999999999979e+01 +9.0957274639373189e+00 +0.0000000000000000e+00 -1.0399998009388201e+01 +1.0716737584455845e-03 +0.0000000000000000e+00 +9.9999942575751333e-01
-1.0499999999999979e+01 +9.0956197812870094e+00 +0.0000000000000000e+00 -1.0499997951409975e+01 +1.0819792490459018e-03 +0.0000000000000000e+00 +9.9999941466028153e-01
-1.0599999999999978e+01 +9.0955110680872515e+00 +0.0000000000000000e+00 -1.0599997892316717e+01 +1.0922847473766079e-03 +0.0000000000000000e+00 +9.9999940345683791e-01
-1.0699999999999978e+01 +9.0954013243372849e+00 +0.0000000000000000e+00 -1.0699997832097802e+01 +1.1025902531740569e-03 +0.0000000000000000e+00 +9.9999939214718259e-01
-1.0799999999999978e+01 +9.0952905500363759e+00 +0.0000000000000000e+00 -1.0799997770742612e+01 +1.1128957661769923e-03 +0.0000000000000000e+00 +9.9999938073131556e-01
-1.0899999999999977e+01 +9.0951787451838175e+00 +0.0000000000000000e+00 -1.0899997708240525e+01 +1.1232012861265653e-03 +0.0000000000000000e+00 +9.9999936920923693e-01
-1.0999999999999977e+01 +9.0950659097789277e+00 +0.0000000000000000e+00 -1.0999997644580919e+01 +1.1335068127663523e-03 +0.0000000000000000e+00 +9.9999935758094682e-01
-1.1099999999999977e+01 +9.0949520438210492e+00 +0.0000000000000000e+00 -1.1099997579753174e+01 +1.1438123458423748e-03 +0.0000000000000000e+00 +9.9999934584644523e-01
-1.1199999999999976e+01 +9.0948371473095531e+00 +0.0000000000000000e+00 -1.1199997513746668e+01 +1.1541178851031183e-03 +0.0000000000000000e+00 +9.9999933400573227e-01
-1.1299999999999976e+01 +9.0947212202438319e+00 +0.0000000000000000e+00 -1.1299997446550780e+01 +1.1644234302995522e-03 +0.0000000000000000e+00 +9.9999932205880804e-01
-1.1399999999999975e+01 +9.0946042626233048e+00 +0.0000000000000000e+00 -1.1399997378154890e+01 +1.1747289811851506e-03 +0.0000000000000000e+00 +9.9999931000567266e-01
-1.1499999999999975e+01 +9.0944862744474140e+00 +0.0000000000000000e+00 -1.1499997308548375e+01 +1.1850345375159128e-03 +0.0000000000000000e+00 +9.9999929784632624e-01
-1.1599999999999975e+01 +9.0943672557156283e+00 +0.0000000000000000e+00 -1.1599997237720615e+01 +1.1953400990507282e-03 +0.0000000000000000e+00 +9.9999928558076889e-01
-1.1699999999999974e+01 +9.0942472064274380e+00 +0.0000000000000000e+00 -1.1699997165660989e+01 +1.2056456655551724e-03 +0.0000000000000000e+00 +9.9999927320900073e-01
