# field on trajectory
# s[mm] rx[mm] ry[mm] rz[mm] bx[T] by[T] bz[T]
0.0000000000000000e+00 +9.1449999999999996e+00 +0.0000000000000000e+00 +0.0000000000000000e+00 +1.1094172281659107e-02 -1.0315475837260941e+00 -5.9225523324763087e-02
-1.0000000000000001e-01 +9.1449994845832130e+00 +0.0000000000000000e+00 -9.9999999998228978e-02 +1.1094269923165076e-02 -1.0315463433620420e+00 -5.9226008855059832e-02
-2.0000000000000001e-01 +9.1449979383336881e+00 +0.0000000000000000e+00 -1.9999999998583179e-01 +1.1094363226716343e-02 -1.0315450487473132e+00 -5.9226491598967056e-02
-3.0000000000000004e-01 +9.1449953612527199e+00 +0.0000000000000000e+00 -2.9999999995218229e-01 +1.1094452469017418e-02 -1.0315436984674942e+00 -5.9226971418468062e-02
-4.0000000000000002e-01 +9.1449917533416567e+00 +0.0000000000000000e+00 -3.9999999988665441e-01 +1.1094537926775016e-02 -1.0315422911076668e+00 -5.9227448175563226e-02
-5.0000000000000000e-01 +9.1449871146019053e+00 +0.0000000000000000e+00 -4.9999999977862214e-01 +1.1094619876699506e-02 -1.0315408252524076e+00 -5.9227921732261213e-02
-5.9999999999999998e-01 +9.1449814450349329e+00 +0.0000000000000000e+00 -5.9999999961745942e-01 +1.1094698595506382e-02 -1.0315392994857819e+00 -5.9228391950570593e-02
-6.9999999999999996e-01 +9.1449747446422638e+00 +0.0000000000000000e+00 -6.9999999939254032e-01 +1.1094774359917712e-02 -1.0315377123913443e+00 -5.9228858692491219e-02
-7.9999999999999993e-01 +9.1449670134254841e+00 +0.0000000000000000e+00 -7.9999999909323904e-01 +1.1094847446663591e-02 -1.0315360625521317e+00 -5.9229321820005607e-02
-8.9999999999999991e-01 +9.1449582513862460e+00 +0.0000000000000000e+00 -8.9999999870892966e-01 +1.1094918132483624e-02 -1.0315343485506638e+00 -5.9229781195070393e-02
-9.9999999999999989e-01 +9.1449484585262617e+00 +0.0000000000000000e+00 -9.9999999822898633e-01 +1.1094986694128353e-02 -1.0315325689689387e+00 -5.9230236679607813e-02
-1.0999999999999999e+00 +9.1449376348473095e+00 +0.0000000000000000e+00 -1.0999999976427834e+00 +1.1095053408360735e-02 -1.0315307223884294e+00 -5.9230688135497048e-02
-1.2000000000000000e+00 +9.1449257803512367e+00 +0.0000000000000000e+00 -1.1999999969396953e+00 +1.1095118551957606e-02 -1.0315288073900823e+00 -5.9231135424565748e-02
-1.3000000000000000e+00 +9.1449128950399601e+00 +0.0000000000000000e+00 -1.2999999961090962e+00 +1.1095182401711114e-02 -1.0315268225543126e+00 -5.9231578408581377e-02
-1.4000000000000001e+00 +9.1448989789154638e+00 +0.0000000000000000e+00 -1.3999999951403608e+00 +1.1095245234430213e-02 -1.0315247664610026e+00 -5.9232016949242745e-02
-1.5000000000000002e+00 +9.1448840319798030e+00 +0.0000000000000000e+00 -1.4999999940228637e+00 +1.1095307326942075e-02 -1.0315226376894979e+00 -5.9232450908171280e-02
-1.6000000000000003e+00 +9.1448680542351077e+00 +0.0000000000000000e+00 -1.5999999927459794e+00 +1.1095368923285203e-02 -1.0315204370575632e+00 -5.9232880096073789e-02
-1.7000000000000004e+00 +9.1448510456835770e+00 +0.0000000000000000e+00 -1.6999999912990824e+00 +1.1095430136277291e-02 -1.0315181743383810e+00 -5.9233304120258866e-02
-1.8000000000000005e+00 +9.1448330063274721e+00 +0.0000000000000000e+00 -1.7999999896715477e+00 +1.1095491045925568e-02 -1.0315158615439199e+00 -5.9233722537137337e-02
-1.9000000000000006e+00 +9.1448139361691076e+00 +0.0000000000000000e+00 -1.8999999878527503e+00 +1.1095551732231031e-02 -1.0315135106860605e+00 -5.9234134903050573e-02
-2.0000000000000004e+00 +9.1447938352108320e+00 +0.0000000000000000e+00 -1.9999999858320650e+00 +1.1095612275186063e-02 -1.0315111337766498e+00 -5.9234540774267222e-02
-2.1000000000000005e+00 +9.1447727034550219e+00 +0.0000000000000000e+00 -2.0999999835988667e+00 +1.1095672754772129e-02 -1.0315087428275560e+00 -5.9234939706979725e-02
-2.2000000000000006e+00 +9.1447505409040684e+00 +0.0000000000000000e+00 -2.1999999811425308e+00 +1.1095733250957411e-02 -1.0315063498507209e+00 -5.9235331257301127e-02
-2.3000000000000007e+00 +9.1447273475603641e+00 +0.0000000000000000e+00 -2.2999999784524321e+00 +1.1095793843694517e-02 -1.0315039668582171e+00 -5.9235714981261768e-02
-2.4000000000000008e+00 +9.1447031234262912e+00 +0.0000000000000000e+00 -2.3999999755179457e+00 +1.1095854612918120e-02 -1.0315016058623014e+00 -5.9236090434805974e-02
-2.5000000000000009e+00 +9.1446778685042105e+00 +0.0000000000000000e+00 -2.4999999723284474e+00 +1.1095915638542616e-02 -1.0314992788754684e+00 -5.9236457173788677e-02
-2.6000000000000010e+00 +9.1446515827964490e+00 +0.0000000000000000e+00 -2.5999999688733126e+00 +1.1095977000459835e-02 -1.0314969979105058e+00 -5.9236814753972154e-02
-2.7000000000000011e+00 +9.1446242663052892e+00 +0.0000000000000000e+00 -2.6999999651419162e+00 +1.1096038778536656e-02 -1.0314947749805496e+00 -5.9237162731022856e-02
-2.8000000000000012e+00 +9.1445959190329535e+00 +0.0000000000000000e+00 -2.7999999611236341e+00 +1.1096101052612708e-02 -1.0314926220991361e+00 -5.9237500660507821e-02
-2.9000000000000012e+00 +9.1445665409815948e+00 +0.0000000000000000e+00 -2.8999999568078421e+00 +1.1096163902498036e-02 -1.0314905512802592e+00 -5.9237828097891597e-02
-3.0000000000000013e+00 +9.1445361321532861e+00 +0.0000000000000000e+00 -2.9999999521839151e+00 +1.1096227407970748e-02 -1.0314885745384219e+00 -5.9238144598532848e-02
-3.1000000000000014e+00 +9.1445046925500044e+00 +0.0000000000000000e+00 -3.0999999472412290e+00 +1.1096291648774704e-02 -1.0314867038886937e+00 -5.9238449717681059e-02
-3.2000000000000015e+00 +9.1444722221736203e+00 +0.0000000000000000e+00 -3.1999999419691596e+00 +1.1096356704617191e-02 -1.0314849513467621e+00 -5.9238743010473258e-02
-3.3000000000000016e+00 +9.1444387210258888e+00 +0.0000000000000000e+00 -3.2999999363570822e+00 +1.1096422655166556e-02 -1.0314833289289880e+00 -5.9239024031930682e-02
-3.4000000000000017e+00 +9.1444041891084336e+00 +0.0000000000000000e+00 -3.3999999303943729e+00 +1.1096489580049922e-02 -1.0314818486524611e+00 -5.9239292336955462e-02
-3.5000000000000018e+00 +9.1443686264227360e+00 +0.0000000000000000e+00 -3.4999999240704067e+00 +1.1096557558850815e-02 -1.0314805225350521e+00 -5.9239547480327372e-02
-3.6000000000000019e+00 +9.1443320329701248e+00 +0.0000000000000000e+00 -3.5999999173745598e+00 +1.1096626585722264e-02 -1.0314793579837045e+00 -5.9239789251364014e-02
-3.7000000000000020e+00 +9.1442944087517670e+00 +0.0000000000000000e+00 -3.6999999102962078e+00 +1.1096696313258018e-02 -1.0314783439590227e+00 -5.9240018378009178e-02
-3.8000000000000020e+00 +9.1442557537686842e+00 +0.0000000000000000e+00 -3.7999999028247262e+00 +1.1096766308696325e-02 -1.0314774648103970e+00 -5.9240235823020466e-02
-3.9000000000000021e+00 +9.1442160680217572e+00 +0.0000000000000000e+00 -3.8999998949494907e+00 +1.1096836139315145e-02 -1.0314767048877873e+00 -5.9240442549345518e-02
-4.0000000000000018e+00 +9.1441753515117536e+00 +0.0000000000000000e+00 -3.9999998866598769e+00 +1.1096905372435574e-02 -1.0314760485417478e+00 -5.9240639520138964e-02
-4.1000000000000014e+00 +9.1441336042393342e+00 +0.0000000000000000e+00 -4.0999998779452600e+00 +1.1096973575425328e-02 -1.0314754801234571e+00 -5.9240827698779606e-02
-4.2000000000000011e+00 +9.1440908262050726e+00 +0.0000000000000000e+00 -4.1999998687950155e+00 +1.1097040315702168e-02 -1.0314749839847441e+00 -5.9241008048887309e-02
-4.3000000000000007e+00 +9.1440470174094699e+00 +0.0000000000000000e+00 -4.2999998591985191e+00 +1.1097105160737393e-02 -1.0314745444781179e+00 -5.9241181534340132e-02
-4.4000000000000004e+00 +9.1440021778529719e+00 +0.0000000000000000e+00 -4.3999998491451464e+00 +1.1097167678059237e-02 -1.0314741459567922e+00 -5.9241349119291339e-02
-4.5000000000000000e+00 +9.1439563075359818e+00 +0.0000000000000000e+00 -4.4999998386242730e+00 +1.1097227435256382e-02 -1.0314737727747174e+00 -5.9241511768186421e-02
-4.5999999999999996e+00 +9.1439094064588797e+00 +0.0000000000000000e+00 -4.5999998276252745e+00 +1.1097283999981377e-02 -1.0314734092866065e+00 -5.9241670445780187e-02
-4.6999999999999993e+00 +9.1438614746220352e+00 +0.0000000000000000e+00 -4.6999998161375265e+00 +1.1097336939954077e-02 -1.0314730398479623e+00 -5.9241826117153729e-02
-4.7999999999999989e+00 +9.1438125120258231e+00 +0.0000000000000000e+00 -4.7999998041504037e+00 +1.1097385822965133e-02 -1.0314726488151076e+00 -5.9241979747731502e-02
-4.8999999999999986e+00 +9.1437625186706413e+00 +0.0000000000000000e+00 -4.8999997916532827e+00 +1.1097430216879426e-02 -1.0314722205452105e+00 -5.9242132303298362e-02
-4.9999999999999982e+00 +9.1437114945569249e+00 +0.0000000000000000e+00 -4.9999997786355381e+00 +1.1097469689639513e-02 -1.0314717393963158e+00 -5.9242284750016576e-02
-5.0999999999999979e+00 +9.1436594396851607e+00 +0.0000000000000000e+00 -5.0999997650865465e+00 +1.1097503809269074e-02 -1.0314711897273723e+00 -5.9242438054442847e-02
-5.1999999999999975e+00 +9.1436063540559047e+00 +0.0000000000000000e+00 -5.1999997509956826e+00 +1.1097532143876401e-02 -1.0314705558982593e+00 -5.9242593183545439e-02
-5.2999999999999972e+00 +9.1435522376697982e+00 +0.0000000000000000e+00 -5.2999997363523228e+00 +1.1097554261657807e-02 -1.0314698222698178e+00 -5.9242751104721061e-02
-5.3999999999999968e+00 +9.1434970905275801e+00 +0.0000000000000000e+00 -5.3999997211458428e+00 +1.1097569730901081e-02 -1.0314689732038771e+00 -5.9242912785811987e-02
-5.4999999999999964e+00 +9.1434409126301066e+00 +0.0000000000000000e+00 -5.4999997053656182e+00 +1.1097578119988977e-02 -1.0314679930632844e+00 -5.9243079195123144e-02
-5.5999999999999961e+00 +9.1433837039783636e+00 +0.0000000000000000e+00 -5.5999996890010246e+00 +1.1097579191004103e-02 -1.0314668705216086e+00 -5.9243251107001460e-02
-5.6999999999999957e+00 +9.1433254645734792e+00 +0.0000000000000000e+00 -5.6999996720414394e+00 +1.1097573480491970e-02 -1.0314656114918730e+00 -5.9243428518304803e-02
-5.7999999999999954e+00 +9.1432661944167162e+00 +0.0000000000000000e+00 -5.7999996544762382e+00 +1.1097561718562896e-02 -1.0314642261966365e+00 -5.9243611231320881e-02
-5.8999999999999950e+00 +9.1432058935094656e+00 +0.0000000000000000e+00 -5.8999996362947966e+00 +1.1097544635271073e-02 -1.0314627248580905e+00 -5.9243799048139117e-02
-5.9999999999999947e+00 +9.1431445618532319e+00 +0.0000000000000000e+00 -5.9999996174864920e+00 +1.1097522960611190e-02 -1.0314611176980253e+00 -5.9243991770637459e-02
-6.0999999999999943e+00 +9.1430821994496281e+00 +0.0000000000000000e+00 -6.0999995980407009e+00 +1.1097497424514989e-02 -1.0314594149377958e+00 -5.9244189200468908e-02
-6.1999999999999940e+00 +9.1430188063003612e+00 +0.0000000000000000e+00 -6.1999995779467998e+00 +1.1097468756847858e-02 -1.0314576267982869e+00 -5.9244391139048232e-02
-6.2999999999999936e+00 +9.1429543824072237e+00 +0.0000000000000000e+00 -6.2999995571941652e+00 +1.1097437687405424e-02 -1.0314557634998769e+00 -5.9244597387538615e-02
-6.3999999999999932e+00 +9.1428889277720824e+00 +0.0000000000000000e+00 -6.3999995357721735e+00 +1.1097404945910137e-02 -1.0314538352624048e+00 -5.9244807746838414e-02
-6.4999999999999929e+00 +9.1428224423968718e+00 +0.0000000000000000e+00 -6.4999995136702031e+00 +1.1097371262007846e-02 -1.0314518523051330e+00 -5.9245022017567629e-02
-6.5999999999999925e+00 +9.1427549262835797e+00 +0.0000000000000000e+00 -6.5999994908776305e+00 +1.1097337365264413e-02 -1.0314498248467145e+00 -5.9245240000054787e-02
-6.6999999999999922e+00 +9.1426863794342381e+00 +0.0000000000000000e+00 -6.6999994673838321e+00 +1.1097303985162260e-02 -1.0314477631051571e+00 -5.9245461494323463e-02
-6.7999999999999918e+00 +9.1426168018509131e+00 +0.0000000000000000e+00 -6.7999994431781863e+00 +1.1097271851096992e-02 -1.0314456772977867e+00 -5.9245686300078947e-02
-6.8999999999999915e+00 +9.1425461935356971e+00 +0.0000000000000000e+00 -6.8999994182500695e+00 +1.1097241692373968e-02 -1.0314435776412136e+00 -5.9245914216695020e-02
-6.9999999999999911e+00 +9.1424745544906934e+00 +0.0000000000000000e+00 -6.9999993925888599e+00 +1.1097214238204875e-02 -1.0314414743512978e+00 -5.9246145043200429e-02
-7.0999999999999908e+00 +9.1424018847180122e+00 +0.0000000000000000e+00 -7.0999993661839342e+00 +1.1097190217704360e-02 -1.0314393776431119e+00 -5.9246378578265771e-02
-7.1999999999999904e+00 +9.1423281842197532e+00 +0.0000000000000000e+00 -7.1999993390246706e+00 +1.1097170359886560e-02 -1.0314372977309083e+00 -5.9246614620189972e-02
-7.2999999999999901e+00 +9.1422534529980037e+00 +0.0000000000000000e+00 -7.2999993111004464e+00 +1.1097155393661722e-02 -1.0314352448280795e+00 -5.9246852966887045e-02
-7.3999999999999897e+00 +9.1421776910548225e+00 +0.0000000000000000e+00 -7.3999992824006391e+00 +1.1097146047832790e-02 -1.0314332291471262e+00 -5.9247093415872691e-02
-7.4999999999999893e+00 +9.1421008983922309e+00 +0.0000000000000000e+00 -7.4999992529146269e+00 +1.1097143051091997e-02 -1.0314312608996226e+00 -5.9247335764251084e-02
-7.5999999999999890e+00 +9.1420230750122027e+00 +0.0000000000000000e+00 -7.5999992226317872e+00 +1.1097146900302276e-02 -1.0314293486690849e+00 -5.9247579767036145e-02
-7.6999999999999886e+00 +9.1419442209166561e+00 +0.0000000000000000e+00 -7.6999991915414974e+00 +1.1097157165388031e-02 -1.0314274945302984e+00 -5.9247825012336088e-02
-7.7999999999999883e+00 +9.1418643361074547e+00 +0.0000000000000000e+00 -7.7999991596331357e+00 +1.1097173184595873e-02 -1.0314256989320230e+00 -5.9248071046691324e-02
-7.8999999999999879e+00 +9.1417834205863997e+00 +0.0000000000000000e+00 -7.8999991268960796e+00 +1.1097194296237487e-02 -1.0314239623243897e+00 -5.9248317416795905e-02
-7.9999999999999876e+00 +9.1417014743552354e+00 +0.0000000000000000e+00 -7.9999990933197074e+00 +1.1097219838692111e-02 -1.0314222851589419e+00 -5.9248563669503568e-02
-8.0999999999999872e+00 +9.1416184974156458e+00 +0.0000000000000000e+00 -8.0999990588933954e+00 +1.1097249150409013e-02 -1.0314206678886768e+00 -5.9248809351833617e-02
-8.1999999999999869e+00 +9.1415344897692563e+00 +0.0000000000000000e+00 -8.1999990236065230e+00 +1.1097281569910016e-02 -1.0314191109680875e+00 -5.9249054010976999e-02
-8.2999999999999865e+00 +9.1414494514176319e+00 +0.0000000000000000e+00 -8.2999989874484683e+00 +1.1097316435791964e-02 -1.0314176148532024e+00 -5.9249297194302324e-02
-8.3999999999999861e+00 +9.1413633823622753e+00 +0.0000000000000000e+00 -8.3999989504086070e+00 +1.1097353086729232e-02 -1.0314161800016284e+00 -5.9249538449361767e-02
-8.4999999999999858e+00 +9.1412762826046308e+00 +0.0000000000000000e+00 -8.4999989124763182e+00 +1.1097390861476186e-02 -1.0314148068725901e+00 -5.9249777323897128e-02
-8.5999999999999854e+00 +9.1411881521460803e+00 +0.0000000000000000e+00 -8.5999988736409794e+00 +1.1097429098869708e-02 -1.0314134959269743e+00 -5.9250013365845823e-02
-8.6999999999999851e+00 +9.1410989909879419e+00 +0.0000000000000000e+00 -8.6999988338919678e+00 +1.1097467137831659e-02 -1.0314122476273675e+00 -5.9250246123346874e-02
-8.7999999999999847e+00 +9.1410087991314732e+00 +0.0000000000000000e+00 -8.7999987932186627e+00 +1.1097504317371375e-02 -1.0314110624380997e+00 -5.9250475144746864e-02
-8.8999999999999844e+00 +9.1409175765778681e+00 +0.0000000000000000e+00 -8.8999987516104397e+00 +1.1097539976588156e-02 -1.0314099408252853e+00 -5.9250699978606026e-02
-8.9999999999999840e+00 +9.1408253233282579e+00 +0.0000000000000000e+00 -8.9999987090566780e+00 +1.1097573454673736e-02 -1.0314088832568635e+00 -5.9250920173704140e-02
-9.0999999999999837e+00 +9.1407320393837068e+00 +0.0000000000000000e+00 -9.0999986655467549e+00 +1.1097604090914781e-02 -1.0314078902026398e+00 -5.9251135279046602e-02
-9.1999999999999833e+00 +9.1406377247452184e+00 +0.0000000000000000e+00 -9.1999986210700477e+00 +1.1097631224695389e-02 -1.0314069621343285e+00 -5.9251344843870360e-02
-9.2999999999999829e+00 +9.1405423794137306e+00 +0.0000000000000000e+00 -9.2999985756159340e+00 +1.1097654195499513e-02 -1.0314060995255914e+00 -5.9251548417649944e-02
-9.3999999999999826e+00 +9.1404460033901156e+00 +0.0000000000000000e+00 -9.3999985291737911e+00 +1.1097672342913511e-02 -1.0314053028520815e+00 -5.9251745550103492e-02
-9.4999999999999822e+00 +9.1403485966751781e+00 +0.0000000000000000e+00 -9.4999984817329963e+00 +1.1097685006628579e-02 -1.0314045725914835e+00 -5.9251935791198675e-02
-9.5999999999999819e+00 +9.1402501592696606e+00 +0.0000000000000000e+00 -9.5999984332829271e+00 +1.1097691696869420e-02 -1.0314039083798070e+00 -5.9252118783265639e-02
-9.6999999999999815e+00 +9.1401506911742363e+00 +0.0000000000000000e+00 -9.6999983838129626e+00 +1.1097692605607905e-02 -1.0314033064781281e+00 -5.9252294537136686e-02
-9.7999999999999812e+00 +9.1400501923895163e+00 +0.0000000000000000e+00 -9.7999983333124785e+00 +1.1097688095096092e-02 -1.0314027623005493e+00 -5.9252463155459789e-02
-9.8999999999999808e+00 +9.1399486629160585e+00 +0.0000000000000000e+00 -9.8999982817708521e+00 +1.1097678527395219e-02 -1.0314022712574440e+00 -5.9252624740523271e-02
-9.9999999999999805e+00 +9.1398461027543618e+00 +0.0000000000000000e+00 -9.9999982291774625e+00 +1.1097664264370578e-02 -1.0314018287553517e+00 -5.9252779394246058e-02
-1.0099999999999980e+01 +9.1397425119048812e+00 +0.0000000000000000e+00 -1.0099998175521685e+01 +1.1097645667686420e-02 -1.0314014301968706e+00 -5.9252927218167717e-02
-1.0199999999999980e+01 +9.1396378903680269e+00 +0.0000000000000000e+00 -1.0199998120792898e+01 +1.1097623098800856e-02 -1.0314010709805526e+00 -5.9253068313438788e-02
-1.0299999999999979e+01 +9.1395322381441684e+00 +0.0000000000000000e+00 -1.0299998064980478e+01 +1.1097596918960725e-02 -1.0314007465007931e+00 -5.9253202780810796e-02
-1.0399999999999979e+01 +9.1394255552336414e+00 +0.0000000000000000e+00 -1.0399998008073803e+01 +1.1097567489196511e-02 -1.0314004521477280e+00 -5.9253330720626454e-02
-1.0499999999999979e+01 +9.1393178416367515e+00 +0.0000000000000000e+00 -1.0499997950062248e+01 +1.1097535170317243e-02 -1.0314001833071251e+00 -5.9253452232809874e-02
-1.0599999999999978e+01 +9.1392090973537812e+00 +0.0000000000000000e+00 -1.0599997890935192e+01 +1.1097500322905378e-02 -1.0313999353602763e+00 -5.9253567416856591e-02
-1.0699999999999978e+01 +9.1390993223849879e+00 +0.0000000000000000e+00 -1.0699997830682014e+01 +1.1097463307311737e-02 -1.0313997036838947e+00 -5.9253676371823924e-02
-1.0799999999999978e+01 +9.1389885167306169e+00 +0.0000000000000000e+00 -1.0799997769292087e+01 +1.1097424483650356e-02 -1.0313994836500024e+00 -5.9253779196320931e-02
-1.0899999999999977e+01 +9.1388766803908990e+00 +0.0000000000000000e+00 -1.0899997706754791e+01 +1.1097384211793467e-02 -1.0313992706258290e+00 -5.9253875988498676e-02
-1.0999999999999977e+01 +9.1387638133660598e+00 +0.0000000000000000e+00 -1.0999997643059501e+01 +1.1097342851366354e-02 -1.0313990599737024e+00 -5.9253966846040416e-02
-1.1099999999999977e+01 +9.1386499156563215e+00 +0.0000000000000000e+00 -1.1099997578195596e+01 +1.1097300761742274e-02 -1.0313988470509414e+00 -5.9254051866151632e-02
-1.1199999999999976e+01 +9.1385349872619113e+00 +0.0000000000000000e+00 -1.1199997512152454e+01 +1.1097258302037397e-02 -1.0313986272097513e+00 -5.9254131145550296e-02
-1.1299999999999976e+01 +9.1384190281830602e+00 +0.0000000000000000e+00 -1.1299997444919448e+01 +1.1097215831105699e-02 -1.0313983957971147e+00 -5.9254204780456989e-02
-1.1399999999999975e+01 +9.1383020384200115e+00 +0.0000000000000000e+00 -1.1399997376485960e+01 +1.1097173707533896e-02 -1.0313981481546868e+00 -5.9254272866585057e-02
-1.1499999999999975e+01 +9.1381840179730265e+00 +0.0000000000000000e+00 -1.1499997306841363e+01 +1.1097132289636357e-02 -1.0313978796186882e+00 -5.9254335499130763e-02
-1.1599999999999975e+01 +9.1380649668423857e+00 +0.0000000000000000e+00 -1.1599997235975037e+01 +1.1097091862710073e-02 -1.0313975850297246e+00 -5.9254392671306610e-02
-1.1699999999999974e+01 +9.1379448850283982e+00 +0.0000000000000000e+00 -1.1699997163876358e+01 +1.1097052420984615e-02 -1.0313972572631211e+00 -5.9254443970280284e-02
