# multipoles
# s[mm] polynom_b[n=0][T/m^n] polynom_b[n=1][T/m^n] polynom_b[n=2][T/m^n] polynom_b[n=3][T/m^n] polynom_b[n=4][T/m^n] polynom_b[n=5][T/m^n] polynom_b[n=6][T/m^n] 
-0.0000000000000000e+00 -1.0333427677269553e+00 +2.2972164360033616e+00 +2.0144460620704951e+01 -5.8082129513685754e+02 -9.8091256614695067e+03 +4.9959461077980669e+06 +1.4818607024382102e+08 
-1.0005104645227200e-01 -1.0333409907805231e+00 +2.2967131492020574e+00 +1.9888231911709262e+01 -5.6773079121419619e+02 -5.1934915854543797e+03 +4.9281170348923756e+06 +1.2769550157262696e+08 
-2.0010209290454301e-01 -1.0333392294000581e+00 +2.2962347321182079e+00 +1.9628572951139013e+01 -5.5512614777723036e+02 -5.1622353138073299e+02 +4.8619644140245374e+06 +1.0688444056953052e+08 
-3.0015313935681498e-01 -1.0333374894868232e+00 +2.2957817323232104e+00 +1.9366696404917146e+01 -5.4301765446154445e+02 +4.2026663551440561e+03 +4.7975522191276597e+06 +8.5839782648388579e+07 
-4.0020418580908601e-01 -1.0333357769422706e+00 +2.2953546973293903e+00 +1.9103814948494506e+01 -5.3141559863864654e+02 +8.9431659133893882e+03 +4.7349444092038423e+06 +6.4648422817797273e+07 
-5.0025523226135804e-01 -1.0333340976679415e+00 +2.2949541745836526e+00 +1.8841141255140009e+01 -5.2033026525014998e+02 +1.3685263183616758e+04 +4.6742049274410745e+06 +4.3397254695572823e+07 
-6.0030627871362996e-01 -1.0333324575655034e+00 +2.2945807114458066e+00 +1.8579888003337857e+01 -5.0977193617518714e+02 +1.8408946250176617e+04 +4.6153976975573283e+06 +2.2173171315999158e+07 
-7.0035732516590099e-01 -1.0333308625368947e+00 +2.2942348551816467e+00 +1.8321267892164133e+01 -4.9975089005998132e+02 +2.3094202941241416e+04 +4.5585866228833878e+06 +1.0630666049157565e+06 
-8.0040837161817302e-01 -1.0333293184841752e+00 +2.2939171529345646e+00 +1.8066493623083634e+01 -4.9027740148529085e+02 +2.7721021160621010e+04 +4.5038355815145988e+06 -1.9846166141770601e+07 
-9.0045941807044405e-01 -1.0333278313096401e+00 +2.2936281517158652e+00 +1.7816777917667871e+01 -4.8136174069010917e+02 +3.2269388540156899e+04 +4.4512084247543178e+06 -4.0467632554382503e+07 
-1.0005104645227201e+00 -1.0333264069158072e+00 +2.2933683983987163e+00 +1.7573333513438342e+01 -4.7301417343090225e+02 +3.6719292507188147e+04 +4.4007689763977071e+06 -6.0714437454614222e+07 
-1.1005615109749900e+00 -1.0333250512054810e+00 +2.2931384396842107e+00 +1.7337373174578712e+01 -4.6524495996037712e+02 +4.1050720063698929e+04 +4.3525810267006326e+06 -8.0499683740715772e+07 
-1.2006125574272599e+00 -1.0333237700817719e+00 +2.2929388220996181e+00 +1.7110109691561671e+01 -4.5806435504119042e+02 +4.5243657789721619e+04 +4.3067083326498447e+06 -9.9736472371141359e+07 
-1.3006636038795301e+00 -1.0333225694479597e+00 +2.2927700919787859e+00 +1.6892755868244887e+01 -4.5148260733427020e+02 +4.9278092075642016e+04 +4.2632146143292235e+06 -1.1833790341461547e+08 
-1.4007146503318000e+00 -1.0333214552077850e+00 +2.2926327954447574e+00 +1.6686524555352470e+01 -4.4550995895134889e+02 +5.3134008464186052e+04 +4.2221635524631497e+06 -1.3621707283644655e+08 
-1.5007656967840699e+00 -1.0333204332652526e+00 +2.2925274783944416e+00 +1.6492628629572593e+01 -4.4015664498613006e+02 +5.6791392045982968e+04 +4.1836187856203113e+06 -1.5328707435969856e+08 
-1.6008167432363500e+00 -1.0333195081040858e+00 +2.2924542479500767e+00 +1.6312014492898577e+01 -4.3542153966789493e+02 +6.0234628481244625e+04 +4.1475797876643199e+06 -1.6947959962192902e+08 
-1.7008677896886200e+00 -1.0333186785672313e+00 +2.2924115599100956e+00 +1.6144582118205662e+01 -4.3125971179567648e+02 +6.3465355133643257e+04 +4.1137961139678163e+06 -1.8479913689461190e+08 
-1.8009188361408901e+00 -1.0333179420971856e+00 +2.2923974819189232e+00 +1.5989974478145623e+01 -4.2761566404480971e+02 +6.6489439232187608e+04 +4.0819564029260492e+06 -1.9926799508883637e+08 
-1.9009698825931600e+00 -1.0333172961364241e+00 +2.2924100815063122e+00 +1.5847834533928646e+01 -4.2443389541142272e+02 +6.9312748261202156e+04 +4.0517492692950675e+06 -2.1290848422676006e+08 
-2.0010209290454299e+00 -1.0333167381274386e+00 +2.2924474260989869e+00 +1.5717805240820203e+01 -4.2165890153605335e+02 +7.1941149846333341e+04 +4.0228633058835608e+06 -2.2574291486212710e+08 
-2.1010719754977001e+00 -1.0333162655126638e+00 +2.2925075830210302e+00 +1.5599529536686550e+01 -4.1923517476680377e+02 +7.4380511973697547e+04 +3.9949870839002747e+06 -2.3779359911674687e+08 
-2.2011230219499698e+00 -1.0333158757344660e+00 +2.2925886195017218e+00 +1.5492650344601467e+01 -4.1710720437174280e+02 +7.6636702924791389e+04 +3.9678091540413150e+06 -2.4908285031735572e+08 
-2.3011740684022501e+00 -1.0333155662350804e+00 +2.2926886026839659e+00 +1.5396810562521315e+01 -4.1521947680864565e+02 +7.8715591477413938e+04 +3.9410180479560397e+06 -2.5963298395519662e+08 
-2.4012251148545198e+00 -1.0333153344566370e+00 +2.2928055996282861e+00 +1.5311653067480140e+01 -4.1351647586436991e+02 +8.0623046807047140e+04 +3.9143022789755040e+06 -2.6946631715374953e+08 
-2.5012761613067900e+00 -1.0333151778411125e+00 +2.2929376773199408e+00 +1.5236820708829974e+01 -4.1194268286117057e+02 +8.2364938620641144e+04 +3.8873503431670582e+06 -2.7860516930849391e+08 
-2.6013272077590601e+00 -1.0333150938302345e+00 +2.2930829026730386e+00 +1.5171956298869310e+01 -4.1044257680687269e+02 +8.3947137325728443e+04 +3.8598507201849995e+06 -2.8707186285804784e+08 
-2.7013782542113298e+00 -1.0333150798655781e+00 +2.2932393425414794e+00 +1.5116702622776229e+01 -4.0896063470499058e+02 +8.5375513827857518e+04 +3.8314918748458000e+06 -2.9488872227055043e+08 
-2.8014293006636000e+00 -1.0333151333884043e+00 +2.2934050637197081e+00 +1.5070702419539250e+01 -4.0744133162693197e+02 +8.6655939897951714e+04 +3.8019622575910939e+06 -3.0207807579608572e+08 
-2.9014803471158799e+00 -1.0333152518397073e+00 +2.2935781329546954e+00 +1.5033598387783483e+01 -4.0582914103607084e+02 +8.7794288050460571e+04 +3.7709503061369993e+06 -3.0866225484525657e+08 
-3.0015313935681500e+00 -1.0333154326601832e+00 +2.2937566169453736e+00 +1.5005033182458446e+01 -4.0406853480910831e+02 +8.8796431600752156e+04 +3.7381444455695995e+06 -3.1466359423738074e+08 
-3.1015824400204202e+00 -1.0333156732901665e+00 +2.2939385823536069e+00 +1.4984649407318811e+01 -4.0210398356276306e+02 +8.9668244797999985e+04 +3.7032330901249601e+06 -3.2010443279096127e+08 
-3.2016334864726899e+00 -1.0333159711696238e+00 +2.2941220958112725e+00 +1.4972089613044592e+01 -3.9987995688597715e+02 +9.0415602862643776e+04 +3.6659046444439040e+06 -3.2500711350304890e+08 
-3.3016845329249600e+00 -1.0333163237380938e+00 +2.2943052239218735e+00 +1.4966996290365991e+01 -3.9734092338249610e+02 +9.1044382106652251e+04 +3.6258475036849091e+06 -3.2939398407638860e+08 
-3.4017355793772301e+00 -1.0333167284347096e+00 +2.2944860332707058e+00 +1.4969011875407176e+01 -3.9443135099012079e+02 +9.1560459824316553e+04 +3.5827500553144631e+06 -3.3328739637152821e+08 
-3.5017866258295101e+00 -1.0333171826981193e+00 +2.2946625904370035e+00 +1.4977778737391837e+01 -3.9109570775516778e+02 +9.1969714463805576e+04 +3.5363006838665013e+06 -3.3670970706357145e+08 
-3.6018376722817802e+00 -1.0333176818085461e+00 +2.2948328254902890e+00 +1.4992850169925823e+01 -3.8728418795328878e+02 +9.2278890245799717e+04 +3.4862467663019104e+06 -3.3968654993514073e+08 
-3.7018887187340499e+00 -1.0333182129326464e+00 +2.2949941005687444e+00 +1.5013457550630905e+01 -3.8296742777908099e+02 +9.2498040080850478e+04 +3.4325577687173896e+06 -3.4225739643728429e+08 
-3.8019397651863200e+00 -1.0333187613272226e+00 +2.2951436326663250e+00 +1.5038759330725116e+01 -3.7812071118303015e+02 +9.2638014830522428e+04 +3.3752562525604381e+06 -3.4446538394589734e+08 
-3.9019908116385902e+00 -1.0333193122483957e+00 +2.2952786391027065e+00 +1.5067913903488071e+01 -3.7271933187542447e+02 +9.2709666377140340e+04 +3.3143648429548498e+06 -3.4635365531298649e+08 
-4.0020418580908599e+00 -1.0333198509515233e+00 +2.2953963375368951e+00 +1.5100079599523493e+01 -3.6673859373529433e+02 +9.2723847699050268e+04 +3.2499062315480192e+06 -3.4796535923289835e+08 
-4.1020929045431300e+00 -1.0333203626911800e+00 +2.2954939460012334e+00 +1.5134414685625650e+01 -3.6015381184364117e+02 +9.2691412885895683e+04 +3.1819031831240160e+06 -3.4934365037113911e+08 
-4.2021439509954099e+00 -1.0333208327211174e+00 +2.2955686829272173e+00 +1.5170077360222805e+01 -3.5294031326667090e+02 +9.2623217223863030e+04 +3.1103785407187236e+06 -3.5053168982981384e+08 
-4.3021949974476801e+00 -1.0333212462942434e+00 +2.2956177671652740e+00 +1.5206225755315630e+01 -3.4507343765198391e+02 +9.2530117146139499e+04 +3.0353552296724604e+06 -3.5157264494487947e+08 
-4.4022460438999502e+00 -1.0333215886625606e+00 +2.2956384180147671e+00 +1.5242017930176898e+01 -3.3652853816612304e+02 +9.2422970347096008e+04 +2.9568562637379663e+06 -3.5250968988256633e+08 
-4.5022970903522204e+00 -1.0333218450770887e+00 +2.2956278552464142e+00 +1.5276611865408253e+01 -3.2728098214667494e+02 +9.2312635897748129e+04 +2.8749047494074781e+06 -3.5338600626256353e+08 
-4.6023481368044896e+00 -1.0333220007879442e+00 +2.2955832991328498e+00 +1.5309165471410852e+01 -3.1730615205699939e+02 +9.2209974069314238e+04 +2.7895238920713617e+06 -3.5424478234439373e+08 
-4.7023991832567598e+00 -1.0333220410441801e+00 +2.2955019704658106e+00 +1.5338836575555019e+01 -3.0657944599730121e+02 +9.2125846571652350e+04 +2.7007369995963750e+06 -3.5512921421084923e+08 
-4.8024502297090397e+00 -1.0333219510938483e+00 +2.2953810905885099e+00 +1.5364782928734263e+01 -2.9507627870574527e+02 +9.2071116425123691e+04 +2.6085674887528499e+06 -3.5608250522128677e+08 
-4.9025012761613098e+00 -1.0333217161838675e+00 +2.2952178814240041e+00 +1.5386162191611461e+01 -2.8277208240309608e+02 +9.2056648218788716e+04 +2.5130388906993354e+06 -3.5714786729357165e+08 
-5.0025523226135800e+00 -1.0333213215600678e+00 +2.2950095654884564e+00 +1.5402131945634046e+01 -2.6964230720608651e+02 +9.2093307885846632e+04 +2.4141748539744997e+06 -3.5836851986476713e+08 
-5.1026033690658501e+00 -1.0333207524670662e+00 +2.2947533659277926e+00 +1.5411849675092459e+01 -2.5566242224917798e+02 +9.2191963048949081e+04 +2.3119991516413069e+06 -3.5978769161255586e+08 
-5.2026544155181202e+00 -1.0333199941483548e+00 +2.2944465065362456e+00 +1.5414472784546328e+01 -2.4080791625177199e+02 +9.2363482672204787e+04 +2.2065356851850832e+06 -3.6144861881951773e+08 
-5.3027054619703904e+00 -1.0333190318461229e+00 +2.2940862117921732e+00 +1.5409158574754938e+01 -2.2505429859015814e+02 +9.2618737523161515e+04 +2.0978084912985582e+06 -3.6339454765227509e+08 
-5.4027565084226703e+00 -1.0333178508013245e+00 +2.2936697068680827e+00 +1.5395064258448333e+01 -2.0837709961926137e+02 +9.2968599858081274e+04 +1.9858417443759658e+06 -3.6566873269138014e+08 
-5.5028075548749404e+00 -1.0333164362537910e+00 +2.2931942177282987e+00 +1.5371346982712193e+01 -1.9075187208194697e+02 +9.3423943089898152e+04 +1.8706597605377263e+06 -3.6831443587676257e+08 
-5.6028586013272097e+00 -1.0333147778025857e+00 +2.2926583220691650e+00 +1.5337380766239781e+01 -1.7217878189542688e+02 +9.3992875952032759e+04 +1.7523840200232295e+06 -3.7136406010975838e+08 
-5.7029096477794798e+00 -1.0333128814171249e+00 +2.2920656657454646e+00 +1.5293299949427873e+01 -1.5275094473553278e+02 +9.4673927813743343e+04 +1.6315010352942001e+06 -3.7481141061482984e+08 
-5.8029606942317500e+00 -1.0333107569282107e+00 +2.2914210843450435e+00 +1.5239407617270663e+01 -1.3258333747809633e+02 +9.5463510304449403e+04 +1.5085819411333324e+06 -3.7864145226312888e+08 
-5.9030117406840201e+00 -1.0333084141678557e+00 +2.2907294134393790e+00 +1.5176006994432150e+01 -1.1179093646065387e+02 +9.6358032654633804e+04 +1.3841978661285613e+06 -3.8283913943146074e+08 
-6.0030627871363000e+00 -1.0333058629694047e+00 +2.2899954885765688e+00 +1.5103401457153305e+01 -9.0488717375448061e+01 +9.7353901497762534e+04 +1.2589199324901879e+06 -3.8738941517391241e+08 
-6.1031138335885702e+00 -1.0333031131674679e+00 +2.2892241452796562e+00 +1.5021894524487442e+01 -6.8791655228896857e+01 +9.8447521057222650e+04 +1.1333192555855960e+06 -3.9227721215910351e+08 
-6.2031648800408403e+00 -1.0333001745981201e+00 +2.2884202190258978e+00 +1.4931789882112092e+01 -4.6814723705248511e+01 +9.9635292699075391e+04 +1.0079669398611503e+06 -3.9748745054130048e+08 
-6.3032159264931096e+00 -1.0332970570989126e+00 +2.2875885452462614e+00 +1.4833391381252914e+01 -2.4672895196865465e+01 +1.0091361497753410e+05 +8.8343407888086082e+05 -4.0300503823539698e+08 
-6.4032669729453797e+00 -1.0332937705089438e+00 +2.2867339593188785e+00 +1.4727003048269779e+01 -2.4811405534170521e+00 +1.0227888345420219e+05 +7.6029175342558115e+05 -4.0881487004829234e+08 
-6.5033180193976499e+00 -1.0332903246689873e+00 +2.2858612965433331e+00 +1.4612929095971555e+01 +1.9645571621622580e+01 +1.0372749050625390e+05 +6.3911102722845890e+05 -4.1490182681799865e+08 
-6.6033690658499298e+00 -1.0332867294214740e+00 +2.2849753921469471e+00 +1.4491473924026305e+01 +4.1592274823629914e+01 +1.0525582532917654e+05 +5.2046294751828472e+05 -4.2125077544263256e+08 
-6.7034201123021999e+00 -1.0332829946106643e+00 +2.2840810812700529e+00 +1.4362942136215414e+01 +6.3244005062735567e+01 +1.0686027362263270e+05 +4.0491854230869678e+05 -4.2784656741275644e+08 
-6.8034711587544701e+00 -1.0332791300826139e+00 +2.2831831989542586e+00 +1.4227638534729955e+01 +8.4485801205809310e+01 +1.0853721771401644e+05 +2.9304881814263301e+05 -4.3467403942949748e+08 
-6.9035222052067402e+00 -1.0332751456853781e+00 +2.2822865801359304e+00 +1.4085868147494743e+01 +1.0520270518977148e+02 +1.1028303604788688e+05 +1.8542475855589460e+05 -4.4171801098335606e+08 
-7.0035732516590103e+00 -1.0332710512689529e+00 +2.2813960596338303e+00 +1.3937936215294803e+01 +1.2527976236465553e+02 +1.1209410345594949e+05 +8.2617321804463791e+04 -4.4896328570233589e+08 
-7.1036242981112796e+00 -1.0332668566854493e+00 +2.2805164721420437e+00 +1.3784148215050662e+01 +1.4460202170805738e+02 +1.1396679071682207e+05 -1.4802560648646908e+04 -4.5639464924501294e+08 
-7.2036753445635497e+00 -1.0332625717890795e+00 +2.2796526522179730e+00 +1.3624809856406108e+01 +1.6305453619275846e+02 +1.1589746463995492e+05 -1.0626398659857405e+05 -4.6399686974397379e+08 
-7.3037263910158297e+00 -1.0332582064363223e+00 +2.2788094342731147e+00 +1.3460227098797912e+01 +1.8052236303019035e+02 +1.1788248775692360e+05 -1.9119608473713690e+05 -4.7175469636732513e+08 
-7.4037774374680998e+00 -1.0332537704859202e+00 +2.2779916525700425e+00 +1.3290706153942837e+01 +1.9689056378776706e+02 +1.1991821828147069e+05 -2.6902801565204677e+05 -4.7965285913478202e+08 
-7.5038284839203699e+00 -1.0332492737988950e+00 +2.2772041407968509e+00 +1.3116553430272816e+01 +2.1204422366016698e+02 +1.2200101243540925e+05 -3.3918909109085321e+05 -4.8767608309726292e+08 
-7.6038795303726401e+00 -1.0332447275883316e+00 +2.2764511284704674e+00 +1.2938124728257584e+01 +2.2589391860056045e+02 +1.2412769102143867e+05 -4.0126342012573418e+05 -4.9581475372154188e+08 
-7.7039305768249102e+00 -1.0332401478596760e+00 +2.2757348848816639e+00 +1.2755994944881456e+01 +2.3843142710943536e+02 +1.2629484807945587e+05 -4.5532529911752976e+05 -5.0406794541698807e+08 
-7.8039816232771804e+00 -1.0332355516735594e+00 +2.2750572718286808e+00 +1.2570795722356815e+01 +2.4966509529879045e+02 +1.2849866257334828e+05 -5.0154832134056644e+05 -5.1243443335399699e+08 
-7.9040326697294496e+00 -1.0332309560917667e+00 +2.2744201504211867e+00 +1.2383158775441332e+01 +2.5960328640792801e+02 +1.3073531210834197e+05 -5.4010617579564336e+05 -5.2091298458698934e+08 
-8.0040837161817304e+00 -1.0332263781772733e+00 +2.2738253810613616e+00 +1.2193715896893520e+01 +2.6825438122559348e+02 +1.3300097281944365e+05 -5.7117264964708488e+05 -5.2950235741834795e+08 
-8.1041347626340006e+00 -1.0332218349942255e+00 +2.2732748234148201e+00 +1.2003098950033911e+01 +2.7562677884533707e+02 +1.3529181951756959e+05 -5.9492163255811657e+05 -5.3820130203873158e+08 
-8.2041858090862707e+00 -1.0332173436079830e+00 +2.2727703363892839e+00 +1.1811939873290768e+01 +2.8172889721678212e+02 +1.3760402560115559e+05 -6.1152711984807032e+05 -5.4700856003702533e+08 
-8.3042368555385409e+00 -1.0332129210851644e+00 +2.2723137781046718e+00 +1.1620870683326970e+01 +2.8656917390912247e+02 +1.3993376298850166e+05 -6.2116321681463055e+05 -5.5592286398497236e+08 
-8.4042879019908092e+00 -1.0332085844936476e+00 +2.2719070058720265e+00 +1.1430523472803303e+01 +2.9015606663308250e+02 +1.4227720216143716e+05 -6.2400414166946337e+05 -5.6494293758358121e+08 
-8.5043389484430794e+00 -1.0332043509025917e+00 +2.2715518761724964e+00 +1.1241530411970349e+01 +2.9249805378863442e+02 +1.4463051213005400e+05 -6.2022422871027980e+05 -5.7406749541343582e+08 
-8.6043899948953602e+00 -1.0332002373825107e+00 +2.2712502446235803e+00 +1.1054523751512457e+01 +2.9360363531613518e+02 +1.4698986037738010e+05 -6.0999793310653232e+05 -5.8329524260171533e+08 
-8.7044410413476303e+00 -1.0331962610052476e+00 +2.2710039659675796e+00 +1.0870135822782759e+01 +2.9348133298247325e+02 +1.4935141285048434e+05 -5.9349983253863559e+05 -5.9262487469888794e+08 
-8.8044920877999004e+00 -1.0331924388440017e+00 +2.2708148940283404e+00 +1.0688999034615534e+01 +2.9213969152354878e+02 +1.5171133401886208e+05 -5.7090463372527692e+05 -6.0205507788588846e+08 
-8.9045431342521706e+00 -1.0331887879733830e+00 +2.2706848817087071e+00 +1.0511745879423547e+01 +2.8958727864629725e+02 +1.5406578675842655e+05 -5.4238717237808683e+05 -6.1158452835109937e+08 
-9.0045941807044407e+00 -1.0331853254694228e+00 +2.2706157809470717e+00 +1.0339008932445653e+01 +2.8583268618403054e+02 +1.5641093235835066e+05 -5.0812241979972064e+05 -6.2121189223978543e+08 
-9.1046452271567109e+00 -1.0331820684096016e+00 +2.2706094427026033e+00 +1.0171420853357725e+01 +2.8088453046737993e+02 +1.5874293048725012e+05 -4.6828548502170685e+05 -6.3093582541170537e+08 
-9.2046962736089899e+00 -1.0331790338728644e+00 +2.2706677169335951e+00 +1.0009614383991087e+01 +2.7475145282558486e+02 +1.6105793923861659e+05 -4.2305161755873146e+05 -6.4075497360135543e+08 
-9.3047473200612600e+00 -1.0331762389396681e+00 +2.2707924525572318e+00 +9.8542223542900249e+00 +2.6744212070328734e+02 +1.6335211501026896e+05 -3.7259621389340324e+05 -6.5066797175171673e+08 
-9.4047983665135302e+00 -1.0331737006919757e+00 +2.2709854974477546e+00 +9.7058776769897612e+00 +2.5896522759369458e+02 +1.6562161260607024e+05 -3.1709481694255018e+05 -6.6067344443707538e+08 
-9.5048494129658003e+00 -1.0331714362129913e+00 +2.2712486988818896e+00 +9.5652133685688270e+00 +2.4932946403856081e+02 +1.6786258244157053e+05 -2.5672292543235701e+05 -6.7076998624574661e+08 
-9.6049004594180705e+00 -1.0331694576181334e+00 +2.2715826042546556e+00 +9.4327538614341169e+00 +2.3855858952159295e+02 +1.7007060739389760e+05 -1.9169810340458108e+05 -6.8094793452976060e+08 
-9.7049515058703406e+00 -1.0331677590351092e+00 +2.2719825560225186e+00 +9.3086774179094025e+00 +2.2675091298432321e+02 +1.7223970297280553e+05 -1.2251164805564999e+05 -6.9117400024772918e+08 
-9.8050025523226108e+00 -1.0331663305039509e+00 +2.2724426172797010e+00 +9.1930945911369442e+00 +2.1402521572156257e+02 +1.7436358013739763e+05 -4.9738030372715686e+04 -7.0141052715301251e+08 
-9.9050535987748898e+00 -1.0331651620619495e+00 +2.2729568512366871e+00 +9.0861156730108839e+00 +2.0050027773296239e+02 +1.7643595423933922e+05 +2.6048280585436714e+04 -7.1161987855888295e+08 
-1.0005104645227201e+01 -1.0331642437435724e+00 +2.2735193212041884e+00 +8.9878506910286351e+00 +1.8629487839391956e+02 +1.7845054504125909e+05 +1.0427281337444478e+05 -7.2176443731766641e+08 
-1.0105155691679400e+01 -1.0331635655804019e+00 +2.2741240906069691e+00 +8.8984094008758561e+00 +1.7152779613960058e+02 +1.8040107683648076e+05 +1.8436109576481540e+05 -7.3180660634867728e+08 
