# field on trajectory
# s[mm] rx[mm] ry[mm] rz[mm] bx[T] by[T] bz[T]
0.0000000000000000e+00 +9.1076201166355002e+00 +0.0000000000000000e+00 +0.0000000000000000e+00 +1.1126806820543634e-02 -1.0329042975864857e+00 -5.9065378779996479e-02
1.0005104645227200e-01 +9.1076196006322601e+00 +0.0000000000000000e+00 +1.0005104645049701e-01 +1.1126562699629614e-02 -1.0329016977603429e+00 -5.9064144035488153e-02
2.0010209290454301e-01 +9.1076180526189905e+00 +0.0000000000000000e+00 +2.0010209289035000e-01 +1.1126315330250682e-02 -1.0328990995647955e+00 -5.9062895667550588e-02
3.0015313935681498e-01 +9.1076154725992300e+00 +0.0000000000000000e+00 +3.0015313930891202e-01 +1.1126064853145358e-02 -1.0328965107273222e+00 -5.9061633985701759e-02
4.0020418580908601e-01 +9.1076118605712200e+00 +0.0000000000000000e+00 +4.0020418569554000e-01 +1.1125811409078395e-02 -1.0328939389770178e+00 -5.9060359299606451e-02
5.0025523226135804e-01 +9.1076072165331805e+00 +0.0000000000000000e+00 +5.0025523203958799e-01 +1.1125555138846204e-02 -1.0328913920447802e+00 -5.9059071919090267e-02
6.0030627871362996e-01 +9.1076015404886608e+00 +0.0000000000000000e+00 +6.0030627833041095e-01 +1.1125296280481145e-02 -1.0328888779301595e+00 -5.9057772120523405e-02
7.0035732516590099e-01 +9.1075948324376501e+00 +0.0000000000000000e+00 +7.0035732455736299e-01 +1.1125035457880468e-02 -1.0328864056931673e+00 -5.9056460046943773e-02
8.0040837161817302e-01 +9.1075870923766207e+00 +0.0000000000000000e+00 +8.0040837070980198e-01 +1.1124773390682633e-02 -1.0328839846580740e+00 -5.9055135808386755e-02
9.0045941807044405e-01 +9.1075783203073204e+00 +0.0000000000000000e+00 +9.0045941677707997e-01 +1.1124510798538148e-02 -1.0328816241506773e+00 -5.9053799514982248e-02
1.0005104645227201e+00 +9.1075685162297706e+00 +0.0000000000000000e+00 +1.0005104627485499e+00 +1.1124248401104826e-02 -1.0328793334982498e+00 -5.9052451276938832e-02
1.1005615109749900e+00 +9.1075576801457405e+00 +0.0000000000000000e+00 +1.1005615086135800e+00 +1.1123986918042847e-02 -1.0328771220294637e+00 -5.9051091204527069e-02
1.2006125574272599e+00 +9.1075458120516792e+00 +0.0000000000000000e+00 +1.2006125543615100e+00 +1.1123727069010008e-02 -1.0328749990743418e+00 -5.9049719408063778e-02
1.3006636038795301e+00 +9.1075329119511395e+00 +0.0000000000000000e+00 +1.3006635999817000e+00 +1.1123469573656586e-02 -1.0328729739641600e+00 -5.9048335997894150e-02
1.4007146503318000e+00 +9.1075189798405596e+00 +0.0000000000000000e+00 +1.4007146454635000e+00 +1.1123215151620770e-02 -1.0328710560314143e+00 -5.9046941084377046e-02
1.5007656967840699e+00 +9.1075040157234994e+00 +0.0000000000000000e+00 +1.5007656907962801e+00 +1.1122964522523498e-02 -1.0328692546097218e+00 -5.9045534777866858e-02
1.6008167432363500e+00 +9.1074880195981898e+00 +0.0000000000000000e+00 +1.6008167359693799e+00 +1.1122718405963801e-02 -1.0328675790337809e+00 -5.9044117188698453e-02
1.7008677896886200e+00 +9.1074709914646199e+00 +0.0000000000000000e+00 +1.7008677809721600e+00 +1.1122477521513794e-02 -1.0328660386392898e+00 -5.9042688427169955e-02
1.8009188361408901e+00 +9.1074529313228005e+00 +0.0000000000000000e+00 +1.8009188257939699e+00 +1.1122242588713841e-02 -1.0328646427628803e+00 -5.9041248603526442e-02
1.9009698825931600e+00 +9.1074338391727103e+00 +0.0000000000000000e+00 +1.9009698704241800e+00 +1.1122014327067669e-02 -1.0328634007420558e+00 -5.9039797827943663e-02
2.0010209290454299e+00 +9.1074137150161505e+00 +0.0000000000000000e+00 +2.0010209148521301e+00 +1.1121793456037449e-02 -1.0328623219151165e+00 -5.9038336210511168e-02
2.1010719754977001e+00 +9.1073925588495506e+00 +0.0000000000000000e+00 +2.1010719590671898e+00 +1.1121580695039065e-02 -1.0328614156211102e+00 -5.9036863861216857e-02
2.2011230219499698e+00 +9.1073703706746993e+00 +0.0000000000000000e+00 +2.2011230030586999e+00 +1.1121376763437017e-02 -1.0328606911997404e+00 -5.9035380889929170e-02
2.3011740684022501e+00 +9.1073471504933696e+00 +0.0000000000000000e+00 +2.3011740468160200e+00 +1.1121182380539656e-02 -1.0328601579913137e+00 -5.9033887406381443e-02
2.4012251148545198e+00 +9.1073228983037797e+00 +0.0000000000000000e+00 +2.4012250903285000e+00 +1.1120998265594359e-02 -1.0328598253366759e+00 -5.9032383520155648e-02
2.5012761613067900e+00 +9.1072976141041497e+00 +0.0000000000000000e+00 +2.5012761335854998e+00 +1.1120825137781950e-02 -1.0328597025771364e+00 -5.9030869340665704e-02
2.6013272077590601e+00 +9.1072712978980501e+00 +0.0000000000000000e+00 +2.6013271765763899e+00 +1.1120663400244764e-02 -1.0328597958229420e+00 -5.9029345022469121e-02
2.7013782542113298e+00 +9.1072439496836903e+00 +0.0000000000000000e+00 +2.7013782192905000e+00 +1.1120512239653286e-02 -1.0328600987435370e+00 -5.9027810894504998e-02
2.8014293006636000e+00 +9.1072155694610704e+00 +0.0000000000000000e+00 +2.8014292617172001e+00 +1.1120370550007603e-02 -1.0328606020137991e+00 -5.9026267327691700e-02
2.9014803471158799e+00 +9.1071861572302009e+00 +0.0000000000000000e+00 +2.9014803038458301e+00 +1.1120237225340427e-02 -1.0328612963071060e+00 -5.9024714692957954e-02
3.0015313935681500e+00 +9.1071557129910694e+00 +0.0000000000000000e+00 +3.0015313456657702e+00 +1.1120111159722047e-02 -1.0328621722951310e+00 -5.9023153361246736e-02
3.1015824400204202e+00 +9.1071242367454595e+00 +0.0000000000000000e+00 +3.1015823871663502e+00 +1.1119991247265254e-02 -1.0328632206476278e+00 -5.9021583703518968e-02
3.2016334864726899e+00 +9.1070917284915893e+00 +0.0000000000000000e+00 +3.2016334283369399e+00 +1.1119876382130387e-02 -1.0328644320322355e+00 -5.9020006090758095e-02
3.3016845329249600e+00 +9.1070581882277004e+00 +0.0000000000000000e+00 +3.3016844691668901e+00 +1.1119765458530221e-02 -1.0328657971142614e+00 -5.9018420893973383e-02
3.4017355793772301e+00 +9.1070236159573206e+00 +0.0000000000000000e+00 +3.4017355096455599e+00 +1.1119657370734819e-02 -1.0328673065564613e+00 -5.9016828484203428e-02
3.5017866258295101e+00 +9.1069880116786806e+00 +0.0000000000000000e+00 +3.5017865497623002e+00 +1.1119551013076700e-02 -1.0328689510188558e+00 -5.9015229232521157e-02
3.6018376722817802e+00 +9.1069513753917892e+00 +0.0000000000000000e+00 +3.6018375895064700e+00 +1.1119445279955641e-02 -1.0328707211585035e+00 -5.9013623510036903e-02
3.7018887187340499e+00 +9.1069137070966395e+00 +0.0000000000000000e+00 +3.7018886288674100e+00 +1.1119339065843680e-02 -1.0328726076292996e+00 -5.9012011687902523e-02
3.8019397651863200e+00 +9.1068750067950095e+00 +0.0000000000000000e+00 +3.8019396678344899e+00 +1.1119231265290016e-02 -1.0328746010817598e+00 -5.9010394137315056e-02
3.9019908116385902e+00 +9.1068352744833394e+00 +0.0000000000000000e+00 +3.9019907063970600e+00 +1.1119120772926131e-02 -1.0328766921628323e+00 -5.9008771229521466e-02
4.0020418580908599e+00 +9.1067945101634198e+00 +0.0000000000000000e+00 +4.0020417445444796e+00 +1.1119006483470521e-02 -1.0328788715156629e+00 -5.9007143335821313e-02
4.1020929045431300e+00 +9.1067527138370199e+00 +0.0000000000000000e+00 +4.1020927822660997e+00 +1.1118887291733756e-02 -1.0328811297793963e+00 -5.9005510827571279e-02
4.2021439509954099e+00 +9.1067098855023705e+00 +0.0000000000000000e+00 +4.2021438195512797e+00 +1.1118762092623516e-02 -1.0328834575889816e+00 -5.9003874076189330e-02
4.3021949974476801e+00 +9.1066660251594502e+00 +0.0000000000000000e+00 +4.3021948563893604e+00 +1.1118629781149426e-02 -1.0328858455749454e+00 -5.9002233453158137e-02
4.4022460438999502e+00 +9.1066211328065094e+00 +0.0000000000000000e+00 +4.4022458927697201e+00 +1.1118489252428107e-02 -1.0328882843631961e+00 -5.9000589330029322e-02
4.5022970903522204e+00 +9.1065752084488594e+00 +0.0000000000000000e+00 +4.5022969286816901e+00 +1.1118339401692004e-02 -1.0328907645747982e+00 -5.8998942078427312e-02
4.6023481368044896e+00 +9.1065282520811692e+00 +0.0000000000000000e+00 +4.6023479641146396e+00 +1.1118179483307618e-02 -1.0328932773305008e+00 -5.8997292149473302e-02
4.7023991832567598e+00 +9.1064802637070095e+00 +0.0000000000000000e+00 +4.7023989990579196e+00 +1.1118010092235670e-02 -1.0328958156321790e+00 -5.8995640290866409e-02
4.8024502297090397e+00 +9.1064312433245895e+00 +0.0000000000000000e+00 +4.8024500335008904e+00 +1.1117832136183399e-02 -1.0328983729211778e+00 -5.8993987319459526e-02
4.9025012761613098e+00 +9.1063811909321402e+00 +0.0000000000000000e+00 +4.9025010674329002e+00 +1.1117646522755943e-02 -1.0329009426390279e+00 -5.8992334052043710e-02
5.0025523226135800e+00 +9.1063301065332105e+00 +0.0000000000000000e+00 +5.0025521008432996e+00 +1.1117454159449522e-02 -1.0329035182275155e+00 -5.8990681305343982e-02
5.1026033690658501e+00 +9.1062779901260207e+00 +0.0000000000000000e+00 +5.1026031337214599e+00 +1.1117255953644923e-02 -1.0329060931287937e+00 -5.8989029896016835e-02
5.2026544155181202e+00 +9.1062248417123506e+00 +0.0000000000000000e+00 +5.2026541660567203e+00 +1.1117052812600581e-02 -1.0329086607854432e+00 -5.8987380640645730e-02
5.3027054619703904e+00 +9.1061706612886404e+00 +0.0000000000000000e+00 +5.3027051978384501e+00 +1.1116845643446045e-02 -1.0329112146405806e+00 -5.8985734355738388e-02
5.4027565084226703e+00 +9.1061154488584606e+00 +0.0000000000000000e+00 +5.4027562290559903e+00 +1.1116635353174987e-02 -1.0329137481379109e+00 -5.8984091857721903e-02
5.5028075548749404e+00 +9.1060592044200206e+00 +0.0000000000000000e+00 +5.5028072596986997e+00 +1.1116422848638743e-02 -1.0329162547218420e+00 -5.8982453962940433e-02
5.6028586013272097e+00 +9.1060019279733204e+00 +0.0000000000000000e+00 +5.6028582897559396e+00 +1.1116209036539417e-02 -1.0329187278375525e+00 -5.8980821487650846e-02
5.7029096477794798e+00 +9.1059436195183707e+00 +0.0000000000000000e+00 +5.7029093192170599e+00 +1.1115994823423221e-02 -1.0329211609310796e+00 -5.8979195248019325e-02
5.8029606942317500e+00 +9.1058842790551608e+00 +0.0000000000000000e+00 +5.8029603480714202e+00 +1.1115781115673717e-02 -1.0329235474494041e+00 -5.8977576060117755e-02
5.9030117406840201e+00 +9.1058239065854707e+00 +0.0000000000000000e+00 +5.9030113763083696e+00 +1.1115568819505067e-02 -1.0329258808405297e+00 -5.8975964739919902e-02
6.0030627871363000e+00 +9.1057625021075204e+00 +0.0000000000000000e+00 +6.0030624039172604e+00 +1.1115358840955419e-02 -1.0329281545535822e+00 -5.8974362103298386e-02
6.1031138335885702e+00 +9.1057000656213205e+00 +0.0000000000000000e+00 +6.1031134308874604e+00 +1.1115152085880049e-02 -1.0329303620388783e+00 -5.8972768966020557e-02
6.2031648800408403e+00 +9.1056365971268605e+00 +0.0000000000000000e+00 +6.2031644572083096e+00 +1.1114949459944703e-02 -1.0329324967480167e+00 -5.8971186143745032e-02
6.3032159264931096e+00 +9.1055720966241402e+00 +0.0000000000000000e+00 +6.3032154828691800e+00 +1.1114751868618837e-02 -1.0329345521339615e+00 -5.8969614452018128e-02
6.4032669729453797e+00 +9.1055065641149504e+00 +0.0000000000000000e+00 +6.4032665078594100e+00 +1.1114560217168872e-02 -1.0329365216511237e+00 -5.8968054706269972e-02
6.5033180193976499e+00 +9.1054399995957205e+00 +0.0000000000000000e+00 +6.5033175321683601e+00 +1.1114375410642524e-02 -1.0329383987555154e+00 -5.8966507721804118e-02
6.6033690658499298e+00 +9.1053724030699996e+00 +0.0000000000000000e+00 +6.6033685557853898e+00 +1.1114198079734254e-02 -1.0329401785676360e+00 -5.8964974079724890e-02
6.7034201123021999e+00 +9.1053037745378091e+00 +0.0000000000000000e+00 +6.7034195786998501e+00 +1.1114027862240959e-02 -1.0329418622315281e+00 -5.8963453513289743e-02
6.8034711587544701e+00 +9.1052341139955892e+00 +0.0000000000000000e+00 +6.8034706009011003e+00 +1.1113864171479719e-02 -1.0329434522543315e+00 -5.8961945563844820e-02
6.9035222052067402e+00 +9.1051634214468908e+00 +0.0000000000000000e+00 +6.9035216223784897e+00 +1.1113706421026276e-02 -1.0329449511431761e+00 -5.8960449772686545e-02
7.0035732516590103e+00 +9.1050916968899305e+00 +0.0000000000000000e+00 +7.0035726431213803e+00 +1.1113554024726278e-02 -1.0329463614052334e+00 -5.8958965681062299e-02
7.1036242981112796e+00 +9.1050189403247099e+00 +0.0000000000000000e+00 +7.1036236631191203e+00 +1.1113406396706053e-02 -1.0329476855477184e+00 -5.8957492830169170e-02
7.2036753445635497e+00 +9.1049451517530091e+00 +0.0000000000000000e+00 +7.2036746823610702e+00 +1.1113262951383570e-02 -1.0329489260779028e+00 -5.8956030761153314e-02
7.3037263910158297e+00 +9.1048703311712806e+00 +0.0000000000000000e+00 +7.3037257008365799e+00 +1.1113123103479542e-02 -1.0329500855031557e+00 -5.8954579015110246e-02
7.4037774374680998e+00 +9.1047944785830701e+00 +0.0000000000000000e+00 +7.4037767185350001e+00 +1.1112986268028117e-02 -1.0329511663309268e+00 -5.8953137133082950e-02
7.5038284839203699e+00 +9.1047175939865994e+00 +0.0000000000000000e+00 +7.5038277354457001e+00 +1.1112851860388082e-02 -1.0329521710687977e+00 -5.8951704656062559e-02
7.6038795303726401e+00 +9.1046396773836609e+00 +0.0000000000000000e+00 +7.6038787515580202e+00 +1.1112719296253641e-02 -1.0329531022244767e+00 -5.8950281124987014e-02
7.7039305768249102e+00 +9.1045607287706805e+00 +0.0000000000000000e+00 +7.7039297668613296e+00 +1.1112587991665533e-02 -1.0329539623058386e+00 -5.8948866080741291e-02
7.8039816232771804e+00 +9.1044807481512198e+00 +0.0000000000000000e+00 +7.8039807813449800e+00 +1.1112457363021751e-02 -1.0329547538209141e+00 -5.8947459064155723e-02
7.9040326697294496e+00 +9.1043997355235007e+00 +0.0000000000000000e+00 +7.9040317949983097e+00 +1.1112326827088717e-02 -1.0329554792779350e+00 -5.8946059616006602e-02
8.0040837161817304e+00 +9.1043176908892995e+00 +0.0000000000000000e+00 +8.0040828078106898e+00 +1.1112195801012076e-02 -1.0329561411853339e+00 -5.8944667277014792e-02
8.1041347626340006e+00 +9.1042346142468507e+00 +0.0000000000000000e+00 +8.1041338197714801e+00 +1.1112063702327766e-02 -1.0329567420517773e+00 -5.8943281587845904e-02
8.2041858090862707e+00 +9.1041505055961398e+00 +0.0000000000000000e+00 +8.2041848308700196e+00 +1.1111929948972886e-02 -1.0329572843861716e+00 -5.8941902089109245e-02
8.3042368555385409e+00 +9.1040653649371706e+00 +0.0000000000000000e+00 +8.3042358410956805e+00 +1.1111793959296666e-02 -1.0329577706976856e+00 -5.8940528321357419e-02
8.4042879019908092e+00 +9.1039791922699393e+00 +0.0000000000000000e+00 +8.4042868504377992e+00 +1.1111655152071404e-02 -1.0329582034957685e+00 -5.8939159825085775e-02
8.5043389484430794e+00 +9.1038919875980202e+00 +0.0000000000000000e+00 +8.5043378588857408e+00 +1.1111512946512574e-02 -1.0329585852901348e+00 -5.8937796140755741e-02
8.6043899948953602e+00 +9.1038037509160592e+00 +0.0000000000000000e+00 +8.6043888664288701e+00 +1.1111366890404491e-02 -1.0329589182591168e+00 -5.8936437145416416e-02
8.7044410413476303e+00 +9.1037144822276108e+00 +0.0000000000000000e+00 +8.7044398730565202e+00 +1.1111216981755833e-02 -1.0329592034165564e+00 -5.8935083898877624e-02
8.8044920877999004e+00 +9.1036241815309200e+00 +0.0000000000000000e+00 +8.8044908787580596e+00 +1.1111063316933780e-02 -1.0329594415223757e+00 -5.8933737720887461e-02
8.9045431342521706e+00 +9.1035328488259601e+00 +0.0000000000000000e+00 +8.9045418835228496e+00 +1.1110905991790411e-02 -1.0329596333385072e+00 -5.8932399931610188e-02
9.0045941807044407e+00 +9.1034404841127508e+00 +0.0000000000000000e+00 +9.0045928873402303e+00 +1.1110745101646139e-02 -1.0329597796289591e+00 -5.8931071851639157e-02
9.1046452271567109e+00 +9.1033470873930593e+00 +0.0000000000000000e+00 +9.1046438901995597e+00 +1.1110580741273093e-02 -1.0329598811598768e+00 -5.8929754802009168e-02
9.2046962736089899e+00 +9.1032526586651095e+00 +0.0000000000000000e+00 +9.2046948920902096e+00 +1.1110413004878632e-02 -1.0329599386996173e+00 -5.8928450104209731e-02
9.3047473200612600e+00 +9.1031571979306793e+00 +0.0000000000000000e+00 +9.3047458930015097e+00 +1.1110241986088627e-02 -1.0329599530187956e+00 -5.8927159080196939e-02
9.4047983665135302e+00 +9.1030607051879997e+00 +0.0000000000000000e+00 +9.4047968929228301e+00 +1.1110067777931004e-02 -1.0329599248903656e+00 -5.8925883052406890e-02
9.5048494129658003e+00 +9.1029631804370599e+00 +0.0000000000000000e+00 +9.5048478918435304e+00 +1.1109890472819066e-02 -1.0329598550896693e+00 -5.8924623343767704e-02
9.6049004594180705e+00 +9.1028646236796291e+00 +0.0000000000000000e+00 +9.6048988897529508e+00 +1.1109710162534909e-02 -1.0329597443945018e+00 -5.8923381277712246e-02
9.7049515058703406e+00 +9.1027650349139595e+00 +0.0000000000000000e+00 +9.7049498866404598e+00 +1.1109526938212927e-02 -1.0329595935851834e+00 -5.8922158178191221e-02
9.8050025523226108e+00 +9.1026644141418007e+00 +0.0000000000000000e+00 +9.8050008824953991e+00 +1.1109340890323137e-02 -1.0329594034446103e+00 -5.8920955369685203e-02
9.9050535987748898e+00 +9.1025627613596107e+00 +0.0000000000000000e+00 +9.9050518773071392e+00 +1.1109152108654735e-02 -1.0329591747583371e+00 -5.8919774177218096e-02
1.0005104645227201e+01 +9.1024600765709298e+00 +0.0000000000000000e+00 +1.0005102871065001e+01 +1.1108960682299286e-02 -1.0329589083146071e+00 -5.8918615926368469e-02
1.0105155691679400e+01 +9.1023563597757793e+00 +0.0000000000000000e+00 +1.0105153863758400e+01 +1.1108766699634372e-02 -1.0329586049044450e+00 -5.8917481943283334e-02
1.0205206738131700e+01 +9.1022516109723703e+00 +0.0000000000000000e+00 +1.0205204855376600e+01 +1.1108570248306965e-02 -1.0329582653217140e+00 -5.8916373554690628e-02
1.0305257784584001e+01 +9.1021458301607101e+00 +0.0000000000000000e+00 +1.0305255845909100e+01 +1.1108371415216802e-02 -1.0329578903631689e+00 -5.8915292087911388e-02
1.0405308831036200e+01 +9.1020390173425607e+00 +0.0000000000000000e+00 +1.0405306835345099e+01 +1.1108170286499814e-02 -1.0329574808285218e+00 -5.8914238870872465e-02
1.0505359877488500e+01 +9.1019311725161600e+00 +0.0000000000000000e+00 +1.0505357823674100e+01 +1.1107966947521346e-02 -1.0329570375206170e+00 -5.8913215232090317e-02
1.0605410923940800e+01 +9.1018222956832808e+00 +0.0000000000000000e+00 +1.0605408810885301e+01 +1.1107761556773631e-02 -1.0329565620285974e+00 -5.8912222277607389e-02
1.0705461970393101e+01 +9.1017123868421397e+00 +0.0000000000000000e+00 +1.0705459796968199e+01 +1.1107554524412833e-02 -1.0329560586117228e+00 -5.8911260353509722e-02
1.0805513016845300e+01 +9.1016014459927401e+00 +0.0000000000000000e+00 +1.0805510781912000e+01 +1.1107346314806777e-02 -1.0329555320947084e+00 -5.8910329644032727e-02
1.0905564063297600e+01 +9.1014894731368603e+00 +0.0000000000000000e+00 +1.0905561765706199e+01 +1.1107137393037626e-02 -1.0329549872990904e+00 -5.8909430333338300e-02
1.1005615109749900e+01 +9.1013764682745109e+00 +0.0000000000000000e+00 +1.1005612748340100e+01 +1.1106928224920737e-02 -1.0329544290431516e+00 -5.8908562605510729e-02
1.1105666156202100e+01 +9.1012624314038906e+00 +0.0000000000000000e+00 +1.1105663729803000e+01 +1.1106719277023482e-02 -1.0329538621418348e+00 -5.8907726644552648e-02
1.1205717202654400e+01 +9.1011473625250208e+00 +0.0000000000000000e+00 +1.1205714710084401e+01 +1.1106511016683926e-02 -1.0329532914066533e+00 -5.8906922634380195e-02
1.1305768249106700e+01 +9.1010312616396707e+00 +0.0000000000000000e+00 +1.1305765689173500e+01 +1.1106303912029675e-02 -1.0329527216456054e+00 -5.8906150758818984e-02
1.1405819295559001e+01 +9.1009141287460693e+00 +0.0000000000000000e+00 +1.1405816667059700e+01 +1.1106098431996728e-02 -1.0329521576631040e+00 -5.8905411201600276e-02
1.1505870342011200e+01 +9.1007959638459806e+00 +0.0000000000000000e+00 +1.1505867643732399e+01 +1.1105895046348136e-02 -1.0329516042598736e+00 -5.8904704146355936e-02
1.1605921388463500e+01 +9.1006767669376405e+00 +0.0000000000000000e+00 +1.1605918619181001e+01 +1.1105694225692917e-02 -1.0329510662328878e+00 -5.8904029776615012e-02
1.1705972434915800e+01 +9.1005565380228095e+00 +0.0000000000000000e+00 +1.1705969593394700e+01 +1.1105496441504697e-02 -1.0329505483752621e+00 -5.8903388275798670e-02
1.1806023481367999e+01 +9.1004352770997308e+00 +0.0000000000000000e+00 +1.1806020566362900e+01 +1.1105302166140616e-02 -1.0329500554761923e+00 -5.8902779827216728e-02
