# multipoles
# s[mm] polynom_b[n=0][T/m^n] polynom_b[n=1][T/m^n] polynom_b[n=2][T/m^n] polynom_b[n=3][T/m^n] polynom_b[n=4][T/m^n] polynom_b[n=5][T/m^n] polynom_b[n=6][T/m^n] 
+0.0000000000000000e+00 -1.0329769420958896e+00 +2.2954283644251259e+00 +1.6871773020725058e+01 -4.8251721415111525e+01 +5.0653855609695587e+04 +1.1734134101595043e+06 -2.2580930013935447e+08 
+1.0005104645227200e-01 -1.0329742714141767e+00 +2.2950945319500060e+00 +1.6781975696047006e+01 -4.3325924872594172e+01 +5.2135601042219612e+04 +1.1522055699308673e+06 -2.3265400869311997e+08 
+2.0010209290454301e-01 -1.0329715592228546e+00 +2.2947513424330492e+00 +1.6686602908728890e+01 -3.8304614154069178e+01 +5.3714277965600959e+04 +1.1307009959085623e+06 -2.3988143315610632e+08 
+3.0015313935681498e-01 -1.0329688098409398e+00 +2.2944003206226764e+00 +1.6585987548303766e+01 -3.3213323783282171e+01 +5.5385133673541401e+04 +1.1089816927131496e+06 -2.4747100827445090e+08 
+4.0020418580908601e-01 -1.0329660275874968e+00 +2.2940429913474012e+00 +1.6480462515134391e+01 -2.8077591237230763e+01 +5.7143415201994874e+04 +1.0871296834381686e+06 -2.5540216735749668e+08 
+5.0025523226135804e-01 -1.0329632167815879e+00 +2.2936808795096484e+00 +1.6370360713817274e+01 -2.2922956801252631e+01 +5.8984369470860162e+04 +1.0652270088968335e+06 -2.6365434299020997e+08 
+6.0030627871362996e-01 -1.0329603828924019e+00 +2.2933158176304156e+00 +1.6256061982864981e+01 -1.7782685017995838e+01 +6.0902711341866270e+04 +1.0433977315939433e+06 -2.7220568218788075e+08 
+7.0035732516590099e-01 -1.0329575358979031e+00 +2.2929508642817860e+00 +1.6138122518638472e+01 -1.2720861269232065e+01 +6.2891254411547816e+04 +1.0219340857602261e+06 -2.8103029610836220e+08 
+8.0040837161817302e-01 -1.0329546868808908e+00 +2.2925893835943620e+00 +1.6017139842094775e+01 -7.8092626371133935e+00 +6.4942392145896163e+04 +1.0011704032223102e+06 -2.9010155611807400e+08 
+9.0045941807044405e-01 -1.0329518469242642e+00 +2.2922347397215899e+00 +1.5893711483690618e+01 -3.1196676091949684e+00 +6.7048517910923707e+04 +9.8144102556196973e+05 -2.9939283334398931e+08 
+1.0005104645227201e+00 -1.0329490271111084e+00 +2.2918902968163164e+00 +1.5768434988650391e+01 +1.2761445711102637e+00 +6.9202024907162500e+04 +9.6308030041290889e+05 -3.0887749847990036e+08 
+1.1005615109749900e+00 -1.0329462385247050e+00 +2.2915594190192587e+00 +1.5641907919025543e+01 +5.3063942387240237e+00 +7.1395306149075244e+04 +9.4642257950954209e+05 -3.1852892176190001e+08 
+1.2006125574272599e+00 -1.0329434922485814e+00 +2.2912454704440952e+00 +1.5514727853405732e+01 +8.8993016848516131e+00 +7.3620754509212100e+04 +9.3180221661692881e+05 -3.2832047330527562e+08 
+1.3006636038795301e+00 -1.0329407993664697e+00 +2.2909518151731358e+00 +1.5387492383918026e+01 +1.1983087298388893e+01 +7.5870762803913574e+04 +9.1955356668975879e+05 -3.3822552361540377e+08 
+1.4007146503318000e+00 -1.0329381709624592e+00 +2.2906818172273375e+00 +1.5260799129001782e+01 +1.4485972384524723e+01 +7.8137723575077704e+04 +9.1001098121406673e+05 -3.4821744263876224e+08 
+1.5007656967840699e+00 -1.0329356181209226e+00 +2.2904388405602392e+00 +1.5135245725133203e+01 +1.6336179335062891e+01 +8.0414029284332268e+04 +9.0350880725839443e+05 -3.5826960080953085e+08 
+1.6008167432363500e+00 -1.0329331519265741e+00 +2.2902262490438585e+00 +1.5011429828834000e+01 +1.7461932009446492e+01 +8.2692072299493637e+04 +9.0038138530070568e+05 -3.6835536907756108e+08 
+1.7008677896886200e+00 -1.0329307834645132e+00 +2.2900474064505247e+00 +1.4889949121599450e+01 +1.7791456241532071e+01 +8.4964244831163320e+04 +9.0096304634467291e+05 -3.7844811870826024e+08 
+1.8009188361408901e+00 -1.0329285238202595e+00 +2.2899056764439392e+00 +1.4771401311046558e+01 +1.7252980080042075e+01 +8.7222938944165624e+04 +9.0558811056254595e+05 -3.8852122145508331e+08 
+1.9009698825931600e+00 -1.0329263840797793e+00 +2.2898044225660921e+00 +1.4656384132448762e+01 +1.5774734134635281e+01 +8.9460546552344094e+04 +9.1459088537632255e+05 -3.9854804962003702e+08 
+2.0010209290454299e+00 -1.0329243753294601e+00 +2.2897470082086975e+00 +1.4545495343125928e+01 +1.3284952414559422e+01 +9.1669459560523392e+04 +9.2830566054297041e+05 -4.0850197684983438e+08 
+2.1010719754977001e+00 -1.0329225086562293e+00 +2.2897367966170652e+00 +1.4439332732638695e+01 +9.7118721440015747e+00 +9.3842069700251202e+04 +9.4706670940183534e+05 -4.1835637745745975e+08 
+2.2011230219499698e+00 -1.0329207951475561e+00 +2.2897771508670202e+00 +1.4338494125437366e+01 +4.9837344523904257e+00 +9.5970768499367012e+04 +9.7120828483507421e+05 -4.2808462635487336e+08 
+2.3011740684022501e+00 -1.0329192458914045e+00 +2.2898714338504567e+00 +1.4243577368392907e+01 -9.7121523559203471e-01 +9.8047947564980073e+04 +1.0010646170487661e+06 -4.3766010054739398e+08 
+2.4012251148545198e+00 -1.0329178719763925e+00 +2.2900230082578599e+00 +1.4155180349400556e+01 -8.2247267319613080e+00 +1.0006599824697227e+05 +1.0369699109458128e+06 -4.4705617760262311e+08 
+2.5012761613067900e+00 -1.0329166844916753e+00 +2.2902352365599290e+00 +1.4073900978462902e+01 -1.6848544568555617e+01 +1.0201731204673547e+05 +1.0792583432371996e+06 -4.5624623774708009e+08 
+2.6013272077590601e+00 -1.0329156903591861e+00 +2.2905097820793396e+00 +1.4000207364025133e+01 -2.6874363313732392e+01 +1.0389514897297538e+05 +1.1280717410663320e+06 -4.6520560368974936e+08 
+2.7013782542113298e+00 -1.0329148807509183e+00 +2.2908416491430321e+00 +1.3934160638794088e+01 -3.8176499341136214e+01 +1.0569406154676915e+05 +1.1827981088669156e+06 -4.7390710285727769e+08 
+2.8014293006636000e+00 -1.0329142431179592e+00 +2.2912242070205364e+00 +1.3875746297400557e+01 -5.0590502246722728e+01 +1.0740841882415002e+05 +1.2426402186372590e+06 -4.8232056299459440e+08 
+2.9014803471158799e+00 -1.0329137649109419e+00 +2.2916508248541976e+00 +1.3824949794643913e+01 -6.3951915623026004e+01 +1.0903259028658428e+05 +1.3068008014287099e+06 -4.9041581268217957e+08 
+3.0015313935681500e+00 -1.0329134335800270e+00 +2.2921148716647957e+00 +1.3781756546575807e+01 -7.8096276973412756e+01 +1.1056094576429497e+05 +1.3744825461681676e+06 -4.9816268077191693e+08 
+3.1015824400204202e+00 -1.0329132365746916e+00 +2.2926097163476600e+00 +1.3746151908356149e+01 -9.2859117313670808e+01 +1.1198785580557141e+05 +1.4448880966332720e+06 -5.0553099796405667e+08 
+3.2016334864726899e+00 -1.0329131613438314e+00 +2.2931287276697980e+00 +1.3718121188298669e+01 -1.0807596083010353e+02 +1.1330769135377980e+05 +1.5172200487893473e+06 -5.1249059507556170e+08 
+3.3016845329249600e+00 -1.0329131953355497e+00 +2.2936652742655630e+00 +1.3697649626126653e+01 -1.2358232448344366e+02 +1.1451482410940283e+05 +1.5906809478344566e+06 -5.1901130458390075e+08 
+3.4017355793772301e+00 -1.0329133259971395e+00 +2.2942127246406012e+00 +1.3684722396434266e+01 -1.3921371783437974e+02 +1.1560362640237150e+05 +1.6644732864582411e+06 -5.2506295980747432e+08 
+3.5017866258295101e+00 -1.0329135407750818e+00 +2.2947644471646527e+00 +1.3679324607049979e+01 -1.5480564261479205e+02 +1.1656847118190434e+05 +1.7377995017850506e+06 -5.3061539470545393e+08 
+3.6018376722817802e+00 -1.0329138271148528e+00 +2.2953138100701671e+00 +1.3681441282666574e+01 -1.7019359235529356e+02 +1.1740373225830843e+05 +1.8098619723725002e+06 -5.3563844479959303e+08 
+3.7018887187340499e+00 -1.0329141724609410e+00 +2.2958541814501010e+00 +1.3691057367618210e+01 -1.8521305211134273e+02 +1.1810378420799204e+05 +1.8798630161045147e+06 -5.4010194656186187e+08 
+3.8019397651863200e+00 -1.0329145642567517e+00 +2.2963789292637045e+00 +1.3708157719614951e+01 -1.9969949832120162e+02 +1.1866300243261369e+05 +1.9470048885887368e+06 -5.4397573749789143e+08 
+3.9019908116385902e+00 -1.0329149899445311e+00 +2.2968814213165243e+00 +1.3732727100076596e+01 -2.1348839797062789e+02 +1.1907576329178804e+05 +2.0104897776303967e+06 -5.4722965659205520e+08 
+4.0020418580908599e+00 -1.0329154369652953e+00 +2.2973550252790780e+00 +1.3764750173273997e+01 -2.2641520888452541e+02 +1.1933644405963193e+05 +2.0695198043462504e+06 -5.4983354390131986e+08 
+4.1020929045431300e+00 -1.0329158927587907e+00 +2.2977931086716081e+00 +1.3804211501600088e+01 -2.3831537897163770e+02 +1.1943942296880342e+05 +2.1232970179505227e+06 -5.5175724059620535e+08 
+4.2021439509954099e+00 -1.0329163447634013e+00 +2.2981890388657451e+00 +1.3851095538077709e+01 -2.4902434604813854e+02 +1.1937907928906659e+05 +2.1710233941750736e+06 -5.5297058912088728e+08 
+4.3021949974476801e+00 -1.0329167804160222e+00 +2.2985361830823172e+00 +1.3905386613803147e+01 -2.5837753748751976e+02 +1.1914979352141303e+05 +2.2119008325225012e+06 -5.5344343395430958e+08 
+4.4022460438999502e+00 -1.0329171871521547e+00 +2.2988279083897529e+00 +1.3967068953799469e+01 -2.6621036990682830e+02 +1.1874594703240221e+05 +2.2451311537530976e+06 -5.5314561965309298e+08 
+4.5022970903522204e+00 -1.0329175524057177e+00 +2.2990575817568337e+00 +1.4036126663181458e+01 -2.7235825100582741e+02 +1.1816192216311548e+05 +2.2699161129497793e+06 -5.5204699071841061e+08 
+4.6023481368044896e+00 -1.0329178659399703e+00 +2.2992200009218919e+00 +1.4112482717322484e+01 -2.7669137141685655e+02 +1.1739416511905009e+05 +2.2856213207760607e+06 -5.5012593518397307e+08 
+4.7023991832567598e+00 -1.0329181258196611e+00 +2.2993155690159481e+00 +1.4195699345326785e+01 -2.7921450204493902e+02 +1.1644981184738738e+05 +2.2922265512610031e+06 -5.4740693983054757e+08 
+4.8024502297090397e+00 -1.0329183319442636e+00 +2.2993460695932684e+00 +1.4285221334262870e+01 -2.7996521849328792e+02 +1.1533923457667248e+05 +2.2898566361281038e+06 -5.4392871667517173e+08 
+4.9025012761613098e+00 -1.0329184842128205e+00 +2.2993132864712837e+00 +1.4380493394804484e+01 -2.7898110532299302e+02 +1.1407280725303023e+05 +2.2786364604278062e+06 -5.3972998657897794e+08 
+5.0025523226135800e+00 -1.0329185825241050e+00 +2.2992190037373352e+00 +1.4480960184286996e+01 -2.7629975641276036e+02 +1.1266090510670324e+05 +2.2586909655749653e+06 -5.3484947726756632e+08 
+5.1026033690658501e+00 -1.0329186267764965e+00 +2.2990650057831989e+00 +1.4586066283424628e+01 -2.7195877621192949e+02 +1.1111390514773196e+05 +2.2301451572084734e+06 -5.2932592585242349e+08 
+5.2026544155181202e+00 -1.0329186168680713e+00 +2.2988530773123430e+00 +1.4695256210155700e+01 -2.6599578006614854e+02 +1.0944218591702171e+05 +2.1931241073156409e+06 -5.2319807769797647e+08 
+5.3027054619703904e+00 -1.0329185526965767e+00 +2.2985850033575015e+00 +1.4807974410808406e+01 -2.5844839495978533e+02 +1.0765612769035911e+05 +2.1477529590570605e+06 -5.1650468750578856e+08 
+5.4027565084226703e+00 -1.0329184341594191e+00 +2.2982625693136547e+00 +1.4923665261100885e+01 -2.4935426063168990e+02 +1.0576611248511489e+05 +2.0941569336423785e+06 -5.0928451943022972e+08 
+5.5028075548749404e+00 -1.0329182611536818e+00 +2.2978875609436362e+00 +1.5041773062545067e+01 -2.3875102991659298e+02 +1.0378252416272488e+05 +2.0324613326400141e+06 -5.0157634767899948e+08 
+5.6028586013272097e+00 -1.0329180335761725e+00 +2.2974617644012794e+00 +1.5161742048556217e+01 -2.2667636962242986e+02 +1.0171574833446574e+05 +1.9627915435909166e+06 -4.9341895613103217e+08 
+5.7029096477794798e+00 -1.0329177513233612e+00 +2.2969869662514002e+00 +1.5283016374089964e+01 -2.1316796126090827e+02 +9.9576172598453850e+04 +1.8852730445449101e+06 -4.8485113959655899e+08 
+5.8029606942317500e+00 -1.0329174142913937e+00 +2.2964649534871238e+00 +1.5405040116054863e+01 -1.9826350175996885e+02 +9.7374186549288570e+04 +1.8000314086821976e+06 -4.7591170391984355e+08 
+5.9030117406840201e+00 -1.0329170223762083e+00 +2.2958975135517314e+00 +1.5527257285758166e+01 -1.8200070426799809e+02 +9.5120181579815588e+04 +1.7071923093651382e+06 -4.6663946515737802e+08 
+6.0030627871363000e+00 -1.0329165754733491e+00 +2.2952864343547117e+00 +1.5649111802609625e+01 -1.6441729879697118e+02 +9.2824551407250809e+04 +1.6068815242472771e+06 -4.5707325216950577e+08 
+6.1031138335885702e+00 -1.0329160734781269e+00 +2.2946335042908705e+00 +1.5770047513665135e+01 -1.4555103297951155e+02 +9.0497691731239203e+04 +1.4992249401341488e+06 -4.4725190508517015e+08 
+6.2031648800408403e+00 -1.0329155162855808e+00 +2.2939405122635823e+00 +1.5889508186735267e+01 -1.2543967289774949e+02 +8.8150000393524184e+04 +1.3843485581389477e+06 -4.3721427615872258e+08 
+6.3032159264931096e+00 -1.0329149037904495e+00 +2.2932092476959296e+00 +1.6006937504407762e+01 -1.0412100361456312e+02 +8.5791877522258612e+04 +1.2623784972277412e+06 -4.2699923055174333e+08 
+6.4032669729453797e+00 -1.0329142358871894e+00 +2.2924415005578678e+00 +1.6121779065358854e+01 -8.1632830128314978e+01 +8.3433725536922051e+04 +1.1334410001299852e+06 -4.1664564645644355e+08 
+6.5033180193976499e+00 -1.0329135124700737e+00 +2.2916390614203235e+00 +1.6233476402075759e+01 -5.8012978433977210e+01 +8.1085948860917008e+04 +9.9766243773214763e+05 -4.0619241397394425e+08 
+6.6033690658499298e+00 -1.0329127348885194e+00 +2.2908044046727527e+00 +1.6341588645897531e+01 -3.3319541561798943e+01 +7.8757675439851169e+04 +8.5529407196300791e+05 -3.9567573837464786e+08 
+6.7034201123021999e+00 -1.0329119104150200e+00 +2.2899425411291219e+00 +1.6446136147657100e+01 -7.6896743367205707e+00 +7.6453057380413986e+04 +7.0708925868674496e+05 -3.8512235455710822e+08 
+6.8034711587544701e+00 -1.0329110478326087e+00 +2.2890590727720150e+00 +1.6547255987013660e+01 +1.8720048536472373e+01 +7.4175008687299734e+04 +5.5392843829863460e+05 -3.7455686324114370e+08 
+6.9035222052067402e+00 -1.0329101559262648e+00 +2.2881596014814964e+00 +1.6645085463519720e+01 +4.5753051235695509e+01 +7.1926439667961386e+04 +3.9669207157326769e+05 -3.6400384961551076e+08 
+7.0035732516590103e+00 -1.0329092434831721e+00 +2.2872497290152327e+00 +1.6739762125052952e+01 +7.3252757368237255e+01 +6.9710256386715933e+04 +2.3626063588716983e+05 -3.5348788067234600e+08 
+7.1036242981112796e+00 -1.0329083192926982e+00 +2.2863350570078609e+00 +1.6831423766089433e+01 +1.0106258987142483e+02 +6.7529360718721771e+04 +7.3514626236164608e+04 -3.4303350555024540e+08 
+7.2036753445635497e+00 -1.0329073921465544e+00 +2.2854211869602490e+00 +1.6920208447169831e+01 +1.2902597116400091e+02 +6.5386649993354164e+04 -9.0665445090644251e+04 -3.3266525390064669e+08 
+7.3037263910158297e+00 -1.0329064708388349e+00 +2.2845137202355001e+00 +1.7006254497549918e+01 +1.5698632310917250e+02 +6.3285016960509885e+04 -2.5539904780671053e+05 -3.2240763580441099e+08 
+7.4037774374680998e+00 -1.0329055641661005e+00 +2.2836182580496445e+00 +1.7089700527235866e+01 +1.8478706716102829e+02 +6.1227349579100810e+04 -4.1980563399242476e+05 -3.1228514083475721e+08 
+7.5038284839203699e+00 -1.0329046809275100e+00 +2.2827404014581956e+00 +1.7170685441015674e+01 +2.1227162458961740e+02 +5.9216530761673319e+04 -5.8300463889201859e+05 -3.0232223690631407e+08 
+7.6038795303726401e+00 -1.0329038299248710e+00 +2.2818857513555209e+00 +1.7249348444549518e+01 +2.3928341636834836e+02 +5.7255438282372510e+04 -7.4411547976906889e+05 -2.9254336992532271e+08 
+7.7039305768249102e+00 -1.0329030199627327e+00 +2.2810599084642096e+00 +1.7325829054943323e+01 +2.6566586332000844e+02 +5.5346944581036892e+04 -9.0225755623350351e+05 -2.8297296290335256e+08 
+7.8039816232771804e+00 -1.0329022598484525e+00 +2.2802684733261231e+00 +1.7400267109830143e+01 +2.9126238625020375e+02 +5.3493916619611191e+04 -1.0565502505355619e+06 -2.7363541537876558e+08 
+7.9040326697294496e+00 -1.0329015583923837e+00 +2.2795170462973227e+00 +1.7472802788530576e+01 +3.1591640594002297e+02 +5.1699215479428443e+04 -1.2061129270266735e+06 -2.6455510152555904e+08 
+8.0040837161817304e+00 -1.0329009244078042e+00 +2.2788112275383741e+00 +1.7543576603191589e+01 +3.3947134328376819e+02 +4.9965696563222846e+04 -1.3500649324460886e+06 -2.5575637123827273e+08 
+8.1041347626340006e+00 -1.0329003667111263e+00 +2.2781566170059637e+00 +1.7612729424003849e+01 +3.6177061938004044e+02 +4.8296209116124090e+04 -1.4875255959458642e+06 -2.4726354787739527e+08 
+8.2041858090862707e+00 -1.0328998941219267e+00 +2.2775588144463246e+00 +1.7680402482273053e+01 +3.8265765559121633e+02 +4.6693596193954036e+04 -1.6176142289684981e+06 -2.3910092822211149e+08 
+8.3042368555385409e+00 -1.0328995154630796e+00 +2.2770234193875933e+00 +1.7746737386620989e+01 +4.0197587360986881e+02 +4.5160694366795513e+04 -1.7394501250946743e+06 -2.3129278111703670e+08 
+8.4042879019908092e+00 -1.0328992395607930e+00 +2.2765560311279511e+00 +1.7811876127240637e+01 +4.1956869566445141e+02 +4.3700333651536152e+04 -1.8521525607751580e+06 -2.2386334721860912e+08 
+8.5043389484430794e+00 -1.0328990752445730e+00 +2.2761622484957473e+00 +1.7875961034485279e+01 +4.3527955162776777e+02 +4.2315338537277676e+04 -1.9548408515672304e+06 -2.1683684584691158e+08 
+8.6043899948953602e+00 -1.0328990285339590e+00 +2.2758459122752246e+00 +1.7939090358063183e+01 +4.4899581133711473e+02 +4.1007906046824202e+04 -2.0468718374614026e+06 -2.1023243011581108e+08 
+8.7044410413476303e+00 -1.0328990949720054e+00 +2.2756042472677729e+00 +1.8001289131093500e+01 +4.6077273106978743e+02 +3.9775547160621783e+04 -2.1285028896483551e+06 -2.0403734710907453e+08 
+8.8044920877999004e+00 -1.0328992676643769e+00 +2.2754329035263186e+00 +1.8062586620769782e+01 +4.7070625961742780e+02 +3.8614119609155146e+04 -2.2002087472572504e+06 -1.9822833633283934e+08 
+8.9045431342521706e+00 -1.0328995397154741e+00 +2.2753275310806500e+00 +1.8123012001212377e+01 +4.7889235031786615e+02 +3.7519482257712865e+04 -2.2624641857790258e+06 -1.9278214085811454e+08 
+9.0045941807044407e+00 -1.0328999042283775e+00 +2.2752837799777690e+00 +1.8182594346372490e+01 +4.8542695987793257e+02 +3.6487495251107546e+04 -2.3157440110428603e+06 -1.8767550796912533e+08 
+9.1046452271567109e+00 -1.0329003543046986e+00 +2.2752973002623222e+00 +1.8241362613301423e+01 +4.9040604907900291e+02 +3.5514020316000919e+04 -2.3605230637035421e+06 -1.8288519054920039e+08 
+9.2046962736089899e+00 -1.0329008830446960e+00 +2.2753637419850969e+00 +1.8299345658589402e+01 +4.9392558268640823e+02 +3.4594920416960238e+04 -2.3972762191678500e+06 -1.7838794534851536e+08 
+9.3047473200612600e+00 -1.0329014835470471e+00 +2.2754787552064046e+00 +1.8356572213052914e+01 +4.9608152950420066e+02 +3.3726060221314809e+04 -2.4264783883244665e+06 -1.7416053513744149e+08 
+9.4047983665135302e+00 -1.0329021489089221e+00 +2.2756379899825210e+00 +1.8413070890973593e+01 +4.9696986290484608e+02 +3.2903305900596511e+04 -2.4486045210289471e+06 -1.7017972769353202e+08 
+9.5048494129658003e+00 -1.0329028722258542e+00 +2.2758370963847954e+00 +1.8468870178308325e+01 +4.9668656043667869e+02 +3.2122525328111766e+04 -2.4641296042612907e+06 -1.6642229665338814e+08 
+9.6049004594180705e+00 -1.0329036465917105e+00 +2.2760717244807225e+00 +1.8523998430519022e+01 +4.9532760451272003e+02 +3.1379588102289425e+04 -2.4735286665242384e+06 -1.6286502156804571e+08 
+9.7049515058703406e+00 -1.0329044650986479e+00 +2.2763375243455828e+00 +1.8578483867837626e+01 +4.9298898222399754e+02 +3.0670365611431294e+04 -2.4772767771974476e+06 -1.5948468812908545e+08 
+9.8050025523226108e+00 -1.0329053208370493e+00 +2.2766301460578751e+00 +1.8632354571545523e+01 +4.8976668562112417e+02 +2.9990731083709310e+04 -2.4758490485769822e+06 -1.5625808834142613e+08 
+9.9050535987748898e+00 -1.0329062068954666e+00 +2.2769452397021270e+00 +1.8685638476068373e+01 +4.8575671178025050e+02 +2.9336559713448773e+04 -2.4697206367022609e+06 -1.5316202104427633e+08 
+1.0005104645227201e+01 -1.0329071163605512e+00 +2.2772784553646117e+00 +1.8738363366550228e+01 +4.8105506308244287e+02 +2.8703728685393540e+04 -2.4593667433755696e+06 -1.5017329196028009e+08 
+1.0105155691679400e+01 -1.0329080423170578e+00 +2.2776254431337666e+00 +1.8790556878175739e+01 +4.7575774733949817e+02 +2.8088117163481900e+04 -2.4452626173172300e+06 -1.4726871356334037e+08 
