# trajectory
# s[mm] rx[mm] ry[mm] rz[mm] px[rad] py[rad] pz[rad]
0.0000000000000000e+00 +9.1264000000000003e+00 +0.0000000000000000e+00 +0.0000000000000000e+00 +0.0000000000000000e+00 +0.0000000000000000e+00 +1.0000000000000000e+00
1.0000000000000001e-01 +9.1263994840953906e+00 +0.0000000000000000e+00 +9.9999999998225619e-02 -1.0318099360860631e-05 +0.0000000000000000e+00 +9.9999999994676836e-01
2.0000000000000001e-01 +9.1263979363786856e+00 +0.0000000000000000e+00 +1.9999999998580487e-01 -2.0636242010046962e-05 +0.0000000000000000e+00 +9.9999999978707266e-01
3.0000000000000004e-01 +9.1263953568455296e+00 +0.0000000000000000e+00 +2.9999999995209126e-01 -3.0954428432729806e-05 +0.0000000000000000e+00 +9.9999999952091156e-01
4.0000000000000002e-01 +9.1263917454915244e+00 +0.0000000000000000e+00 +3.9999999988643825e-01 -4.1272659084534684e-05 +0.0000000000000000e+00 +9.9999999914828364e-01
5.0000000000000000e-01 +9.1263871023122238e+00 +0.0000000000000000e+00 +4.9999999977819903e-01 -5.1590934391535878e-05 +0.0000000000000000e+00 +9.9999999866918754e-01
5.9999999999999998e-01 +9.1263814273031443e+00 +0.0000000000000000e+00 +5.9999999961672679e-01 -6.1909254749887289e-05 +0.0000000000000000e+00 +9.9999999808362183e-01
6.9999999999999996e-01 +9.1263747204597614e+00 +0.0000000000000000e+00 +6.9999999939137436e-01 -7.2227620521833703e-05 +0.0000000000000000e+00 +9.9999999739158518e-01
7.9999999999999993e-01 +9.1263669817775153e+00 +0.0000000000000000e+00 +7.9999999909149466e-01 -8.2546032031723145e-05 +0.0000000000000000e+00 +9.9999999659307603e-01
8.9999999999999991e-01 +9.1263582112518193e+00 +0.0000000000000000e+00 +8.9999999870644043e-01 -9.2864489565639083e-05 +0.0000000000000000e+00 +9.9999999568809306e-01
9.9999999999999989e-01 +9.1263484088780586e+00 +0.0000000000000000e+00 +9.9999999822556407e-01 -1.0318299337139477e-04 +0.0000000000000000e+00 +9.9999999467663470e-01
1.0999999999999999e+00 +9.1263375746515951e+00 +0.0000000000000000e+00 +1.0999999976382180e+00 -1.1350154365852783e-04 +0.0000000000000000e+00 +9.9999999355869951e-01
1.2000000000000000e+00 +9.1263257085677711e+00 +0.0000000000000000e+00 +1.1999999969337545e+00 -1.2382014059829499e-04 +0.0000000000000000e+00 +9.9999999233428605e-01
1.3000000000000000e+00 +9.1263128106219149e+00 +0.0000000000000000e+00 +1.2999999961015258e+00 -1.3413878432366700e-04 +0.0000000000000000e+00 +9.9999999100339287e-01
1.4000000000000001e+00 +9.1262988808093439e+00 +0.0000000000000000e+00 +1.3999999951308837e+00 -1.4445747492932399e-04 +0.0000000000000000e+00 +9.9999998956601854e-01
1.5000000000000002e+00 +9.1262839191253651e+00 +0.0000000000000000e+00 +1.4999999940111801e+00 -1.5477621247165070e-04 +0.0000000000000000e+00 +9.9999998802216161e-01
1.6000000000000003e+00 +9.1262679255652834e+00 +0.0000000000000000e+00 +1.5999999927317665e+00 -1.6509499696873214e-04 +0.0000000000000000e+00 +9.9999998637182053e-01
1.7000000000000004e+00 +9.1262509001244059e+00 +0.0000000000000000e+00 +1.6999999912819945e+00 -1.7541382840034943e-04 +0.0000000000000000e+00 +9.9999998461499395e-01
1.8000000000000005e+00 +9.1262328427980410e+00 +0.0000000000000000e+00 +1.7999999896512155e+00 -1.8573270670797581e-04 +0.0000000000000000e+00 +9.9999998275168034e-01
1.9000000000000006e+00 +9.1262137535815047e+00 +0.0000000000000000e+00 +1.8999999878287810e+00 -1.9605163179477289e-04 +0.0000000000000000e+00 +9.9999998078187835e-01
2.0000000000000004e+00 +9.1261936324701267e+00 +0.0000000000000000e+00 +1.9999999858040416e+00 -2.0637060352558711e-04 +0.0000000000000000e+00 +9.9999997870558643e-01
2.1000000000000005e+00 +9.1261724794592514e+00 +0.0000000000000000e+00 +2.0999999835663483e+00 -2.1668962172694635e-04 +0.0000000000000000e+00 +9.9999997652280326e-01
2.2000000000000006e+00 +9.1261502945442405e+00 +0.0000000000000000e+00 +2.1999999811050523e+00 -2.2700868618705683e-04 +0.0000000000000000e+00 +9.9999997423352749e-01
2.3000000000000007e+00 +9.1261270777204810e+00 +0.0000000000000000e+00 +2.2999999784095042e+00 -2.3732779665580023e-04 +0.0000000000000000e+00 +9.9999997183775768e-01
2.4000000000000008e+00 +9.1261028289833863e+00 +0.0000000000000000e+00 +2.3999999754690542e+00 -2.4764695284473093e-04 +0.0000000000000000e+00 +9.9999996933549251e-01
2.5000000000000009e+00 +9.1260775483284000e+00 +0.0000000000000000e+00 +2.4999999722730530e+00 -2.5796615442707349e-04 +0.0000000000000000e+00 +9.9999996672673064e-01
2.6000000000000010e+00 +9.1260512357509995e+00 +0.0000000000000000e+00 +2.5999999688108506e+00 -2.6828540104089607e-04 +0.0000000000000000e+00 +9.9999996401147073e-01
2.7000000000000011e+00 +9.1260238912467013e+00 +0.0000000000000000e+00 +2.6999999650717972e+00 -2.7860469232403903e-04 +0.0000000000000000e+00 +9.9999996118971157e-01
2.8000000000000012e+00 +9.1259955148110556e+00 +0.0000000000000000e+00 +2.7999999610452431e+00 -2.8892402794904128e-04 +0.0000000000000000e+00 +9.9999995826145183e-01
2.9000000000000012e+00 +9.1259661064396429e+00 +0.0000000000000000e+00 +2.8999999567205377e+00 -2.9924340762630877e-04 +0.0000000000000000e+00 +9.9999995522669016e-01
3.0000000000000013e+00 +9.1259356661280702e+00 +0.0000000000000000e+00 +2.9999999520870309e+00 -3.0956283110410702e-04 +0.0000000000000000e+00 +9.9999995208542536e-01
3.1000000000000014e+00 +9.1259041938719694e+00 +0.0000000000000000e+00 +3.0999999471340725e+00 -3.1988229816855366e-04 +0.0000000000000000e+00 +9.9999994883765608e-01
3.2000000000000015e+00 +9.1258716896669902e+00 +0.0000000000000000e+00 +3.1999999418510119e+00 -3.3020180864361037e-04 +0.0000000000000000e+00 +9.9999994548338100e-01
3.3000000000000016e+00 +9.1258381535087985e+00 +0.0000000000000000e+00 +3.2999999362271986e+00 -3.4052136239107476e-04 +0.0000000000000000e+00 +9.9999994202259890e-01
3.4000000000000017e+00 +9.1258035853930721e+00 +0.0000000000000000e+00 +3.3999999302519814e+00 -3.5084095931057206e-04 +0.0000000000000000e+00 +9.9999993845530843e-01
3.5000000000000018e+00 +9.1257679853154983e+00 +0.0000000000000000e+00 +3.4999999239147099e+00 -3.6116059933954616e-04 +0.0000000000000000e+00 +9.9999993478150828e-01
3.6000000000000019e+00 +9.1257313532717674e+00 +0.0000000000000000e+00 +3.5999999172047330e+00 -3.7148028245325093e-04 +0.0000000000000000e+00 +9.9999993100119711e-01
3.7000000000000020e+00 +9.1256936892575702e+00 +0.0000000000000000e+00 +3.6999999101113992e+00 -3.8180000866474081e-04 +0.0000000000000000e+00 +9.9999992711437369e-01
3.8000000000000020e+00 +9.1256549932685953e+00 +0.0000000000000000e+00 +3.7999999026240574e+00 -3.9211977802486135e-04 +0.0000000000000000e+00 +9.9999992312103658e-01
3.9000000000000021e+00 +9.1256152653005245e+00 +0.0000000000000000e+00 +3.8999998947320562e+00 -4.0243959062223947e-04 +0.0000000000000000e+00 +9.9999991902118435e-01
4.0000000000000018e+00 +9.1255745053490269e+00 +0.0000000000000000e+00 +3.9999998864247437e+00 -4.1275944658327346e-04 +0.0000000000000000e+00 +9.9999991481481565e-01
4.1000000000000014e+00 +9.1255327134097577e+00 +0.0000000000000000e+00 +4.0999998776914683e+00 -4.2307934607212271e-04 +0.0000000000000000e+00 +9.9999991050192916e-01
4.2000000000000011e+00 +9.1254898894783540e+00 +0.0000000000000000e+00 +4.1999998685215783e+00 -4.3339928929069714e-04 +0.0000000000000000e+00 +9.9999990608252332e-01
4.3000000000000007e+00 +9.1254460335504337e+00 +0.0000000000000000e+00 +4.2999998589044219e+00 -4.4371927647864626e-04 +0.0000000000000000e+00 +9.9999990155659668e-01
4.4000000000000004e+00 +9.1254011456215842e+00 +0.0000000000000000e+00 +4.3999998488293466e+00 -4.5403930791334835e-04 +0.0000000000000000e+00 +9.9999989692414781e-01
4.5000000000000000e+00 +9.1253552256873665e+00 +0.0000000000000000e+00 +4.4999998382857003e+00 -4.6435938390989890e-04 +0.0000000000000000e+00 +9.9999989218517515e-01
4.5999999999999996e+00 +9.1253082737433058e+00 +0.0000000000000000e+00 +4.5999998272628302e+00 -4.7467950481796454e-04 +0.0000000000000000e+00 +9.9999988733967715e-01
4.6999999999999993e+00 +9.1252602897848938e+00 +0.0000000000000000e+00 +4.6999998157500844e+00 -4.8499967098729384e-04 +0.0000000000000000e+00 +9.9999988238765225e-01
4.7999999999999989e+00 +9.1252112738075883e+00 +0.0000000000000000e+00 +4.7999998037368101e+00 -4.9531988273323713e-04 +0.0000000000000000e+00 +9.9999987732909901e-01
4.8999999999999986e+00 +9.1251612258068189e+00 +0.0000000000000000e+00 +4.8999997912123536e+00 -5.0564014033361714e-04 +0.0000000000000000e+00 +9.9999987216401576e-01
4.9999999999999982e+00 +9.1251101457779864e+00 +0.0000000000000000e+00 +4.9999997781660621e+00 -5.1596044402873510e-04 +0.0000000000000000e+00 +9.9999986689240095e-01
5.0999999999999979e+00 +9.1250580337164706e+00 +0.0000000000000000e+00 +5.0999997645872828e+00 -5.2628079402137768e-04 +0.0000000000000000e+00 +9.9999986151425302e-01
5.1999999999999975e+00 +9.1250048896176335e+00 +0.0000000000000000e+00 +5.1999997504653619e+00 -5.3660119047682414e-04 +0.0000000000000000e+00 +9.9999985602957053e-01
5.2999999999999972e+00 +9.1249507134768226e+00 +0.0000000000000000e+00 +5.2999997357896458e+00 -5.4692163352285464e-04 +0.0000000000000000e+00 +9.9999985043835193e-01
5.3999999999999968e+00 +9.1248955052893734e+00 +0.0000000000000000e+00 +5.3999997205494807e+00 -5.5724212324975893e-04 +0.0000000000000000e+00 +9.9999984474059567e-01
5.4999999999999964e+00 +9.1248392650506158e+00 +0.0000000000000000e+00 +5.4999997047342131e+00 -5.6756265971034578e-04 +0.0000000000000000e+00 +9.9999983893630040e-01
5.5999999999999961e+00 +9.1247819927558744e+00 +0.0000000000000000e+00 +5.5999996883331891e+00 -5.7788324291995277e-04 +0.0000000000000000e+00 +9.9999983302546458e-01
5.6999999999999957e+00 +9.1247236884004757e+00 +0.0000000000000000e+00 +5.6999996713357541e+00 -5.8820387285645739e-04 +0.0000000000000000e+00 +9.9999982700808676e-01
5.7999999999999954e+00 +9.1246643519797477e+00 +0.0000000000000000e+00 +5.7999996537312546e+00 -5.9852454946028794e-04 +0.0000000000000000e+00 +9.9999982088416550e-01
5.8999999999999950e+00 +9.1246039834890311e+00 +0.0000000000000000e+00 +5.8999996355090358e+00 -6.0884527263443597e-04 +0.0000000000000000e+00 +9.9999981465369947e-01
5.9999999999999947e+00 +9.1245425829236737e+00 +0.0000000000000000e+00 +5.9999996166584433e+00 -6.1916604224446865e-04 +0.0000000000000000e+00 +9.9999980831668733e-01
6.0999999999999943e+00 +9.1244801502790409e+00 +0.0000000000000000e+00 +6.0999995971688223e+00 -6.2948685811854222e-04 +0.0000000000000000e+00 +9.9999980187312776e-01
6.1999999999999940e+00 +9.1244166855505160e+00 +0.0000000000000000e+00 +6.1999995770295175e+00 -6.3980772004741584e-04 +0.0000000000000000e+00 +9.9999979532301941e-01
6.2999999999999936e+00 +9.1243521887335053e+00 +0.0000000000000000e+00 +6.2999995562298743e+00 -6.5012862778446626e-04 +0.0000000000000000e+00 +9.9999978866636097e-01
6.3999999999999932e+00 +9.1242866598234418e+00 +0.0000000000000000e+00 +6.3999995347592380e+00 -6.6044958104570322e-04 +0.0000000000000000e+00 +9.9999978190315131e-01
6.4999999999999929e+00 +9.1242200988157887e+00 +0.0000000000000000e+00 +6.4999995126069532e+00 -6.7077057950978521e-04 +0.0000000000000000e+00 +9.9999977503338922e-01
6.5999999999999925e+00 +9.1241525057060446e+00 +0.0000000000000000e+00 +6.5999994897623644e+00 -6.8109162281950473e-04 +0.0000000000000000e+00 +9.9999976805707347e-01
6.6999999999999922e+00 +9.1240838804897422e+00 +0.0000000000000000e+00 +6.6999994662148161e+00 -6.9141271059795968e-04 +0.0000000000000000e+00 +9.9999976097420296e-01
6.7999999999999918e+00 +9.1240142231624546e+00 +0.0000000000000000e+00 +6.7999994419536529e+00 -7.0173384246472262e-04 +0.0000000000000000e+00 +9.9999975378477657e-01
6.8999999999999915e+00 +9.1239435337197925e+00 +0.0000000000000000e+00 +6.8999994169682193e+00 -7.1205501803732246e-04 +0.0000000000000000e+00 +9.9999974648879320e-01
6.9999999999999911e+00 +9.1238718121574038e+00 +0.0000000000000000e+00 +6.9999993912478597e+00 -7.2237623693125787e-04 +0.0000000000000000e+00 +9.9999973908625184e-01
7.0999999999999908e+00 +9.1237990584709756e+00 +0.0000000000000000e+00 +7.0999993647819180e+00 -7.3269749876001076e-04 +0.0000000000000000e+00 +9.9999973157715139e-01
7.1999999999999904e+00 +9.1237252726562339e+00 +0.0000000000000000e+00 +7.1999993375597384e+00 -7.4301880313506076e-04 +0.0000000000000000e+00 +9.9999972396149073e-01
7.2999999999999901e+00 +9.1236504547089439e+00 +0.0000000000000000e+00 +7.2999993095706648e+00 -7.5334014966590003e-04 +0.0000000000000000e+00 +9.9999971623926898e-01
7.3999999999999897e+00 +9.1235746046249098e+00 +0.0000000000000000e+00 +7.3999992808040407e+00 -7.6366153796004804e-04 +0.0000000000000000e+00 +9.9999970841048502e-01
7.4999999999999893e+00 +9.1234977223999731e+00 +0.0000000000000000e+00 +7.4999992512492097e+00 -7.7398296762306749e-04 +0.0000000000000000e+00 +9.9999970047513786e-01
7.5999999999999890e+00 +9.1234198080300182e+00 +0.0000000000000000e+00 +7.5999992208955156e+00 -7.8430443825858013e-04 +0.0000000000000000e+00 +9.9999969243322662e-01
7.6999999999999886e+00 +9.1233408615109681e+00 +0.0000000000000000e+00 +7.6999991897323028e+00 -7.9462594946828327e-04 +0.0000000000000000e+00 +9.9999968428475028e-01
7.7999999999999883e+00 +9.1232608828387853e+00 +0.0000000000000000e+00 +7.7999991577489141e+00 -8.0494750085196697e-04 +0.0000000000000000e+00 +9.9999967602970785e-01
7.8999999999999879e+00 +9.1231798720094712e+00 +0.0000000000000000e+00 +7.8999991249346921e+00 -8.1526909200753102e-04 +0.0000000000000000e+00 +9.9999966766809845e-01
7.9999999999999876e+00 +9.1230978290190698e+00 +0.0000000000000000e+00 +7.9999990912789816e+00 -8.2559072253100309e-04 +0.0000000000000000e+00 +9.9999965919992118e-01
8.0999999999999872e+00 +9.1230147538636661e+00 +0.0000000000000000e+00 +8.0999990567711251e+00 -8.3591239201655676e-04 +0.0000000000000000e+00 +9.9999965062517526e-01
8.1999999999999869e+00 +9.1229306465393822e+00 +0.0000000000000000e+00 +8.1999990214004654e+00 -8.4623410005653051e-04 +0.0000000000000000e+00 +9.9999964194385971e-01
8.2999999999999865e+00 +9.1228455070423831e+00 +0.0000000000000000e+00 +8.2999989851563445e+00 -8.5655584624144676e-04 +0.0000000000000000e+00 +9.9999963315597373e-01
8.3999999999999861e+00 +9.1227593353688761e+00 +0.0000000000000000e+00 +8.3999989480281076e+00 -8.6687763016003142e-04 +0.0000000000000000e+00 +9.9999962426151645e-01
8.4999999999999858e+00 +9.1226721315151078e+00 +0.0000000000000000e+00 +8.4999989100050968e+00 -8.7719945139923413e-04 +0.0000000000000000e+00 +9.9999961526048708e-01
8.5999999999999854e+00 +9.1225838954773657e+00 +0.0000000000000000e+00 +8.5999988710766537e+00 -8.8752130954429390e-04 +0.0000000000000000e+00 +9.9999960615288486e-01
8.6999999999999851e+00 +9.1224946272519816e+00 +0.0000000000000000e+00 +8.6999988312321221e+00 -8.9784320417925169e-04 +0.0000000000000000e+00 +9.9999959693870899e-01
8.7999999999999847e+00 +9.1224043268353263e+00 +0.0000000000000000e+00 +8.7999987904608439e+00 -9.0816513488744112e-04 +0.0000000000000000e+00 +9.9999958761795871e-01
8.8999999999999844e+00 +9.1223129942238153e+00 +0.0000000000000000e+00 +8.8999987487521608e+00 -9.1848710125151450e-04 +0.0000000000000000e+00 +9.9999957819063334e-01
8.9999999999999840e+00 +9.1222206294139028e+00 +0.0000000000000000e+00 +8.9999987060954165e+00 -9.2880910285342234e-04 +0.0000000000000000e+00 +9.9999956865673212e-01
9.0999999999999837e+00 +9.1221272324020841e+00 +0.0000000000000000e+00 +9.0999986624799547e+00 -9.3913113927439264e-04 +0.0000000000000000e+00 +9.9999955901625426e-01
9.1999999999999833e+00 +9.1220328031849007e+00 +0.0000000000000000e+00 +9.1999986178951154e+00 -9.4945321009490854e-04 +0.0000000000000000e+00 +9.9999954926919921e-01
9.2999999999999829e+00 +9.1219373417589331e+00 +0.0000000000000000e+00 +9.2999985723302423e+00 -9.5977531489468612e-04 +0.0000000000000000e+00 +9.9999953941556630e-01
9.3999999999999826e+00 +9.1218408481208044e+00 +0.0000000000000000e+00 +9.3999985257746772e+00 -9.7009745325265086e-04 +0.0000000000000000e+00 +9.9999952945535475e-01
9.4999999999999822e+00 +9.1217433222671787e+00 +0.0000000000000000e+00 +9.4999984782177620e+00 -9.8041962474691388e-04 +0.0000000000000000e+00 +9.9999951938856413e-01
9.5999999999999819e+00 +9.1216447641947642e+00 +0.0000000000000000e+00 +9.5999984296488385e+00 -9.9074182895474692e-04 +0.0000000000000000e+00 +9.9999950921519365e-01
9.6999999999999815e+00 +9.1215451739003104e+00 +0.0000000000000000e+00 +9.6999983800572487e+00 -1.0010640654525573e-03 +0.0000000000000000e+00 +9.9999949893524276e-01
9.7999999999999812e+00 +9.1214445513806108e+00 +0.0000000000000000e+00 +9.7999983294323343e+00 -1.0113863338158612e-03 +0.0000000000000000e+00 +9.9999948854871090e-01
9.8999999999999808e+00 +9.1213428966325001e+00 +0.0000000000000000e+00 +9.8999982777634372e+00 -1.0217086336192572e-03 +0.0000000000000000e+00 +9.9999947805559763e-01
9.9999999999999805e+00 +9.1212402096528535e+00 +0.0000000000000000e+00 +9.9999982250399011e+00 -1.0320309644363983e-03 +0.0000000000000000e+00 +9.9999946745590229e-01
1.0099999999999980e+01 +9.1211364904385928e+00 +0.0000000000000000e+00 +1.0099998171251066e+01 -1.0423533258399644e-03 +0.0000000000000000e+00 +9.9999945674962432e-01
1.0199999999999980e+01 +9.1210317389866802e+00 +0.0000000000000000e+00 +1.0199998116386274e+01 -1.0526757174016321e-03 +0.0000000000000000e+00 +9.9999944593676338e-01
1.0299999999999979e+01 +9.1209259552941209e+00 +0.0000000000000000e+00 +1.0299998060434866e+01 -1.0629981386920458e-03 +0.0000000000000000e+00 +9.9999943501731881e-01
1.0399999999999979e+01 +9.1208191393579643e+00 +0.0000000000000000e+00 +1.0399998003386186e+01 -1.0733205892807867e-03 +0.0000000000000000e+00 +9.9999942399129027e-01
1.0499999999999979e+01 +9.1207112911753025e+00 +0.0000000000000000e+00 +1.0499997945229572e+01 -1.0836430687363417e-03 +0.0000000000000000e+00 +9.9999941285867733e-01
1.0599999999999978e+01 +9.1206024107432704e+00 +0.0000000000000000e+00 +1.0599997885954368e+01 -1.0939655766249838e-03 +0.0000000000000000e+00 +9.9999940161947942e-01
1.0699999999999978e+01 +9.1204924980590452e+00 +0.0000000000000000e+00 +1.0699997825549914e+01 -1.1042881124987778e-03 +0.0000000000000000e+00 +9.9999939027369633e-01
1.0799999999999978e+01 +9.1203815531198540e+00 +0.0000000000000000e+00 +1.0799997764005553e+01 -1.1146106758836074e-03 +0.0000000000000000e+00 +9.9999937882132761e-01
1.0899999999999977e+01 +9.1202695759229684e+00 +0.0000000000000000e+00 +1.0899997701310626e+01 -1.1249332662780945e-03 +0.0000000000000000e+00 +9.9999936726237293e-01
1.0999999999999977e+01 +9.1201565664657149e+00 +0.0000000000000000e+00 +1.0999997637454475e+01 -1.1352558831536077e-03 +0.0000000000000000e+00 +9.9999935559683217e-01
1.1099999999999977e+01 +9.1200425247454735e+00 +0.0000000000000000e+00 +1.1099997572426441e+01 -1.1455785259542708e-03 +0.0000000000000000e+00 +9.9999934382470512e-01
1.1199999999999976e+01 +9.1199274507596790e+00 +0.0000000000000000e+00 +1.1199997506215864e+01 -1.1559011940969705e-03 +0.0000000000000000e+00 +9.9999933194599155e-01
1.1299999999999976e+01 +9.1198113445058286e+00 +0.0000000000000000e+00 +1.1299997438812087e+01 -1.1662238869713669e-03 +0.0000000000000000e+00 +9.9999931996069147e-01
1.1399999999999975e+01 +9.1196942059814816e+00 +0.0000000000000000e+00 +1.1399997370204449e+01 -1.1765466039399014e-03 +0.0000000000000000e+00 +9.9999930786880487e-01
1.1499999999999975e+01 +9.1195760351842594e+00 +0.0000000000000000e+00 +1.1499997300382294e+01 -1.1868693443378069e-03 +0.0000000000000000e+00 +9.9999929567033174e-01
1.1599999999999975e+01 +9.1194568321118545e+00 +0.0000000000000000e+00 +1.1599997229334962e+01 -1.1971921074731171e-03 +0.0000000000000000e+00 +9.9999928336527222e-01
1.1699999999999974e+01 +9.1193365967620306e+00 +0.0000000000000000e+00 +1.1699997157051795e+01 -1.2075148926266768e-03 +0.0000000000000000e+00 +9.9999927095362640e-01
1.1799999999999974e+01 +9.1192153291326203e+00 +0.0000000000000000e+00 +1.1799997083522134e+01 -1.2178376990521519e-03 +0.0000000000000000e+00 +9.9999925843539450e-01
