# trajectory
# s[mm] rx[mm] ry[mm] rz[mm] px[rad] py[rad] pz[rad]
0.0000000000000000e+00 +9.0938999999999997e+00 +0.0000000000000000e+00 +0.0000000000000000e+00 +0.0000000000000000e+00 +0.0000000000000000e+00 +1.0000000000000000e+00
-1.0000000000000001e-01 +9.0938994832171165e+00 +0.0000000000000000e+00 -9.9999999998219555e-02 +1.0335655772305939e-05 +0.0000000000000000e+00 +9.9999999994658706e-01
-2.0000000000000001e-01 +9.0938979328692344e+00 +0.0000000000000000e+00 -1.9999999998575654e-01 +2.0671299859698018e-05 +0.0000000000000000e+00 +9.9999999978634868e-01
-3.0000000000000004e-01 +9.0938953489575525e+00 +0.0000000000000000e+00 -2.9999999995192844e-01 +3.1006931677721721e-05 +0.0000000000000000e+00 +9.9999999951928509e-01
-4.0000000000000002e-01 +9.0938917314833230e+00 +0.0000000000000000e+00 -3.9999999988605273e-01 +4.1342550750042223e-05 +0.0000000000000000e+00 +9.9999999914539672e-01
-5.0000000000000000e-01 +9.0938870804478391e+00 +0.0000000000000000e+00 -4.9999999977744697e-01 +5.1678156708446426e-05 +0.0000000000000000e+00 +9.9999999866468403e-01
-5.9999999999999998e-01 +9.0938813958524261e+00 +0.0000000000000000e+00 -5.9999999961542871e-01 +6.2013749292845724e-05 +0.0000000000000000e+00 +9.9999999807714746e-01
-6.9999999999999996e-01 +9.0938746776984303e+00 +0.0000000000000000e+00 -6.9999999938931567e-01 +7.2349328351279497e-05 +0.0000000000000000e+00 +9.9999999738278733e-01
-7.9999999999999993e-01 +9.0938669259872071e+00 +0.0000000000000000e+00 -7.9999999908842545e-01 +8.2684893839919354e-05 +0.0000000000000000e+00 +9.9999999658160410e-01
-8.9999999999999991e-01 +9.0938581407201120e+00 +0.0000000000000000e+00 -8.9999999870207570e-01 +9.3020445823074110e-05 +0.0000000000000000e+00 +9.9999999567359821e-01
-9.9999999999999989e-01 +9.0938483218984878e+00 +0.0000000000000000e+00 -9.9999999821958430e-01 +1.0335598447319546e-04 +0.0000000000000000e+00 +9.9999999465877010e-01
-1.0999999999999999e+00 +9.0938374695236526e+00 +0.0000000000000000e+00 -1.0999999976302690e+00 +1.1369151007088441e-04 +0.0000000000000000e+00 +9.9999999353712010e-01
-1.2000000000000000e+00 +9.0938255835968960e+00 +0.0000000000000000e+00 -1.1999999969234476e+00 +1.2402702300489847e-04 +0.0000000000000000e+00 +9.9999999230864856e-01
-1.3000000000000000e+00 +9.0938126641194579e+00 +0.0000000000000000e+00 -1.2999999960884381e+00 +1.3436252377215953e-04 +0.0000000000000000e+00 +9.9999999097335590e-01
-1.4000000000000001e+00 +9.0937987110925267e+00 +0.0000000000000000e+00 -1.3999999951145581e+00 +1.4469801297776249e-04 +0.0000000000000000e+00 +9.9999998953124225e-01
-1.5000000000000002e+00 +9.0937837245172233e+00 +0.0000000000000000e+00 -1.4999999939911257e+00 +1.5503349133498464e-04 +0.0000000000000000e+00 +9.9999998798230805e-01
-1.6000000000000003e+00 +9.0937677043945939e+00 +0.0000000000000000e+00 -1.5999999927074589e+00 +1.6536895966369778e-04 +0.0000000000000000e+00 +9.9999998632655329e-01
-1.7000000000000004e+00 +9.0937506507255943e+00 +0.0000000000000000e+00 -1.6999999912528756e+00 +1.7570441887280154e-04 +0.0000000000000000e+00 +9.9999998456397832e-01
-1.8000000000000005e+00 +9.0937325635110895e+00 +0.0000000000000000e+00 -1.7999999896166938e+00 +1.8603986994265701e-04 +0.0000000000000000e+00 +9.9999998269458312e-01
-1.9000000000000006e+00 +9.0937134427518416e+00 +0.0000000000000000e+00 -1.8999999877882314e+00 +1.9637531392350068e-04 +0.0000000000000000e+00 +9.9999998071836771e-01
-2.0000000000000004e+00 +9.0936932884485042e+00 +0.0000000000000000e+00 -1.9999999857568065e+00 +2.0671075193545675e-04 +0.0000000000000000e+00 +9.9999997863533219e-01
-2.1000000000000005e+00 +9.0936721006016139e+00 +0.0000000000000000e+00 -2.0999999835117369e+00 +2.1704618516855026e-04 +0.0000000000000000e+00 +9.9999997644547634e-01
-2.2000000000000006e+00 +9.0936498792115881e+00 +0.0000000000000000e+00 -2.1999999810423407e+00 +2.2738161488272088e-04 +0.0000000000000000e+00 +9.9999997414880015e-01
-2.3000000000000007e+00 +9.0936266242787109e+00 +0.0000000000000000e+00 -2.2999999783379361e+00 +2.3771704240783725e-04 +0.0000000000000000e+00 +9.9999997174530331e-01
-2.4000000000000008e+00 +9.0936023358031335e+00 +0.0000000000000000e+00 -2.3999999753878409e+00 +2.4805246914371207e-04 +0.0000000000000000e+00 +9.9999996923498569e-01
-2.5000000000000009e+00 +9.0935770137848611e+00 +0.0000000000000000e+00 -2.4999999721813726e+00 +2.5838789656011787e-04 +0.0000000000000000e+00 +9.9999996661784674e-01
-2.6000000000000010e+00 +9.0935506582237480e+00 +0.0000000000000000e+00 -2.5999999687078494e+00 +2.6872332619680341e-04 +0.0000000000000000e+00 +9.9999996389388612e-01
-2.7000000000000011e+00 +9.0935232691194940e+00 +0.0000000000000000e+00 -2.6999999649565889e+00 +2.7905875966351059e-04 +0.0000000000000000e+00 +9.9999996106310340e-01
-2.8000000000000012e+00 +9.0934948464716321e+00 +0.0000000000000000e+00 -2.7999999609169093e+00 +2.8939419863999231e-04 +0.0000000000000000e+00 +9.9999995812549780e-01
-2.9000000000000012e+00 +9.0934653902795244e+00 +0.0000000000000000e+00 -2.8999999565781276e+00 +2.9972964487603087e-04 +0.0000000000000000e+00 +9.9999995508106876e-01
-3.0000000000000013e+00 +9.0934349005423538e+00 +0.0000000000000000e+00 -2.9999999519295621e+00 +3.1006510019145690e-04 +0.0000000000000000e+00 +9.9999995192981539e-01
-3.1000000000000014e+00 +9.0934033772591203e+00 +0.0000000000000000e+00 -3.0999999469605299e+00 +3.2040056647616912e-04 +0.0000000000000000e+00 +9.9999994867173692e-01
-3.2000000000000015e+00 +9.0933708204286283e+00 +0.0000000000000000e+00 -3.1999999416603488e+00 +3.3073604569015466e-04 +0.0000000000000000e+00 +9.9999994530683223e-01
-3.3000000000000016e+00 +9.0933372300494835e+00 +0.0000000000000000e+00 -3.2999999360183359e+00 +3.4107153986351021e-04 +0.0000000000000000e+00 +9.9999994183510033e-01
-3.4000000000000017e+00 +9.0933026061200870e+00 +0.0000000000000000e+00 -3.3999999300238080e+00 +3.5140705109646357e-04 +0.0000000000000000e+00 +9.9999993825653999e-01
-3.5000000000000018e+00 +9.0932669486386235e+00 +0.0000000000000000e+00 -3.4999999236660826e+00 +3.6174258155939604e-04 +0.0000000000000000e+00 +9.9999993457114988e-01
-3.6000000000000019e+00 +9.0932302576030590e+00 +0.0000000000000000e+00 -3.5999999169344767e+00 +3.7207813348302343e-04 +0.0000000000000000e+00 +9.9999993077892857e-01
-3.7000000000000020e+00 +9.0931925330111376e+00 +0.0000000000000000e+00 -3.6999999098183070e+00 +3.8241370905015226e-04 +0.0000000000000000e+00 +9.9999992687987460e-01
-3.8000000000000020e+00 +9.0931537748603919e+00 +0.0000000000000000e+00 -3.7999999023068902e+00 +3.9274931028741638e-04 +0.0000000000000000e+00 +9.9999992287398642e-01
-3.9000000000000021e+00 +9.0931139831481609e+00 +0.0000000000000000e+00 -3.8999998943895431e+00 +4.0308493905542229e-04 +0.0000000000000000e+00 +9.9999991876126237e-01
-4.0000000000000018e+00 +9.0930731578716060e+00 +0.0000000000000000e+00 -3.9999998860555817e+00 +4.1342059704873408e-04 +0.0000000000000000e+00 +9.9999991454170101e-01
-4.1000000000000014e+00 +9.0930312990277251e+00 +0.0000000000000000e+00 -4.0999998772943220e+00 +4.2375628579585677e-04 +0.0000000000000000e+00 +9.9999991021530077e-01
-4.2000000000000011e+00 +9.0929884066133759e+00 +0.0000000000000000e+00 -4.1999998680950803e+00 +4.3409200665921763e-04 +0.0000000000000000e+00 +9.9999990578206011e-01
-4.3000000000000007e+00 +9.0929444806252828e+00 +0.0000000000000000e+00 -4.2999998584471726e+00 +4.4442776083514592e-04 +0.0000000000000000e+00 +9.9999990124197746e-01
-4.4000000000000004e+00 +9.0928995210600636e+00 +0.0000000000000000e+00 -4.3999998483399141e+00 +4.5476354935385056e-04 +0.0000000000000000e+00 +9.9999989659505140e-01
-4.5000000000000000e+00 +9.0928535279142384e+00 +0.0000000000000000e+00 -4.4999998377626209e+00 +4.6509937307939622e-04 +0.0000000000000000e+00 +9.9999989184128035e-01
-4.5999999999999996e+00 +9.0928065011842509e+00 +0.0000000000000000e+00 -4.5999998267046083e+00 +4.7543523270967761e-04 +0.0000000000000000e+00 +9.9999988698066300e-01
-4.6999999999999993e+00 +9.0927584408664828e+00 +0.0000000000000000e+00 -4.6999998151551914e+00 +4.8577112877639181e-04 +0.0000000000000000e+00 +9.9999988201319789e-01
-4.7999999999999989e+00 +9.0927093469572693e+00 +0.0000000000000000e+00 -4.7999998031036855e+00 +4.9610706164500884e-04 +0.0000000000000000e+00 +9.9999987693888370e-01
-4.8999999999999986e+00 +9.0926592194529192e+00 +0.0000000000000000e+00 -4.8999997905394057e+00 +5.0644303151474066e-04 +0.0000000000000000e+00 +9.9999987175771932e-01
-4.9999999999999982e+00 +9.0926080583497306e+00 +0.0000000000000000e+00 -4.9999997774516673e+00 +5.1677903841850794e-04 +0.0000000000000000e+00 +9.9999986646970340e-01
-5.0999999999999979e+00 +9.0925558636440051e+00 +0.0000000000000000e+00 -5.0999997638297847e+00 +5.2711508222290544e-04 +0.0000000000000000e+00 +9.9999986107483496e-01
-5.1999999999999975e+00 +9.0925026353320657e+00 +0.0000000000000000e+00 -5.1999997496630730e+00 +5.3745116262816526e-04 +0.0000000000000000e+00 +9.9999985557311299e-01
-5.2999999999999972e+00 +9.0924483734102743e+00 +0.0000000000000000e+00 -5.2999997349408456e+00 +5.4778727916811852e-04 +0.0000000000000000e+00 +9.9999984996453661e-01
-5.3999999999999968e+00 +9.0923930778750481e+00 +0.0000000000000000e+00 -5.3999997196524179e+00 +5.5812343121015525e-04 +0.0000000000000000e+00 +9.9999984424910515e-01
-5.4999999999999964e+00 +9.0923367487228752e+00 +0.0000000000000000e+00 -5.4999997037871049e+00 +5.6845961795518225e-04 +0.0000000000000000e+00 +9.9999983842681783e-01
-5.5999999999999961e+00 +9.0922793859503326e+00 +0.0000000000000000e+00 -5.5999996873342202e+00 +5.7879583844355146e-04 +0.0000000000000000e+00 +9.9999983249767421e-01
-5.6999999999999957e+00 +9.0922209895540966e+00 +0.0000000000000000e+00 -5.6999996702830780e+00 +5.8913209162071299e-04 +0.0000000000000000e+00 +9.9999982646167385e-01
-5.7999999999999954e+00 +9.0921615595309540e+00 +0.0000000000000000e+00 -5.7999996526229927e+00 +5.9946837640288968e-04 +0.0000000000000000e+00 +9.9999982031881629e-01
-5.8999999999999950e+00 +9.0921010958777995e+00 +0.0000000000000000e+00 -5.8999996343432795e+00 +6.0980469168304009e-04 +0.0000000000000000e+00 +9.9999981406910132e-01
-5.9999999999999947e+00 +9.0920395985916382e+00 +0.0000000000000000e+00 -5.9999996154332518e+00 +6.2014103633085081e-04 +0.0000000000000000e+00 +9.9999980771252861e-01
-6.0999999999999943e+00 +9.0919770676695926e+00 +0.0000000000000000e+00 -6.0999995958822240e+00 +6.3047740919272837e-04 +0.0000000000000000e+00 +9.9999980124909804e-01
-6.1999999999999940e+00 +9.0919135031088985e+00 +0.0000000000000000e+00 -6.1999995756795094e+00 +6.4081380909179091e-04 +0.0000000000000000e+00 +9.9999979467880951e-01
-6.2999999999999936e+00 +9.0918489049069127e+00 +0.0000000000000000e+00 -6.2999995548144234e+00 +6.5115023482786025e-04 +0.0000000000000000e+00 +9.9999978800166289e-01
-6.3999999999999932e+00 +9.0917832730611128e+00 +0.0000000000000000e+00 -6.3999995332762802e+00 +6.6148668517745349e-04 +0.0000000000000000e+00 +9.9999978121765820e-01
-6.4999999999999929e+00 +9.0917166075690989e+00 +0.0000000000000000e+00 -6.4999995110543933e+00 +6.7182315889377476e-04 +0.0000000000000000e+00 +9.9999977432679554e-01
-6.5999999999999925e+00 +9.0916489084285974e+00 +0.0000000000000000e+00 -6.5999994881380770e+00 +6.8215965470670725e-04 +0.0000000000000000e+00 +9.9999976732907514e-01
-6.6999999999999922e+00 +9.0915801756374641e+00 +0.0000000000000000e+00 -6.6999994645166465e+00 +6.9249617132280438e-04 +0.0000000000000000e+00 +9.9999976022449710e-01
-6.7999999999999918e+00 +9.0915104091936829e+00 +0.0000000000000000e+00 -6.7999994401794153e+00 +7.0283270742528179e-04 +0.0000000000000000e+00 +9.9999975301306165e-01
-6.8999999999999915e+00 +9.0914396090953744e+00 +0.0000000000000000e+00 -6.8999994151156976e+00 +7.1316926167400900e-04 +0.0000000000000000e+00 +9.9999974569476924e-01
-6.9999999999999911e+00 +9.0913677753407889e+00 +0.0000000000000000e+00 -6.9999993893148078e+00 +7.2350583270550063e-04 +0.0000000000000000e+00 +9.9999973826962019e-01
-7.0999999999999908e+00 +9.0912949079283187e+00 +0.0000000000000000e+00 -7.0999993627660603e+00 +7.3384241913290813e-04 +0.0000000000000000e+00 +9.9999973073761506e-01
-7.1999999999999904e+00 +9.0912210068564949e+00 +0.0000000000000000e+00 -7.1999993354587692e+00 +7.4417901954601138e-04 +0.0000000000000000e+00 +9.9999972309875451e-01
-7.2999999999999901e+00 +9.0911460721239905e+00 +0.0000000000000000e+00 -7.2999993073822491e+00 +7.5451563251120995e-04 +0.0000000000000000e+00 +9.9999971535303900e-01
-7.3999999999999897e+00 +9.0910701037296224e+00 +0.0000000000000000e+00 -7.3999992785258151e+00 +7.6485225657151447e-04 +0.0000000000000000e+00 +9.9999970750046940e-01
-7.4999999999999893e+00 +9.0909931016723551e+00 +0.0000000000000000e+00 -7.4999992488787814e+00 +7.7518889024653849e-04 +0.0000000000000000e+00 +9.9999969954104651e-01
-7.5999999999999890e+00 +9.0909150659513021e+00 +0.0000000000000000e+00 -7.5999992184304626e+00 +7.8552553203551593e-04 +0.0000000000000000e+00 +9.9999969147477108e-01
-7.6999999999999886e+00 +9.0908359965657262e+00 +0.0000000000000000e+00 -7.6999991871701736e+00 +7.9586218045058735e-04 +0.0000000000000000e+00 +9.9999968330164413e-01
-7.7999999999999883e+00 +9.0907558935150377e+00 +0.0000000000000000e+00 -7.7999991550872299e+00 +8.0619883405008415e-04 +0.0000000000000000e+00 +9.9999967502166665e-01
-7.8999999999999879e+00 +9.0906747567987889e+00 +0.0000000000000000e+00 -7.8999991221709456e+00 +8.1653549144154269e-04 +0.0000000000000000e+00 +9.9999966663483952e-01
-7.9999999999999876e+00 +9.0905925864166672e+00 +0.0000000000000000e+00 -7.9999990884106360e+00 +8.2687215128169169e-04 +0.0000000000000000e+00 +9.9999965814116376e-01
-8.0999999999999872e+00 +9.0905093823684933e+00 +0.0000000000000000e+00 -8.0999990537956172e+00 +8.3720881227643913e-04 +0.0000000000000000e+00 +9.9999964954064036e-01
-8.1999999999999869e+00 +9.0904251446542155e+00 +0.0000000000000000e+00 -8.1999990183152036e+00 +8.4754547318085919e-04 +0.0000000000000000e+00 +9.9999964083327042e-01
-8.2999999999999865e+00 +9.0903398732739014e+00 +0.0000000000000000e+00 -8.2999989819587103e+00 +8.5788213279917880e-04 +0.0000000000000000e+00 +9.9999963201905484e-01
-8.3999999999999861e+00 +9.0902535682277374e+00 +0.0000000000000000e+00 -8.3999989447154526e+00 +8.6821878998476416e-04 +0.0000000000000000e+00 +9.9999962309799473e-01
-8.4999999999999858e+00 +9.0901662295160222e+00 +0.0000000000000000e+00 -8.4999989065747474e+00 +8.7855544364010712e-04 +0.0000000000000000e+00 +9.9999961407009119e-01
-8.5999999999999854e+00 +9.0900778571391623e+00 +0.0000000000000000e+00 -8.5999988675259100e+00 +8.8889209271681108e-04 +0.0000000000000000e+00 +9.9999960493534512e-01
-8.6999999999999851e+00 +9.0899884510976658e+00 +0.0000000000000000e+00 -8.6999988275582556e+00 +8.9922873621557729e-04 +0.0000000000000000e+00 +9.9999959569375763e-01
-8.7999999999999847e+00 +9.0898980113921368e+00 +0.0000000000000000e+00 -8.7999987866611011e+00 +9.0956537318619027e-04 +0.0000000000000000e+00 +9.9999958634532982e-01
-8.8999999999999844e+00 +9.0898065380232751e+00 +0.0000000000000000e+00 -8.8999987448237619e+00 +9.1990200272750377e-04 +0.0000000000000000e+00 +9.9999957689006258e-01
-8.9999999999999840e+00 +9.0897140309918676e+00 +0.0000000000000000e+00 -8.9999987020355530e+00 +9.3023862398742576e-04 +0.0000000000000000e+00 +9.9999956732795703e-01
-9.0999999999999837e+00 +9.0896204902987812e+00 +0.0000000000000000e+00 -9.0999986582857915e+00 +9.4057523616290404e-04 +0.0000000000000000e+00 +9.9999955765901416e-01
-9.1999999999999833e+00 +9.0895259159449626e+00 +0.0000000000000000e+00 -9.1999986135637943e+00 +9.5091183849991103e-04 +0.0000000000000000e+00 +9.9999954788323497e-01
-9.2999999999999829e+00 +9.0894303079314316e+00 +0.0000000000000000e+00 -9.2999985678588768e+00 +9.6124843029342876e-04 +0.0000000000000000e+00 +9.9999953800062036e-01
-9.3999999999999826e+00 +9.0893336662592770e+00 +0.0000000000000000e+00 -9.3999985211603558e+00 +9.7158501088743360e-04 +0.0000000000000000e+00 +9.9999952801117142e-01
-9.4999999999999822e+00 +9.0892359909296481e+00 +0.0000000000000000e+00 -9.4999984734575484e+00 +9.8192157967488054e-04 +0.0000000000000000e+00 +9.9999951791488895e-01
-9.5999999999999819e+00 +9.0891372819437546e+00 +0.0000000000000000e+00 -9.5999984247397716e+00 +9.9225813609658971e-04 +0.0000000000000000e+00 +9.9999950771177393e-01
-9.6999999999999815e+00 +9.0890375393028595e+00 +0.0000000000000000e+00 -9.6999983749963423e+00 +1.0025946796291499e-03 +0.0000000000000000e+00 +9.9999949740182736e-01
-9.7999999999999812e+00 +9.0889367630082756e+00 +0.0000000000000000e+00 -9.7999983242165758e+00 +1.0129312097728262e-03 +0.0000000000000000e+00 +9.9999948698505003e-01
-9.8999999999999808e+00 +9.0888349530613670e+00 +0.0000000000000000e+00 -9.8999982723897908e+00 +1.0232677260504505e-03 +0.0000000000000000e+00 +9.9999947646144283e-01
-9.9999999999999805e+00 +9.0887321094635425e+00 +0.0000000000000000e+00 -9.9999982195053043e+00 +1.0336042280074112e-03 +0.0000000000000000e+00 +9.9999946583100674e-01
-1.0099999999999980e+01 +9.0886282322162568e+00 +0.0000000000000000e+00 -1.0099998165552432e+01 +1.0439407152116431e-03 +0.0000000000000000e+00 +9.9999945509374255e-01
-1.0199999999999980e+01 +9.0885233213210057e+00 +0.0000000000000000e+00 -1.0199998110520491e+01 +1.0542771872536166e-03 +0.0000000000000000e+00 +9.9999944424965126e-01
-1.0299999999999979e+01 +9.0884173767793239e+00 +0.0000000000000000e+00 -1.0299998054398801e+01 +1.0646136437463274e-03 +0.0000000000000000e+00 +9.9999943329873364e-01
-1.0399999999999979e+01 +9.0883103985927871e+00 +0.0000000000000000e+00 -1.0399997997176676e+01 +1.0749500843252856e-03 +0.0000000000000000e+00 +9.9999942224099070e-01
-1.0499999999999979e+01 +9.0882023867630011e+00 +0.0000000000000000e+00 -1.0499997938843437e+01 +1.0852865086485050e-03 +0.0000000000000000e+00 +9.9999941107642321e-01
-1.0599999999999978e+01 +9.0880933412916090e+00 +0.0000000000000000e+00 -1.0599997879388400e+01 +1.0956229163964935e-03 +0.0000000000000000e+00 +9.9999939980503194e-01
-1.0699999999999978e+01 +9.0879832621802841e+00 +0.0000000000000000e+00 -1.0699997818800883e+01 +1.1059593072722414e-03 +0.0000000000000000e+00 +9.9999938842681779e-01
-1.0799999999999978e+01 +9.0878721494307264e+00 +0.0000000000000000e+00 -1.0799997757070203e+01 +1.1162956810012107e-03 +0.0000000000000000e+00 +9.9999937694178165e-01
-1.0899999999999977e+01 +9.0877600030446644e+00 +0.0000000000000000e+00 -1.0899997694185679e+01 +1.1266320373313251e-03 +0.0000000000000000e+00 +9.9999936534992429e-01
-1.0999999999999977e+01 +9.0876468230238476e+00 +0.0000000000000000e+00 -1.0999997630136628e+01 +1.1369683760329588e-03 +0.0000000000000000e+00 +9.9999935365124648e-01
-1.1099999999999977e+01 +9.0875326093700508e+00 +0.0000000000000000e+00 -1.1099997564912368e+01 +1.1473046968989258e-03 +0.0000000000000000e+00 +9.9999934184574901e-01
-1.1199999999999976e+01 +9.0874173620850680e+00 +0.0000000000000000e+00 -1.1199997498502217e+01 +1.1576409997444683e-03 +0.0000000000000000e+00 +9.9999932993343277e-01
-1.1299999999999976e+01 +9.0873010811707076e+00 +0.0000000000000000e+00 -1.1299997430895493e+01 +1.1679772844072475e-03 +0.0000000000000000e+00 +9.9999931791429830e-01
-1.1399999999999975e+01 +9.0871837666287973e+00 +0.0000000000000000e+00 -1.1399997362081516e+01 +1.1783135507473310e-03 +0.0000000000000000e+00 +9.9999930578834650e-01
-1.1499999999999975e+01 +9.0870654184611741e+00 +0.0000000000000000e+00 -1.1499997292049603e+01 +1.1886497986471828e-03 +0.0000000000000000e+00 +9.9999929355557793e-01
-1.1599999999999975e+01 +9.0869460366696870e+00 +0.0000000000000000e+00 -1.1599997220789071e+01 +1.1989860280150009e-03 +0.0000000000000000e+00 +9.9999928121599335e-01
-1.1699999999999974e+01 +9.0868256212561906e+00 +0.0000000000000000e+00 -1.1699997148289240e+01 +1.2093222388215598e-03 +0.0000000000000000e+00 +9.9999926876959333e-01
