# trajectory
# s[mm] rx[mm] ry[mm] rz[mm] px[rad] py[rad] pz[rad]
0.0000000000000000e+00 +9.0449999999999999e+00 +0.0000000000000000e+00 +0.0000000000000000e+00 +0.0000000000000000e+00 +0.0000000000000000e+00 +1.0000000000000000e+00
-1.0000000000000001e-01 +9.0449994835651957e+00 +0.0000000000000000e+00 -9.9999999998221969e-02 +1.0328695675454008e-05 +0.0000000000000000e+00 +9.9999999994665900e-01
-2.0000000000000001e-01 +9.0449979342609339e+00 +0.0000000000000000e+00 -1.9999999998577575e-01 +2.0657389291841109e-05 +0.0000000000000000e+00 +9.9999999978663612e-01
-3.0000000000000004e-01 +9.0449953520873816e+00 +0.0000000000000000e+00 -2.9999999995199311e-01 +3.0986081573606476e-05 +0.0000000000000000e+00 +9.9999999951993135e-01
-4.0000000000000002e-01 +9.0449917370446435e+00 +0.0000000000000000e+00 -3.9999999988620594e-01 +4.1314773105401526e-05 +0.0000000000000000e+00 +9.9999999914654469e-01
-5.0000000000000000e-01 +9.0449870891327713e+00 +0.0000000000000000e+00 -4.9999999977774601e-01 +5.1643464332073015e-05 +0.0000000000000000e+00 +9.9999999866647626e-01
-5.9999999999999998e-01 +9.0449814083517772e+00 +0.0000000000000000e+00 -5.9999999961594508e-01 +6.1972155558652991e-05 +0.0000000000000000e+00 +9.9999999807972595e-01
-6.9999999999999996e-01 +9.0449746947016543e+00 +0.0000000000000000e+00 -6.9999999939013513e-01 +7.2300846950349598e-05 +0.0000000000000000e+00 +9.9999999738629375e-01
-7.9999999999999993e-01 +9.0449669481823811e+00 +0.0000000000000000e+00 -7.9999999908964781e-01 +8.2629538532538711e-05 +0.0000000000000000e+00 +9.9999999658617966e-01
-8.9999999999999991e-01 +9.0449581687939453e+00 +0.0000000000000000e+00 -8.9999999870381497e-01 +9.2958230190756403e-05 +0.0000000000000000e+00 +9.9999999567938369e-01
-9.9999999999999989e-01 +9.0449483565363487e+00 +0.0000000000000000e+00 -9.9999999822196850e-01 +1.0328692167069231e-04 +0.0000000000000000e+00 +9.9999999466590583e-01
-1.0999999999999999e+00 +9.0449375114096302e+00 +0.0000000000000000e+00 -1.0999999976334400e+00 +1.1361561257818375e-04 +0.0000000000000000e+00 +9.9999999354574620e-01
-1.2000000000000000e+00 +9.0449256334138699e+00 +0.0000000000000000e+00 -1.1999999969275617e+00 +1.2394430237921083e-04 +0.0000000000000000e+00 +9.9999999231890491e-01
-1.3000000000000000e+00 +9.0449127225492134e+00 +0.0000000000000000e+00 -1.2999999960936650e+00 +1.3427299039989226e-04 +0.0000000000000000e+00 +9.9999999098538195e-01
-1.4000000000000001e+00 +9.0448987788158774e+00 +0.0000000000000000e+00 -1.3999999951210820e+00 +1.4460167582648205e-04 +0.0000000000000000e+00 +9.9999998954517755e-01
-1.5000000000000002e+00 +9.0448838022141675e+00 +0.0000000000000000e+00 -1.4999999939991444e+00 +1.5493035770536713e-04 +0.0000000000000000e+00 +9.9999998799829204e-01
-1.6000000000000003e+00 +9.0448677927444923e+00 +0.0000000000000000e+00 -1.5999999927171844e+00 +1.6525903495003604e-04 +0.0000000000000000e+00 +9.9999998634472553e-01
-1.7000000000000004e+00 +9.0448507504073703e+00 +0.0000000000000000e+00 -1.6999999912645336e+00 +1.7558770641775315e-04 +0.0000000000000000e+00 +9.9999998458447847e-01
-1.8000000000000005e+00 +9.0448326752034376e+00 +0.0000000000000000e+00 -1.7999999896305241e+00 +1.8591637098623585e-04 +0.0000000000000000e+00 +9.9999998271755131e-01
-1.9000000000000006e+00 +9.0448135671334384e+00 +0.0000000000000000e+00 -1.8999999878044880e+00 +1.9624502756063084e-04 +0.0000000000000000e+00 +9.9999998074394436e-01
-2.0000000000000004e+00 +9.0447934261982272e+00 +0.0000000000000000e+00 -1.9999999857757571e+00 +2.0657367507352143e-04 +0.0000000000000000e+00 +9.9999997866365808e-01
-2.1000000000000005e+00 +9.0447722523987615e+00 +0.0000000000000000e+00 -2.0999999835336638e+00 +2.1690231248493638e-04 +0.0000000000000000e+00 +9.9999997647669303e-01
-2.2000000000000006e+00 +9.0447500457361016e+00 +0.0000000000000000e+00 -2.1999999810675401e+00 +2.2723093878236023e-04 +0.0000000000000000e+00 +9.9999997418304976e-01
-2.3000000000000007e+00 +9.0447268062114095e+00 +0.0000000000000000e+00 -2.2999999783667180e+00 +2.3755955298074508e-04 +0.0000000000000000e+00 +9.9999997178272881e-01
-2.4000000000000008e+00 +9.0447025338259408e+00 +0.0000000000000000e+00 -2.3999999754205299e+00 +2.4788815412252402e-04 +0.0000000000000000e+00 +9.9999996927573087e-01
-2.5000000000000009e+00 +9.0446772285810511e+00 +0.0000000000000000e+00 -2.4999999722183084e+00 +2.5821674127762584e-04 +0.0000000000000000e+00 +9.9999996666205648e-01
-2.6000000000000010e+00 +9.0446508904781826e+00 +0.0000000000000000e+00 -2.5999999687493855e+00 +2.6854531354349149e-04 +0.0000000000000000e+00 +9.9999996394170643e-01
-2.7000000000000011e+00 +9.0446235195188684e+00 +0.0000000000000000e+00 -2.6999999650030939e+00 +2.7887387004509181e-04 +0.0000000000000000e+00 +9.9999996111468137e-01
-2.8000000000000012e+00 +9.0445951157047269e+00 +0.0000000000000000e+00 -2.7999999609687660e+00 +2.8920240993494695e-04 +0.0000000000000000e+00 +9.9999995818098197e-01
-2.9000000000000012e+00 +9.0445656790374613e+00 +0.0000000000000000e+00 -2.8999999566357344e+00 +2.9953093239314707e-04 +0.0000000000000000e+00 +9.9999995514060902e-01
-3.0000000000000013e+00 +9.0445352095188554e+00 +0.0000000000000000e+00 -2.9999999519933320e+00 +3.0985943662737477e-04 +0.0000000000000000e+00 +9.9999995199356340e-01
-3.1000000000000014e+00 +9.0445037071507688e+00 +0.0000000000000000e+00 -3.0999999470308914e+00 +3.2018792187292889e-04 +0.0000000000000000e+00 +9.9999994873984577e-01
-3.2000000000000015e+00 +9.0444711719351378e+00 +0.0000000000000000e+00 -3.1999999417377456e+00 +3.3051638739274981e-04 +0.0000000000000000e+00 +9.9999994537945713e-01
-3.3000000000000016e+00 +9.0444376038739716e+00 +0.0000000000000000e+00 -3.2999999361032271e+00 +3.4084483247744633e-04 +0.0000000000000000e+00 +9.9999994191239816e-01
-3.4000000000000017e+00 +9.0444030029693465e+00 +0.0000000000000000e+00 -3.3999999301166692e+00 +3.5117325644532394e-04 +0.0000000000000000e+00 +9.9999993833866985e-01
-3.5000000000000018e+00 +9.0443673692234086e+00 +0.0000000000000000e+00 -3.4999999237674051e+00 +3.6150165864241477e-04 +0.0000000000000000e+00 +9.9999993465827308e-01
-3.6000000000000019e+00 +9.0443307026383657e+00 +0.0000000000000000e+00 -3.5999999170447681e+00 +3.7183003844459703e-04 +0.0000000000000000e+00 +9.9999993087120864e-01
-3.7000000000000020e+00 +9.0442930032164863e+00 +0.0000000000000000e+00 -3.6999999099380911e+00 +3.8215839528059494e-04 +0.0000000000000000e+00 +9.9999992697747753e-01
-3.8000000000000020e+00 +9.0442542709600922e+00 +0.0000000000000000e+00 -3.7999999024367077e+00 +3.9248672865495977e-04 +0.0000000000000000e+00 +9.9999992297708074e-01
-3.9000000000000021e+00 +9.0442145058715511e+00 +0.0000000000000000e+00 -3.8999998945299517e+00 +4.0281503815015681e-04 +0.0000000000000000e+00 +9.9999991887001904e-01
-4.0000000000000018e+00 +9.0441737079532700e+00 +0.0000000000000000e+00 -3.9999998862071560e+00 +4.1314332342656226e-04 +0.0000000000000000e+00 +9.9999991465629334e-01
-4.1000000000000014e+00 +9.0441318772076826e+00 +0.0000000000000000e+00 -4.0999998774576545e+00 +4.2347158422245928e-04 +0.0000000000000000e+00 +9.9999991033590452e-01
-4.2000000000000011e+00 +9.0440890136372474e+00 +0.0000000000000000e+00 -4.1999998682707815e+00 +4.3379982035403303e-04 +0.0000000000000000e+00 +9.9999990590885335e-01
-4.3000000000000007e+00 +9.0440451172444369e+00 +0.0000000000000000e+00 -4.2999998586358696e+00 +4.4412803171536499e-04 +0.0000000000000000e+00 +9.9999990137514072e-01
-4.4000000000000004e+00 +9.0440001880317311e+00 +0.0000000000000000e+00 -4.3999998485422536e+00 +4.5445621827842588e-04 +0.0000000000000000e+00 +9.9999989673476741e-01
-4.5000000000000000e+00 +9.0439542260016061e+00 +0.0000000000000000e+00 -4.4999998379792672e+00 +4.6478438009306823e-04 +0.0000000000000000e+00 +9.9999989198773409e-01
-4.5999999999999996e+00 +9.0439072311565329e+00 +0.0000000000000000e+00 -4.5999998269362452e+00 +4.7511251728701734e-04 +0.0000000000000000e+00 +9.9999988713404153e-01
-4.6999999999999993e+00 +9.0438592034989629e+00 +0.0000000000000000e+00 -4.6999998154025207e+00 +4.8544063006586197e-04 +0.0000000000000000e+00 +9.9999988217369029e-01
-4.7999999999999989e+00 +9.0438101430313242e+00 +0.0000000000000000e+00 -4.7999998033674283e+00 +4.9576871871304345e-04 +0.0000000000000000e+00 +9.9999987710668115e-01
-4.8999999999999986e+00 +9.0437600497560133e+00 +0.0000000000000000e+00 -4.8999997908203019e+00 +5.0609678358984442e-04 +0.0000000000000000e+00 +9.9999987193301454e-01
-4.9999999999999982e+00 +9.0437089236753838e+00 +0.0000000000000000e+00 -4.9999997777504763e+00 +5.1642482513537618e-04 +0.0000000000000000e+00 +9.9999986665269103e-01
-5.0999999999999979e+00 +9.0436567647917467e+00 +0.0000000000000000e+00 -5.0999997641472854e+00 +5.2675284386656518e-04 +0.0000000000000000e+00 +9.9999986126571105e-01
-5.1999999999999975e+00 +9.0436035731073527e+00 +0.0000000000000000e+00 -5.1999997500000639e+00 +5.3708084037813872e-04 +0.0000000000000000e+00 +9.9999985577207495e-01
-5.2999999999999972e+00 +9.0435493486243903e+00 +0.0000000000000000e+00 -5.2999997352981456e+00 +5.4740881534260982e-04 +0.0000000000000000e+00 +9.9999985017178317e-01
-5.3999999999999968e+00 +9.0434940913449768e+00 +0.0000000000000000e+00 -5.3999997200308654e+00 +5.5773676951026061e-04 +0.0000000000000000e+00 +9.9999984446483581e-01
-5.4999999999999964e+00 +9.0434378012711534e+00 +0.0000000000000000e+00 -5.4999997041875579e+00 +5.6806470370912533e-04 +0.0000000000000000e+00 +9.9999983865123310e-01
-5.5999999999999961e+00 +9.0433804784048704e+00 +0.0000000000000000e+00 -5.5999996877575571e+00 +5.7839261884009858e-04 +0.0000000000000000e+00 +9.9999983273097515e-01
-5.6999999999999957e+00 +9.0433221227479894e+00 +0.0000000000000000e+00 -5.6999996707301976e+00 +5.8872051582331130e-04 +0.0000000000000000e+00 +9.9999982670406196e-01
-5.7999999999999954e+00 +9.0432627343022816e+00 +0.0000000000000000e+00 -5.7999996530948144e+00 +5.9904839554451969e-04 +0.0000000000000000e+00 +9.9999982057049364e-01
-5.8999999999999950e+00 +9.0432023130694290e+00 +0.0000000000000000e+00 -5.8999996348407411e+00 +6.0937625885023586e-04 +0.0000000000000000e+00 +9.9999981433027019e-01
-5.9999999999999947e+00 +9.0431408590510323e+00 +0.0000000000000000e+00 -5.9999996159573126e+00 +6.1970410654773331e-04 +0.0000000000000000e+00 +9.9999980798339161e-01
-6.0999999999999943e+00 +9.0430783722486137e+00 +0.0000000000000000e+00 -6.0999995964338636e+00 +6.3003193940505231e-04 +0.0000000000000000e+00 +9.9999980152985790e-01
-6.1999999999999940e+00 +9.0430148526636209e+00 +0.0000000000000000e+00 -6.1999995762597289e+00 +6.4035975815100548e-04 +0.0000000000000000e+00 +9.9999979496966895e-01
-6.2999999999999936e+00 +9.0429503002974307e+00 +0.0000000000000000e+00 -6.2999995554242423e+00 +6.5068756347518323e-04 +0.0000000000000000e+00 +9.9999978830282488e-01
-6.3999999999999932e+00 +9.0428847151513523e+00 +0.0000000000000000e+00 -6.3999995339167386e+00 +6.6101535602796008e-04 +0.0000000000000000e+00 +9.9999978152932556e-01
-6.4999999999999929e+00 +9.0428180972266308e+00 +0.0000000000000000e+00 -6.4999995117265525e+00 +6.7134313642050036e-04 +0.0000000000000000e+00 +9.9999977464917111e-01
-6.5999999999999925e+00 +9.0427504465244546e+00 +0.0000000000000000e+00 -6.5999994888430180e+00 +6.8167090522476450e-04 +0.0000000000000000e+00 +9.9999976766236143e-01
-6.6999999999999922e+00 +9.0426817630459553e+00 +0.0000000000000000e+00 -6.6999994652554697e+00 +6.9199866297351537e-04 +0.0000000000000000e+00 +9.9999976056889650e-01
-6.7999999999999918e+00 +9.0426120467922129e+00 +0.0000000000000000e+00 -6.7999994409532425e+00 +7.0232641016032473e-04 +0.0000000000000000e+00 +9.9999975336877633e-01
-6.8999999999999915e+00 +9.0425412977642612e+00 +0.0000000000000000e+00 -6.8999994159256701e+00 +7.1265414723958008e-04 +0.0000000000000000e+00 +9.9999974606200093e-01
-6.9999999999999911e+00 +9.0424695159630879e+00 +0.0000000000000000e+00 -6.9999993901620874e+00 +7.2298187462649149e-04 +0.0000000000000000e+00 +9.9999973864857028e-01
-7.0999999999999908e+00 +9.0423967013896451e+00 +0.0000000000000000e+00 -7.0999993636518290e+00 +7.3330959269709845e-04 +0.0000000000000000e+00 +9.9999973112848439e-01
-7.1999999999999904e+00 +9.0423228540448477e+00 +0.0000000000000000e+00 -7.1999993363842290e+00 +7.4363730178827721e-04 +0.0000000000000000e+00 +9.9999972350174338e-01
-7.2999999999999901e+00 +9.0422479739295767e+00 +0.0000000000000000e+00 -7.2999993083486219e+00 +7.5396500219774795e-04 +0.0000000000000000e+00 +9.9999971576834723e-01
-7.3999999999999897e+00 +9.0421720610446883e+00 +0.0000000000000000e+00 -7.3999992795343426e+00 +7.6429269418408247e-04 +0.0000000000000000e+00 +9.9999970792829607e-01
-7.4999999999999893e+00 +9.0420951153910138e+00 +0.0000000000000000e+00 -7.4999992499307258e+00 +7.7462037796671159e-04 +0.0000000000000000e+00 +9.9999969998158988e-01
-7.5999999999999890e+00 +9.0420171369693634e+00 +0.0000000000000000e+00 -7.5999992195271053e+00 +7.8494805372674554e-04 +0.0000000000000000e+00 +9.9999969192822891e-01
-7.6999999999999886e+00 +9.0419381257805309e+00 +0.0000000000000000e+00 -7.6999991883128160e+00 +7.9527572161591656e-04 +0.0000000000000000e+00 +9.9999968376821324e-01
-7.7999999999999883e+00 +9.0418580818252980e+00 +0.0000000000000000e+00 -7.7999991562771926e+00 +8.0560338176551536e-04 +0.0000000000000000e+00 +9.9999967550154290e-01
-7.8999999999999879e+00 +9.0417770051044322e+00 +0.0000000000000000e+00 -7.8999991234095699e+00 +8.1593103428720035e-04 +0.0000000000000000e+00 +9.9999966712821819e-01
-7.9999999999999876e+00 +9.0416948956186918e+00 +0.0000000000000000e+00 -7.9999990896992816e+00 +8.2625867927299393e-04 +0.0000000000000000e+00 +9.9999965864823914e-01
-8.0999999999999872e+00 +9.0416117533688265e+00 +0.0000000000000000e+00 -8.0999990551356635e+00 +8.3658631679527887e-04 +0.0000000000000000e+00 +9.9999965006160596e-01
-8.1999999999999869e+00 +9.0415275783555806e+00 +0.0000000000000000e+00 -8.1999990197080486e+00 +8.4691394690679378e-04 +0.0000000000000000e+00 +9.9999964136831887e-01
-8.2999999999999865e+00 +9.0414423705796914e+00 +0.0000000000000000e+00 -8.2999989834057715e+00 +8.5724156964062917e-04 +0.0000000000000000e+00 +9.9999963256837809e-01
-8.3999999999999861e+00 +9.0413561300418976e+00 +0.0000000000000000e+00 -8.3999989462181688e+00 +8.6756918501022296e-04 +0.0000000000000000e+00 +9.9999962366178374e-01
-8.4999999999999858e+00 +9.0412688567429349e+00 +0.0000000000000000e+00 -8.4999989081345735e+00 +8.7789679300935564e-04 +0.0000000000000000e+00 +9.9999961464853615e-01
-8.5999999999999854e+00 +9.0411805506835421e+00 +0.0000000000000000e+00 -8.5999988691443203e+00 +8.8822439361214533e-04 +0.0000000000000000e+00 +9.9999960552863543e-01
-8.6999999999999851e+00 +9.0410912118644600e+00 +0.0000000000000000e+00 -8.6999988292367458e+00 +8.9855198677304287e-04 +0.0000000000000000e+00 +9.9999959630208202e-01
-8.7999999999999847e+00 +9.0410008402864364e+00 +0.0000000000000000e+00 -8.7999987884011830e+00 +9.0887957242682623e-04 +0.0000000000000000e+00 +9.9999958696887603e-01
-8.8999999999999844e+00 +9.0409094359502262e+00 +0.0000000000000000e+00 -8.8999987466269666e+00 +9.1920715048859501e-04 +0.0000000000000000e+00 +9.9999957752901791e-01
-8.9999999999999840e+00 +9.0408169988565952e+00 +0.0000000000000000e+00 -8.9999987039034313e+00 +9.2953472085376501e-04 +0.0000000000000000e+00 +9.9999956798250800e-01
-9.0999999999999837e+00 +9.0407235290063177e+00 +0.0000000000000000e+00 -9.0999986602199119e+00 +9.3986228339806160e-04 +0.0000000000000000e+00 +9.9999955832934651e-01
-9.1999999999999833e+00 +9.0406290264001825e+00 +0.0000000000000000e+00 -9.1999986155657449e+00 +9.5018983797751425e-04 +0.0000000000000000e+00 +9.9999954856953388e-01
-9.2999999999999829e+00 +9.0405334910389943e+00 +0.0000000000000000e+00 -9.2999985699302634e+00 +9.6051738442844961e-04 +0.0000000000000000e+00 +9.9999953870307057e-01
-9.3999999999999826e+00 +9.0404369229235737e+00 +0.0000000000000000e+00 -9.3999985233028038e+00 +9.7084492256748508e-04 +0.0000000000000000e+00 +9.9999952872995701e-01
-9.4999999999999822e+00 +9.0403393220547645e+00 +0.0000000000000000e+00 -9.4999984756727009e+00 +9.8117245219152206e-04 +0.0000000000000000e+00 +9.9999951865019354e-01
-9.5999999999999819e+00 +9.0402406884334265e+00 +0.0000000000000000e+00 -9.5999984270292877e+00 +9.9149997307838487e-04 +0.0000000000000000e+00 +9.9999950846378072e-01
-9.6999999999999815e+00 +9.0401410220604479e+00 +0.0000000000000000e+00 -9.6999983773619007e+00 +1.0018274849939216e-03 +0.0000000000000000e+00 +9.9999949817071909e-01
-9.7999999999999812e+00 +9.0400403229367363e+00 +0.0000000000000000e+00 -9.7999983266598765e+00 +1.0121549876991214e-03 +0.0000000000000000e+00 +9.9999948777100911e-01
-9.8999999999999808e+00 +9.0399385910632244e+00 +0.0000000000000000e+00 -9.8999982749125479e+00 +1.0224824809507811e-03 +0.0000000000000000e+00 +9.9999947726465133e-01
-9.9999999999999805e+00 +9.0398358264408696e+00 +0.0000000000000000e+00 -9.9999982221092516e+00 +1.0328099645015262e-03 +0.0000000000000000e+00 +9.9999946665164630e-01
-1.0099999999999980e+01 +9.0397320290706560e+00 +0.0000000000000000e+00 -1.0099998168239322e+01 +1.0431374380998335e-03 +0.0000000000000000e+00 +9.9999945593199457e-01
-1.0199999999999980e+01 +9.0396271989535908e+00 +0.0000000000000000e+00 -1.0199998113292095e+01 +1.0534649014900534e-03 +0.0000000000000000e+00 +9.9999944510569672e-01
-1.0299999999999979e+01 +9.0395213360907078e+00 +0.0000000000000000e+00 -1.0299998057256905e+01 +1.0637923544124335e-03 +0.0000000000000000e+00 +9.9999943417275328e-01
-1.0399999999999979e+01 +9.0394144404830659e+00 +0.0000000000000000e+00 -1.0399998000123089e+01 +1.0741197966031416e-03 +0.0000000000000000e+00 +9.9999942313316492e-01
-1.0499999999999979e+01 +9.0393065121317537e+00 +0.0000000000000000e+00 -1.0499997941879982e+01 +1.0844472277942903e-03 +0.0000000000000000e+00 +9.9999941198693221e-01
-1.0599999999999978e+01 +9.0391975510378835e+00 +0.0000000000000000e+00 -1.0599997882516920e+01 +1.0947746477139614e-03 +0.0000000000000000e+00 +9.9999940073405580e-01
-1.0699999999999978e+01 +9.0390875572025955e+00 +0.0000000000000000e+00 -1.0699997822023239e+01 +1.1051020560862315e-03 +0.0000000000000000e+00 +9.9999938937453636e-01
-1.0799999999999978e+01 +9.0389765306270604e+00 +0.0000000000000000e+00 -1.0799997760388273e+01 +1.1154294526311973e-03 +0.0000000000000000e+00 +9.9999937790837456e-01
-1.0899999999999977e+01 +9.0388644713124737e+00 +0.0000000000000000e+00 -1.0899997697601359e+01 +1.1257568370650021e-03 +0.0000000000000000e+00 +9.9999936633557107e-01
-1.0999999999999977e+01 +9.0387513792600611e+00 +0.0000000000000000e+00 -1.0999997633651832e+01 +1.1360842090998623e-03 +0.0000000000000000e+00 +9.9999935465612666e-01
-1.1099999999999977e+01 +9.0386372544710767e+00 +0.0000000000000000e+00 -1.1099997568529028e+01 +1.1464115684440951e-03 +0.0000000000000000e+00 +9.9999934287004189e-01
-1.1199999999999976e+01 +9.0385220969468048e+00 +0.0000000000000000e+00 -1.1199997502222285e+01 +1.1567389148021462e-03 +0.0000000000000000e+00 +9.9999933097731764e-01
-1.1299999999999976e+01 +9.0384059066885598e+00 +0.0000000000000000e+00 -1.1299997434720938e+01 +1.1670662478746178e-03 +0.0000000000000000e+00 +9.9999931897795458e-01
-1.1399999999999975e+01 +9.0382886836976830e+00 +0.0000000000000000e+00 -1.1399997366014322e+01 +1.1773935673582976e-03 +0.0000000000000000e+00 +9.9999930687195349e-01
-1.1499999999999975e+01 +9.0381704279755510e+00 +0.0000000000000000e+00 -1.1499997296091774e+01 +1.1877208729461884e-03 +0.0000000000000000e+00 +9.9999929465931514e-01
-1.1599999999999975e+01 +9.0380511395235672e+00 +0.0000000000000000e+00 -1.1599997224942630e+01 +1.1980481643300799e-03 +0.0000000000000000e+00 +9.9999928234004032e-01
-1.1699999999999974e+01 +9.0379308183431668e+00 +0.0000000000000000e+00 -1.1699997152556227e+01 +1.2083754412285331e-03 +0.0000000000000000e+00 +9.9999926991412991e-01
