# multipoles
# s[mm] polynom_b[n=0][T/m^n] polynom_b[n=1][T/m^n] polynom_b[n=2][T/m^n] polynom_b[n=3][T/m^n] polynom_b[n=4][T/m^n] polynom_b[n=5][T/m^n] polynom_b[n=6][T/m^n] 
-0.0000000000000000e+00 -1.0336707024273331e+00 +2.2897026672220937e+00 +1.8914826103858751e+01 +3.0539780587855063e+02 +3.6545653438445283e+04 -1.6124856263542234e+06 -1.4912154133434945e+08 
-1.0000000000000001e-01 -1.0336713313010690e+00 +2.2894867042002236e+00 +1.8938606596471192e+01 +3.1463892174890429e+02 +3.5951379881189023e+04 -1.6823945277817014e+06 -1.4571393911063272e+08 
-2.0000000000000001e-01 -1.0336719446650580e+00 +2.2892610187175899e+00 +1.8960760844975063e+01 +3.2399393304074425e+02 +3.5380116169481335e+04 -1.7525557621567266e+06 -1.4239583858507541e+08 
-2.9999999999999999e-01 -1.0336725471203903e+00 +2.2890284974937627e+00 +1.8981566050906533e+01 +3.3339950627054230e+02 +3.4827272254284173e+04 -1.8226221737015862e+06 -1.3914700506873378e+08 
-4.0000000000000002e-01 -1.0336731432681394e+00 +2.2887920272526259e+00 +1.9001299417715483e+01 +3.4279230793871079e+02 +3.4288258015004561e+04 -1.8922466070978045e+06 -1.3594720347813869e+08 
-5.0000000000000000e-01 -1.0336737377094927e+00 +2.2885544947242358e+00 +1.9020238167632840e+01 +3.5210900447171377e+02 +3.3758482941690439e+04 -1.9610819071432727e+06 -1.3277619682702291e+08 
-5.9999999999999998e-01 -1.0336743350456790e+00 +2.2883187866362475e+00 +1.9038659530975966e+01 +3.6128626248912917e+02 +3.3233356339649348e+04 -2.0287809204047620e+06 -1.2961374720160924e+08 
-6.9999999999999996e-01 -1.0336749398781373e+00 +2.2880877897099365e+00 +1.9056840765503299e+01 +3.7026074889239175e+02 +3.2708286960519043e+04 -2.0949964956790565e+06 -1.2643961398980431e+08 
-8.0000000000000004e-01 -1.0336755568084488e+00 +2.2878643906594669e+00 +1.9075059148876562e+01 +3.7896913092793159e+02 +3.2178683150108394e+04 -2.1593814844987784e+06 -1.2323355459947939e+08 
-9.0000000000000002e-01 -1.0336761904384910e+00 +2.2876514761860096e+00 +1.9093591998158164e+01 +3.8734807633281798e+02 +3.1639952466909730e+04 -2.2215887419178118e+06 -1.1997532260316849e+08 
-1.0000000000000000e+00 -1.0336768453703977e+00 +2.2874519329769054e+00 +1.9112716659510742e+01 +3.9533425336201213e+02 +3.1087501895214071e+04 -2.2812711267515230e+06 -1.1664466879589407e+08 
-1.1000000000000001e+00 -1.0336775262066833e+00 +2.2872686476923700e+00 +1.9132710528380514e+01 +4.0286433119890995e+02 +3.0516737444003622e+04 -2.3380815040091136e+06 -1.1322133923322876e+08 
-1.2000000000000000e+00 -1.0336782375502136e+00 +2.2871045069762128e+00 +1.9153851041784716e+01 +4.0987497961434406e+02 +2.9923064302757444e+04 -2.3916727428842811e+06 -1.0968507599313869e+08 
-1.3000000000000000e+00 -1.0336789840043501e+00 +2.2869623974370530e+00 +1.9176415696711850e+01 +4.1630286955349914e+02 +2.9301886496461819e+04 -2.4416977202895256e+06 -1.0601561554030855e+08 
-1.3999999999999999e+00 -1.0336797701728802e+00 +2.2868452056581630e+00 +1.9200682041287717e+01 +4.2208467282401062e+02 +2.8648607041854564e+04 -2.4878093190117567e+06 -1.0219268943558995e+08 
-1.5000000000000000e+00 -1.0336806006601695e+00 +2.2867558181801675e+00 +1.9226927690943800e+01 +4.2715706260474485e+02 +2.7958627651618121e+04 -2.5296604307321268e+06 -9.8196022953207076e+07 
-1.6000000000000001e+00 -1.0336814792459126e+00 +2.2866965961626655e+00 +1.9255335630957820e+01 +4.3146857202476281e+02 +2.7229061820792907e+04 -2.5669753203673004e+06 -9.4013032317384169e+07 
-1.7000000000000000e+00 -1.0336824063280126e+00 +2.2866678215817449e+00 +1.9285708294914656e+01 +4.3501463877669255e+02 +2.6463888710794523e+04 -2.5997614752921583e+06 -8.9661752259130672e+07 
-1.8000000000000000e+00 -1.0336833814383581e+00 +2.2866692620324978e+00 +1.9317752461048645e+01 +4.3780229885211992e+02 +2.5668808900358985e+04 -2.6280966888141702e+06 -8.5167837334125623e+07 
-1.8999999999999999e+00 -1.0336844041090294e+00 +2.2867006851235554e+00 +1.9351174927232080e+01 +4.3983858769579030e+02 +2.4849522655753903e+04 -2.6520587511953581e+06 -8.0556940800936505e+07 
-2.0000000000000000e+00 -1.0336854738723935e+00 +2.2867618584766922e+00 +1.9385682522326942e+01 +4.4113054016132531e+02 +2.4011729707132254e+04 -2.6717254492308502e+06 -7.5854713536414027e+07 
-2.1000000000000001e+00 -1.0336865902610204e+00 +2.2868525497365741e+00 +1.9420982094685716e+01 +4.4168519020219941e+02 +2.3161129499857485e+04 -2.6871745643811594e+06 -7.1086805328115940e+07 
-2.2000000000000002e+00 -1.0336877528076902e+00 +2.2869725265698815e+00 +1.9456780512892511e+01 +4.4150957087943385e+02 +2.2303421173666338e+04 -2.6984838727836534e+06 -6.6278864754829727e+07 
-2.2999999999999998e+00 -1.0336889610453615e+00 +2.2871215566718690e+00 +1.9492784660479657e+01 +4.4061071409614607e+02 +2.1444303682668273e+04 -2.7057311435270645e+06 -6.1456539815212786e+07 
-2.3999999999999999e+00 -1.0336902145071918e+00 +2.2872994077707314e+00 +1.9528701439682713e+01 +4.3899565046418570e+02 +2.0589475731591501e+04 -2.7089941378505472e+06 -5.6645477647632919e+07 
-2.5000000000000000e+00 -1.0336915127264734e+00 +2.2875058476255909e+00 +1.9564237761566524e+01 +4.3667140932538450e+02 +1.9744635974450197e+04 -2.7083506091918722e+06 -5.1871325506907783e+07 
-2.6000000000000001e+00 -1.0336928552366837e+00 +2.2877406440415382e+00 +1.9599100551107490e+01 +4.3364501825445171e+02 +1.8915482929998318e+04 -2.7038783001452223e+06 -4.7159730397762693e+07 
-2.7000000000000002e+00 -1.0336942415714514e+00 +2.2880035648648018e+00 +1.9632996745757165e+01 +4.2992350320083818e+02 +1.8107715011124390e+04 -2.6956549432827397e+06 -4.2536339222778119e+07 
-2.7999999999999998e+00 -1.0336956712644922e+00 +2.2882943779878322e+00 +1.9665633282927661e+01 +4.2551388826073963e+02 +1.7327030791936410e+04 -2.6837582596359556e+06 -3.8026800134904854e+07 
-2.8999999999999999e+00 -1.0336971438496949e+00 +2.2886128513604733e+00 +1.9696717111566102e+01 +4.2042319535467612e+02 +1.6579128774994584e+04 -2.6682659568597139e+06 -3.3656761396704413e+07 
-3.0000000000000000e+00 -1.0336986588610049e+00 +2.2889587529816842e+00 +1.9725955179147903e+01 +4.1465844441079378e+02 +1.5869707667871224e+04 -2.6492557301027356e+06 -2.9451872781678576e+07 
-3.1000000000000001e+00 -1.0337002158324886e+00 +2.2893318509163536e+00 +1.9753054436687187e+01 +4.0822665285033833e+02 +1.5204466288819624e+04 -2.6268052589934301e+06 -2.5437785124645885e+07 
-3.2000000000000002e+00 -1.0337018142982555e+00 +2.2897319132881511e+00 +1.9777721829140926e+01 +4.0113483574330559e+02 +1.4589103762002236e+04 -2.6009922084087138e+06 -2.1640151294201352e+07 
-3.2999999999999998e+00 -1.0337034537925407e+00 +2.2901587082933492e+00 +1.9799664306290676e+01 +3.9339000539391571e+02 +1.4029319322812962e+04 -2.5718942260237089e+06 -1.8084625298483320e+07 
-3.3999999999999999e+00 -1.0337051338495868e+00 +2.2906120041986049e+00 +1.9818588806259083e+01 +3.8499917135229316e+02 +1.3530812637750043e+04 -2.5395889422688819e+06 -1.4796863826148661e+07 
-3.5000000000000000e+00 -1.0337068540036891e+00 +2.2910915693483798e+00 +1.9834202260403323e+01 +3.7596934015796637e+02 +1.3099283727588705e+04 -2.5041539684831458e+06 -1.1802525909461610e+07 
-3.6000000000000001e+00 -1.0337086129973883e+00 +2.2915967756591917e+00 +1.9846282079776451e+01 +3.6631597933809121e+02 +1.2738889184721829e+04 -2.4656975106606549e+06 -9.1202521742835399e+06 
-3.7000000000000002e+00 -1.0337104063242426e+00 +2.2921252933835654e+00 +1.9854893878054963e+01 +3.5609023574906763e+02 +1.2447467834812094e+04 -2.4244555457805870e+06 -6.7404038663592115e+06 
-3.7999999999999998e+00 -1.0337122286453846e+00 +2.2926743380228527e+00 +1.9860177255906269e+01 +3.4535262547726921e+02 +1.2221237096409459e+04 -2.3806970752835297e+06 -4.6462024710764447e+06 
-3.8999999999999999e+00 -1.0337140746216149e+00 +2.2932411250539491e+00 +1.9862271795121362e+01 +3.3416366611416032e+02 +1.2056414507527928e+04 -2.3346911105878064e+06 -2.8208693773942823e+06 
-4.0000000000000000e+00 -1.0337159389135160e+00 +2.2938228699353655e+00 +1.9861317069872733e+01 +3.2258387670285072e+02 +1.1949217482961325e+04 -2.2867066735833436e+06 -1.2476245868971099e+06 
-4.0999999999999996e+00 -1.0337178161812342e+00 +2.2944167880955977e+00 +1.9857452626934187e+01 +3.1067377819789215e+02 +1.1895863668135080e+04 -2.2370127995178886e+06 +9.0311670290916474e+04 
-4.2000000000000002e+00 -1.0337197010846340e+00 +2.2950200949336046e+00 +1.9850818000888793e+01 +2.9849389348312349e+02 +1.1892570630674640e+04 -2.1858785371817243e+06 +1.2097204611546879e+06 
-4.2999999999999998e+00 -1.0337215882832076e+00 +2.2956300058205770e+00 +1.9841552708844478e+01 +2.8610474741527867e+02 +1.1935555936558021e+04 -2.1335729493165440e+06 +2.1273838603212917e+06 
-4.4000000000000004e+00 -1.0337234724359405e+00 +2.2962437360900170e+00 +1.9829796232820055e+01 +2.7356686718679151e+02 +1.2021037466223093e+04 -2.0803651148945950e+06 +2.8600835021378761e+06 
-4.5000000000000000e+00 -1.0337253482014286e+00 +2.2968585010357110e+00 +1.9815688038088972e+01 +2.6094078245182209e+02 +1.2145233043326145e+04 -2.0265241299434206e+06 +3.4246024167132340e+06 
-4.5999999999999996e+00 -1.0337272102378079e+00 +2.2974715159134931e+00 +1.9799367563462113e+01 +2.4828702533670963e+02 +1.2304360596521161e+04 -1.9723191077471508e+06 +3.8377243262384497e+06 
-4.7000000000000002e+00 -1.0337290532026597e+00 +2.2980799959339882e+00 +1.9780974213231044e+01 +2.3566613075318594e+02 +1.2494638293777889e+04 -1.9180191808610824e+06 +4.1162330673803296e+06 
-4.7999999999999998e+00 -1.0337308717530544e+00 +2.2986811562606952e+00 +1.9760647364775789e+01 +2.2313863651217110e+02 +1.2712284377187574e+04 -1.8638935018612614e+06 +4.2769134344425593e+06 
-4.9000000000000004e+00 -1.0337326605455230e+00 +2.2992722120082090e+00 +1.9738526364164944e+01 +2.1076508343533413e+02 +1.2953517217777437e+04 -1.8102112441304191e+06 +4.3365510090756714e+06 
-5.0000000000000000e+00 -1.0337344142359477e+00 +2.2998503782332533e+00 +1.9714750516719274e+01 +1.9860601571748072e+02 +1.3214555483975546e+04 -1.7572416041422701e+06 +4.3119313891992206e+06 
-5.0999999999999996e+00 -1.0337361274796359e+00 +2.3004128699447350e+00 +1.9689459096849681e+01 +1.8672198068908833e+02 +1.3491617923952315e+04 -1.7052538001924306e+06 +4.2198413192864778e+06 
-5.2000000000000002e+00 -1.0337377949312190e+00 +2.3009569020862748e+00 +1.9662791336383727e+01 +1.7517352939910435e+02 +1.3780923573462953e+04 -1.6545170759264177e+06 +4.0770677419396522e+06 
-5.2999999999999998e+00 -1.0337394112446567e+00 +2.3014796895406673e+00 +1.9634886428871184e+01 +1.6402121657344497e+02 +1.4078691646947931e+04 -1.6053007002644197e+06 +3.9003984000185020e+06 
-5.4000000000000004e+00 -1.0337409710732028e+00 +2.3019784471281919e+00 +1.9605883524953796e+01 +1.5332560071553229e+02 +1.4381141607140682e+04 -1.5578739680780869e+06 +3.7066215569934128e+06 
-5.5000000000000000e+00 -1.0337424690693882e+00 +2.3024503895996151e+00 +1.9575921734709841e+01 +1.4314724454472463e+02 +1.4684493107491706e+04 -1.5125062033929401e+06 +3.5125262977771745e+06 
-5.5999999999999996e+00 -1.0337439015708663e+00 +2.3028931740471483e+00 +1.9545191661628952e+01 +1.3353875043344070e+02 +1.4984605110902841e+04 -1.4694305243257193e+06 +3.3351167256307406e+06 
-5.7000000000000002e+00 -1.0337452717825073e+00 +2.3033063413720849e+00 +1.9514076490031218e+01 +1.2451758307657443e+02 +1.5276107994708094e+04 -1.4287140651617660e+06 +3.1913652697776607e+06 
-5.7999999999999998e+00 -1.0337465846661607e+00 +2.3036899332435654e+00 +1.9483004957591216e+01 +1.1609160504225410e+02 +1.5553366342034135e+04 -1.3903772306155749e+06 +3.0980559911354803e+06 
-5.9000000000000004e+00 -1.0337478451835862e+00 +2.3040439909961368e+00 +1.9452405802559039e+01 +1.0826868999743645e+02 +1.5810744399125831e+04 -1.3544404909340690e+06 +3.0719754527650182e+06 
-6.0000000000000000e+00 -1.0337490582964566e+00 +2.3043685556036970e+00 +1.9422707761622718e+01 +1.0105672346962844e+02 +1.6042606124250316e+04 -1.3209243869745310e+06 +3.1299125234737853e+06 
-6.0999999999999996e+00 -1.0337502289663778e+00 +2.3046636676732000e+00 +1.9394339571551839e+01 +9.4463603063851409e+01 +1.6243315143089823e+04 -1.2898495314996911e+06 +3.2886586265516109e+06 
-6.2000000000000002e+00 -1.0337513621548975e+00 +2.3049293674344948e+00 +1.9367729974741120e+01 +8.8497238806267802e+01 +1.6407234637558118e+04 -1.2612366111757446e+06 +3.5650082870428469e+06 
-6.2999999999999998e+00 -1.0337524628234871e+00 +2.3051656947155212e+00 +1.9343307712115944e+01 +8.3165553880010805e+01 +1.6528727473820763e+04 -1.2351063908748601e+06 +3.9757585425820397e+06 
-6.4000000000000004e+00 -1.0337535359335168e+00 +2.3053726889310289e+00 +1.9321501521284414e+01 +7.8476484993917367e+01 +1.6602156233544079e+04 -1.2114797158217318e+06 +4.5377088053204268e+06 
-6.5000000000000000e+00 -1.0337545864463760e+00 +2.3055503890816365e+00 +1.9302740153422970e+01 +7.4437982437063368e+01 +1.6621882881146412e+04 -1.1903775119058962e+06 +5.2676624799679574e+06 
-6.5999999999999996e+00 -1.0337556193233317e+00 +2.3056988337243176e+00 +1.9287452352257080e+01 +7.1058010975718517e+01 +1.6582269160855660e+04 -1.1718207909506229e+06 +6.1824250834552571e+06 
-6.7000000000000002e+00 -1.0337566395256002e+00 +2.3058180609613914e+00 +1.9276066865466007e+01 +6.8344550205401788e+01 +1.6477676377092634e+04 -1.1558306527422264e+06 +7.2988052948635835e+06 
-6.7999999999999998e+00 -1.0337576520143601e+00 +2.3059081084340542e+00 +1.9269012445579015e+01 +6.6305594777239094e+01 +1.6302465358984922e+04 -1.1424282863944795e+06 +8.6336151822445579e+06 
-6.9000000000000004e+00 -1.0337586617507457e+00 +2.3059690133047357e+00 +1.9266717846751028e+01 +6.4949154921087597e+01 +1.6050996527357705e+04 -1.1316349733409635e+06 +1.0203669863169719e+07 
-7.0000000000000000e+00 -1.0337596736958430e+00 +2.3060008122377682e+00 +1.9269611827783827e+01 +6.4283257064624792e+01 +1.5717629822881139e+04 -1.1234720910132718e+06 +1.2025787891233385e+07 
-7.0999999999999996e+00 -1.0337606928106839e+00 +2.3060035413946420e+00 +1.9278123148713764e+01 +6.4315943998412266e+01 +1.5296724768419594e+04 -1.1179611137837591e+06 +1.4116790967838623e+07 
-7.2000000000000002e+00 -1.0337617240562449e+00 +2.3059772364116178e+00 +1.9292680570354612e+01 +6.5055275539878266e+01 +1.4782640468330494e+04 -1.1151236168239156e+06 +1.6493503970448032e+07 
-7.2999999999999998e+00 -1.0337627723935154e+00 +2.3059219323953091e+00 +1.9313712866474848e+01 +6.6509328732805955e+01 +1.4169735374943108e+04 -1.1149812773151067e+06 +1.9172756071277019e+07 
-7.4000000000000004e+00 -1.0337638427834113e+00 +2.3058376638984988e+00 +1.9341648806591863e+01 +6.8686198551847085e+01 +1.3452367602873110e+04 -1.1175558785651224e+06 +2.2171379279213041e+07 
-7.5000000000000000e+00 -1.0337649401867586e+00 +2.3057244649111692e+00 +1.9376917158559671e+01 +7.1593997684571775e+01 +1.2624894810796863e+04 -1.1228693094727702e+06 +2.5506209049649633e+07 
-7.5999999999999996e+00 -1.0337660684739114e+00 +2.3055827346650632e+00 +1.9419820111157847e+01 +7.5230508942029005e+01 +1.1683469376604466e+04 -1.1309035130292405e+06 +2.9188336838212226e+07 
-7.7000000000000002e+00 -1.0337672272203235e+00 +2.3054143831266258e+00 +1.9470128421280648e+01 +7.9555156164073708e+01 +1.0632157831736717e+04 -1.1415215224084256e+06 +3.3203580443907045e+07 
-7.7999999999999998e+00 -1.0337684149160369e+00 +2.3052217141771014e+00 +1.9527469323860565e+01 +8.4518469339046618e+01 +9.4772555656598925e+03 -1.1545681925389669e+06 +3.7530697870175779e+07 
-7.9000000000000004e+00 -1.0337696300511698e+00 +2.3050070319868454e+00 +1.9591469999491590e+01 +9.0070968908278246e+01 +8.2250597907690608e+03 -1.1698883329392376e+06 +4.2148437292523853e+07 
-8.0000000000000000e+00 -1.0337708711160964e+00 +2.3047726410313203e+00 +1.9661757601221240e+01 +9.6163163724771081e+01 +6.8818691575007897e+03 -1.1873266794963812e+06 +4.7035537352484599e+07 
-8.0999999999999996e+00 -1.0337721366014008e+00 +2.3045208460916573e+00 +1.9737959245846593e+01 +1.0274555093408760e+02 +5.4539839439387515e+03 -1.2067278935998483e+06 +5.2170726179766722e+07 
-8.1999999999999993e+00 -1.0337734249979738e+00 +2.3042539522738843e+00 +1.9819702025016305e+01 +1.0976861530155945e+02 +3.9477058890610974e+03 -1.2279365579524019e+06 +5.7532722058700226e+07 
-8.3000000000000007e+00 -1.0337747347969839e+00 +2.3039742650307669e+00 +1.9906612997527994e+01 +1.1718282845775049e+02 +2.3693383605025065e+03 -1.2507971719696084e+06 +6.3100232564049594e+07 
-8.4000000000000004e+00 -1.0337760644898333e+00 +2.3036840901603366e+00 +1.9998319182800881e+01 +1.2493864884347218e+02 +7.2518653292010902e+02 -1.2751541512142501e+06 +6.8851953553407773e+07 
-8.5000000000000000e+00 -1.0337774125682631e+00 +2.3033857338376125e+00 +2.0094447572334420e+01 +1.3298652065855504e+02 -9.7844280958210823e+02 -1.3008518210167119e+06 +7.4766570048393965e+07 
-8.5999999999999996e+00 -1.0337787775243290e+00 +2.3030815026133236e+00 +2.0194625121665212e+01 +1.4127687378532826e+02 -2.7352410822370352e+03 -1.3277344158111315e+06 +8.0822755208233923e+07 
-8.6999999999999993e+00 -1.0337801578503563e+00 +2.3027737034414066e+00 +2.0298478747631506e+01 +1.4976012290315424e+02 -4.5388978109968602e+03 -1.3556460737598548e+06 +8.6999169804408625e+07 
-8.8000000000000007e+00 -1.0337815520390188e+00 +2.3024646436822902e+00 +2.0405635330893030e+01 +1.5838666724435285e+02 -6.3831006440040201e+03 -1.3844308350537175e+06 +9.3274462162709102e+07 
-8.9000000000000004e+00 -1.0337829585833580e+00 +2.3021566311273522e+00 +2.0515721718921661e+01 +1.6710688979085771e+02 -8.2615353818333151e+03 -1.4139326370278967e+06 +9.9627268232611716e+07 
-9.0000000000000000e+00 -1.0337843759767318e+00 +2.3018519740054004e+00 +2.0628364717526601e+01 +1.7587115697407648e+02 -1.0167885767903917e+04 -1.4439953121629809e+06 +1.0603621044424583e+08 
-9.0999999999999996e+00 -1.0337858027128650e+00 +2.3015529810016222e+00 +2.0743191093026049e+01 +1.8462981799567766e+02 -1.2095833505620782e+04 -1.4744625838849382e+06 +1.1247989771868359e+08 
-9.1999999999999993e+00 -1.0337872372858803e+00 +2.3012619612636596e+00 +2.0859827575400587e+01 +1.9333320456018328e+02 -1.4039058281760021e+04 -1.5051780648117254e+06 +1.1893692547171009e+08 
-9.3000000000000007e+00 -1.0337886781902519e+00 +2.3009812244292731e+00 +2.0977900850644239e+01 +2.0193162993009682e+02 -1.5991237580837831e+04 -1.5359852509264792e+06 +1.2538587461228615e+08 
-9.4000000000000004e+00 -1.0337901239208513e+00 +2.3007130806344271e+00 +2.1097037563625694e+01 +2.1037538859633847e+02 -1.7946046710150193e+04 -1.5667275194814384e+06 +1.3180531157092036e+08 
-9.5000000000000000e+00 -1.0337915729728115e+00 +2.3004598404806105e+00 +2.1216864288453614e+01 +2.1861475548454928e+02 -1.9897158306438712e+04 -1.5972481154538020e+06 +1.3817378667420030e+08 
-9.5999999999999996e+00 -1.0337930238233140e+00 +2.3002232180504452e+00 +2.1336970900622518e+01 +2.2660939363012236e+02 -2.1837813463108407e+04 -1.6274133212281261e+06 +1.4446851870547730e+08 
-9.6999999999999993e+00 -1.0337944752897574e+00 +2.3000025494006606e+00 +2.1456929301945546e+01 +2.3435857939135337e+02 -2.3761860700260873e+04 -1.6571918513773109e+06 +1.5067022911534321e+08 
-9.8000000000000007e+00 -1.0337959263769430e+00 +2.2997965651149244e+00 +2.1576339116171059e+01 +2.4187208420192380e+02 -2.5663896370570863e+04 -1.6865788532163855e+06 +1.5676275447991911e+08 
-9.9000000000000004e+00 -1.0337973760898496e+00 +2.2996039961832788e+00 +2.1694800064027209e+01 +2.4915966510357939e+02 -2.7538519211959487e+04 -1.7155693744359843e+06 +1.6272994304522550e+08 
-1.0000000000000000e+01 -1.0337988234333508e+00 +2.2994235740713038e+00 +2.1811911923796750e+01 +2.5623106414055309e+02 -2.9380329613578058e+04 -1.7441583776906373e+06 +1.6855565264161849e+08 
-1.0100000000000000e+01 -1.0338002674123297e+00 +2.2992540307277602e+00 +2.1927274542868243e+01 +2.6309600805611854e+02 -3.1183929864699756e+04 -1.7723407388138922e+06 +1.7422375195841584e+08 
