# multipoles
# s[mm] polynom_b[n=0][T/m^n] polynom_b[n=1][T/m^n] polynom_b[n=2][T/m^n] polynom_b[n=3][T/m^n] polynom_b[n=4][T/m^n] polynom_b[n=5][T/m^n] polynom_b[n=6][T/m^n] 
+0.0000000000000000e+00 -1.0319223316561399e+00 +2.2696991105042530e+00 +2.3538932999195755e+01 +7.9084860699341459e+02 -1.2171689607343909e+05 -4.0303301158000999e+06 +7.6751754281278777e+08 
-1.0000000000000001e-01 -1.0319202704533466e+00 +2.2694354952119729e+00 +2.3470576497810008e+01 +7.9593490409760045e+02 -1.2085087857462307e+05 -4.0514289777666712e+06 +7.6463553596316755e+08 
-2.0000000000000001e-01 -1.0319182874589816e+00 +2.2692073913315096e+00 +2.3403557953627317e+01 +8.0015814419219851e+02 -1.1996366763064847e+05 -4.0680035322710089e+06 +7.6155591911915219e+08 
-3.0000000000000004e-01 -1.0319163866489385e+00 +2.2690138992936650e+00 +2.3338201330529667e+01 +8.0352809825365637e+02 -1.1906319237248489e+05 -4.0801007778468928e+06 +7.5832067860219276e+08 
-4.0000000000000002e-01 -1.0319145719993843e+00 +2.2688541194808165e+00 +2.3274830619430819e+01 +8.0605453808380594e+02 -1.1815738234406603e+05 -4.0877677158188121e+06 +7.5497180233606565e+08 
-5.0000000000000000e-01 -1.0319128474866945e+00 +2.2687271522298222e+00 +2.3213769831694485e+01 +8.0774723629669722e+02 -1.1725416739191231e+05 -4.0910513506830214e+06 +7.5155127937020886e+08 
-5.9999999999999998e-01 -1.0319112170875897e+00 +2.2686320978174601e+00 +2.3155343017311015e+01 +8.0861596690698229e+02 -1.1636147801044704e+05 -4.0899986942690420e+06 +7.4810110152034342e+08 
-6.9999999999999996e-01 -1.0319096847789304e+00 +2.2685680564612749e+00 +2.3099874239239142e+01 +8.0867050536798934e+02 -1.1548724485595386e+05 -4.0846567663784768e+06 +7.4466326107135069e+08 
-7.9999999999999993e-01 -1.0319082545378795e+00 +2.2685341283184686e+00 +2.3047687595447414e+01 +8.0792062874855230e+02 -1.1463939917416076e+05 -4.0750725965068289e+06 +7.4127975283564866e+08 
-8.9999999999999991e-01 -1.0319069303418287e+00 +2.2685294134727485e+00 +2.2999107210470857e+01 +8.0637611620649614e+02 -1.1382587264335956e+05 -4.0612932270900919e+06 +7.3799257342350030e+08 
-9.9999999999999989e-01 -1.0319057161683542e+00 +2.2685530119315880e+00 +2.2954457230647918e+01 +8.0404674921292872e+02 -1.1305459728809418e+05 -4.0433657154999389e+06 +7.3484372084751451e+08 
-1.0999999999999999e+00 -1.0319046159952379e+00 +2.2686040236245071e+00 +2.2914061826873876e+01 +8.0094231166593602e+02 -1.1233350552733574e+05 -4.0213371351315547e+06 +7.3187519474352062e+08 
-1.2000000000000000e+00 -1.0319036338005230e+00 +2.2686815483975313e+00 +2.2878245204662136e+01 +7.9707259021561299e+02 -1.1167053038916929e+05 -3.9952545780261182e+06 +7.2912899746303773e+08 
-1.3000000000000000e+00 -1.0319027735623827e+00 +2.2687846860056382e+00 +2.2847331586459539e+01 +7.9244737455198788e+02 -1.1107360516086796e+05 -3.9651651569878776e+06 +7.2664713237403238e+08 
-1.4000000000000001e+00 -1.0319020392592206e+00 +2.2689125361088331e+00 +2.2821645226061445e+01 +7.8707645766386793e+02 -1.1055066367628798e+05 -3.9311160077731516e+06 +7.2447160527006710e+08 
-1.5000000000000002e+00 -1.0319014348695645e+00 +2.2690641982685511e+00 +2.2801510395923231e+01 +7.8096963604425321e+02 -1.1010964007392616e+05 -3.8931542907970701e+06 +7.2264442322249830e+08 
-1.6000000000000003e+00 -1.0319009621361914e+00 +2.2692386673959710e+00 +2.2787101011981566e+01 +7.7414170261288211e+02 -1.0975558993903460e+05 -3.8513524158442207e+06 +7.2119357867339861e+08 
-1.7000000000000004e+00 -1.0319006138330107e+00 +2.2694345473065907e+00 +2.2777987768125318e+01 +7.6662603786714089e+02 -1.0948206986037623e+05 -3.8058749382480881e+06 +7.2009108653734219e+08 
-1.8000000000000005e+00 -1.0319003804844611e+00 +2.2696503507977850e+00 +2.2773589961755196e+01 +7.5846032555153693e+02 -1.0927976153861835e+05 -3.7569072582538663e+06 +7.1929496541756332e+08 
-1.9000000000000006e+00 -1.0319002526149943e+00 +2.2698845906790965e+00 +2.2773326892492584e+01 +7.4968224900619862e+02 -1.0913934665406952e+05 -3.7046347731960202e+06 +7.1876323348634481e+08 
-2.0000000000000004e+00 -1.0319002207490058e+00 +2.2701357797821289e+00 +2.2776617852600193e+01 +7.4032949088608939e+02 -1.0905150668071889e+05 -3.6492428756699227e+06 +7.1845390757802856e+08 
-2.1000000000000005e+00 -1.0319002754108562e+00 +2.2704024309657473e+00 +2.2782882130667865e+01 +7.3043973296199636e+02 -1.0900692296081074e+05 -3.5909169520068564e+06 +7.1832500354118502e+08 
-2.2000000000000006e+00 -1.0319004071247690e+00 +2.2706830571383678e+00 +2.2791538998598210e+01 +7.2005065544293757e+02 -1.0899627645732196e+05 -3.5298423780076769e+06 +7.1833453504927766e+08 
-2.3000000000000007e+00 -1.0319006064148937e+00 +2.2709761712588112e+00 +2.2802007719213783e+01 +7.0919993695247979e+02 -1.0901024789496529e+05 -3.4662045185852149e+06 +7.1844051424686587e+08 
-2.4000000000000008e+00 -1.0319008638052221e+00 +2.2712802863546382e+00 +2.2813707536685257e+01 +6.9792525392181631e+02 -1.0903951758478698e+05 -3.4001887237915201e+06 +7.1860095091997075e+08 
-2.5000000000000009e+00 -1.0319011698195630e+00 +2.2715939155317058e+00 +2.2826057672376717e+01 +6.8626428033554862e+02 -1.0907476533610353e+05 -3.3319803271668935e+06 +7.1877385203731561e+08 
-2.6000000000000010e+00 -1.0319015149815400e+00 +2.2719155719810611e+00 +2.2838477325391398e+01 +6.7425468745906483e+02 -1.0910667047536492e+05 -3.2617646437261598e+06 +7.1891722185239506e+08 
-2.7000000000000011e+00 -1.0319018898145453e+00 +2.2722437689956005e+00 +2.2850385667179779e+01 +6.6193414336494618e+02 -1.0912591174308550e+05 -3.1897269669918860e+06 +7.1898906139529955e+08 
-2.8000000000000012e+00 -1.0319022848417176e+00 +2.2725770199786566e+00 +2.2861201837510279e+01 +6.4934031262486633e+02 -1.0912316721027704e+05 -3.1160525668190839e+06 +7.1894736804430032e+08 
-2.9000000000000012e+00 -1.0319026905858955e+00 +2.2729138384551981e+00 +2.2870344939980320e+01 +6.3651085597564861e+02 -1.0908911420077829e+05 -3.0409266871756315e+06 +7.1875013516397452e+08 
-3.0000000000000013e+00 -1.0319030975696544e+00 +2.2732527380866219e+00 +2.2877234046252848e+01 +6.2348342985480338e+02 -1.0901442936770912e+05 -2.9645345431317249e+06 +7.1835535244123209e+08 
-3.1000000000000014e+00 -1.0319034963151812e+00 +2.2735922326755036e+00 +2.2881288180037359e+01 +6.1029568623751061e+02 -1.0888978838905125e+05 -2.8870613195959805e+06 +7.1772100442832851e+08 
-3.2000000000000015e+00 -1.0319038773443290e+00 +2.2739308361801962e+00 +2.2881926325126734e+01 +5.9698527217870753e+02 -1.0870586612667101e+05 -2.8086921683247788e+06 +7.1680507130036151e+08 
-3.3000000000000016e+00 -1.0319042311785669e+00 +2.2742670627301407e+00 +2.2878567418063565e+01 +5.8358982935091842e+02 -1.0845333647860400e+05 -2.7296122049615257e+06 +7.1556552811462700e+08 
-3.4000000000000017e+00 -1.0319045483389040e+00 +2.2745994266306324e+00 +2.2870630338773942e+01 +5.7014699387637370e+02 -1.0812287220243004e+05 -2.6500065077374000e+06 +7.1396034396451235e+08 
-3.5000000000000018e+00 -1.0319048193459563e+00 +2.2749264423714979e+00 +2.2857533920095648e+01 +5.5669439607005063e+02 -1.0770514509973540e+05 -2.5700601155798342e+06 +7.1194748285963595e+08 
-3.6000000000000019e+00 -1.0319050364075122e+00 +2.2752469598685674e+00 +2.2838820500559599e+01 +5.4326438381305354e+02 -1.0719263183918598e+05 -2.4899368857822935e+06 +7.0949251268603063e+08 
-3.7000000000000020e+00 -1.0319051986505128e+00 +2.2755611547163617e+00 +2.2814536146217012e+01 +5.2986822851132797e+02 -1.0658528896915748e+05 -2.4097172488024025e+06 +7.0659292767446697e+08 
-3.8000000000000020e+00 -1.0319053069770439e+00 +2.2758695294398961e+00 +2.2784855714162315e+01 +5.1651198041332873e+02 -1.0588501630952180e+05 -2.3294613453418585e+06 +7.0325462492177296e+08 
-3.9000000000000021e+00 -1.0319053622892804e+00 +2.2761725865171165e+00 +2.2749954067013924e+01 +5.0320169100951529e+02 -1.0509371385469486e+05 -2.2492293226449462e+06 +6.9948350278670549e+08 
-4.0000000000000018e+00 -1.0319053654894963e+00 +2.2764708283814330e+00 +2.2710006072260597e+01 +4.8994341292306450e+02 -1.0421328175723933e+05 -2.1690813337054774e+06 +6.9528546081338859e+08 
-4.1000000000000014e+00 -1.0319053174800503e+00 +2.2767647574227268e+00 +2.2665186600681537e+01 +4.7674319987192115e+02 -1.0324562030487348e+05 -2.0890775370731496e+06 +6.9066639966639781e+08 
-4.2000000000000011e+00 -1.0319052191634412e+00 +2.2770548759702844e+00 +2.2615670533118635e+01 +4.6360710717835792e+02 -1.0219263006357737e+05 -2.0092780999183704e+06 +6.8563222188130915e+08 
-4.3000000000000007e+00 -1.0319050714422506e+00 +2.2773416862935427e+00 +2.2561632751562868e+01 +4.5054119173433941e+02 -1.0105621170452106e+05 -1.9297431978424385e+06 +6.8018883105820084e+08 
-4.4000000000000004e+00 -1.0319048752192361e+00 +2.2776256906011212e+00 +2.2503248151928190e+01 +4.3755151202750824e+02 -9.9838266264254416e+04 -1.8505330150886234e+06 +6.7434213317287576e+08 
-4.5000000000000000e+00 -1.0319046313972968e+00 +2.2779073910199807e+00 +2.2440691638413476e+01 +4.2464412875366662e+02 -9.8540695042093590e+04 -1.7717077481727223e+06 +6.6809803613200355e+08 
-4.5999999999999996e+00 -1.0319043408794690e+00 +2.2781872896047566e+00 +2.2374138122643789e+01 +4.1182510453625758e+02 -9.7165399588904140e+04 -1.6933276042836795e+06 +6.6146244975780249e+08 
-4.6999999999999993e+00 -1.0319040045689811e+00 +2.2784658883280171e+00 +2.2303762530179178e+01 +3.9910050421472573e+02 -9.5714281842987606e+04 -1.6154528030325267e+06 +6.5444128649932301e+08 
-4.7999999999999989e+00 -1.0319036233692436e+00 +2.2787436890678596e+00 +2.2229739798881511e+01 +3.8647639519989877e+02 -9.4189244103267032e+04 -1.5381435785645123e+06 +6.4704046133998847e+08 
-4.8999999999999986e+00 -1.0319031981838880e+00 +2.2790211936111722e+00 +2.2152244883181723e+01 +3.7395884738100233e+02 -9.2592189119156814e+04 -1.4614601790704986e+06 +6.3926589228071105e+08 
-4.9999999999999982e+00 -1.0319027299166899e+00 +2.2792989036387388e+00 +2.2071452744211506e+01 +3.6155393355500860e+02 -9.0925019910901916e+04 -1.3854628693466971e+06 +6.3112349953084791e+08 
-5.0999999999999979e+00 -1.0319022194717218e+00 +2.2795773207267951e+00 +2.1987538368228677e+01 +3.4926772937764372e+02 -8.9189640128224710e+04 -1.3102119305384995e+06 +6.2261920726879573e+08 
-5.1999999999999975e+00 -1.0319016677532620e+00 +2.2798569463434601e+00 +2.1900676755222683e+01 +3.3710631347251518e+02 -8.7387953839667258e+04 -1.2357676608569606e+06 +6.1375894267948210e+08 
-5.2999999999999972e+00 -1.0319010756658031e+00 +2.2801382818297653e+00 +2.1811042918666114e+01 +3.2507576797802068e+02 -8.5521865534378274e+04 -1.1621903788017074e+06 +6.0454863601170754e+08 
-5.3999999999999968e+00 -1.0319004441141408e+00 +2.2804218284078441e+00 +2.1718811897628960e+01 +3.1318217830242907e+02 -8.3593280367801752e+04 -1.0895404217770994e+06 +5.9499422181682885e+08 
-5.4999999999999964e+00 -1.0318997740033760e+00 +2.2807080871946468e+00 +2.1624158758182432e+01 +3.0143163250877876e+02 -8.1604104251672412e+04 -1.0178781448077848e+06 +5.8510163935525727e+08 
-5.5999999999999961e+00 -1.0318990678568665e+00 +2.2809973300894204e+00 +2.1527348386806906e+01 +2.8983010700280573e+02 -7.9557956960461845e+04 -9.4726353198231885e+05 +5.7488444333071160e+08 
-5.6999999999999957e+00 -1.0318983342283161e+00 +2.2812888966171885e+00 +2.1428958013161704e+01 +2.7838485937284349e+02 -7.7464052255715389e+04 -8.7776019876061764e+05 +5.6438038360267472e+08 
-5.7999999999999954e+00 -1.0318975830791897e+00 +2.2815818936588319e+00 +2.1329632765434425e+01 +2.6710369913626806e+02 -7.5332723179097462e+04 -8.0943307270626689e+05 +5.5363185816456246e+08 
-5.8999999999999950e+00 -1.0318968243704683e+00 +2.2818754277279227e+00 +2.1230017708155518e+01 +2.5599444760789962e+02 -7.3174301235836974e+04 -7.4234715514958964e+05 +5.4268125653753698e+08 
-5.9999999999999947e+00 -1.0318960680625093e+00 +2.2821686049428607e+00 +2.1130757823623842e+01 +2.4506493890045135e+02 -7.0999116032625563e+04 -6.7656752705010551e+05 +5.3157095796328050e+08 
-6.0999999999999943e+00 -1.0318953241151283e+00 +2.2824605310211443e+00 +2.1032498024441399e+01 +2.3432302014795181e+02 -6.8817495520988406e+04 -6.1215935053646402e+05 +5.2034333256533438e+08 
-6.1999999999999940e+00 -1.0318946024874796e+00 +2.2827503112585963e+00 +2.0935883136676136e+01 +2.2377655215771301e+02 -6.6639765647630134e+04 -5.4918787292470073e+05 +5.0904073958233654e+08 
-6.2999999999999936e+00 -1.0318939131381224e+00 +2.2830370505146864e+00 +2.0841557909044397e+01 +2.1343340991979312e+02 -6.4476250522327609e+04 -4.8771843000136619e+05 +4.9770552813263732e+08 
-6.3999999999999932e+00 -1.0318932660249036e+00 +2.2833198532069483e+00 +2.0750166998585453e+01 +2.0330148279202336e+02 -6.2337272128507400e+04 -4.2781644723905984e+05 +4.8638003577113253e+08 
-6.4999999999999929e+00 -1.0318926711050396e+00 +2.2835978232774328e+00 +2.0662354980787903e+01 +1.9338867556735588e+02 -6.0233150509392792e+04 -3.6954744635928870e+05 +4.7510658934476352e+08 
-6.5999999999999925e+00 -1.0318921383349866e+00 +2.2838700641956495e+00 +2.0578766332388764e+01 +1.8370290842878890e+02 -5.8174203410155184e+04 -3.1297704526693438e+05 +4.6392750318237805e+08 
-6.6999999999999922e+00 -1.0318916776704956e+00 +2.2841356789314480e+00 +2.0500045440531931e+01 +1.7425211778739015e+02 -5.6170746458679816e+04 -2.5817096314527831e+05 +4.5288507995916277e+08 
-6.7999999999999918e+00 -1.0318912990665430e+00 +2.2843937699491264e+00 +2.0426836591814002e+01 +1.6504425654339735e+02 -5.4233092925555218e+04 -2.0519502231386822e+05 +4.4202160944917130e+08 
-6.8999999999999915e+00 -1.0318910124773184e+00 +2.2846434391864237e+00 +2.0359783972330103e+01 +1.5608729471771065e+02 -5.2371553721280026e+04 -1.5411515204874118e+05 +4.3137936848421496e+08 
-6.9999999999999911e+00 -1.0318908278562313e+00 +2.2848837880399575e+00 +2.0299531667843592e+01 +1.4738921995102393e+02 -5.0596437381884964e+04 -1.0499739177821930e+05 +4.2100062082220280e+08 
-7.0999999999999908e+00 -1.0318907551558196e+00 +2.2851139173526769e+00 +2.0246723653075449e+01 +1.3895803793556203e+02 -4.8918049851735064e+04 -5.7907893870999818e+04 +4.1092761605399632e+08 
-7.1999999999999904e+00 -1.0318908043277988e+00 +2.2853329273982101e+00 +2.0202003797262066e+01 +1.3080177290423063e+02 -4.7346694575142268e+04 -1.2912926657356966e+04 +4.0120258999080473e+08 
-7.2999999999999901e+00 -1.0318909853230034e+00 +2.2855399178659939e+00 +2.0166015857224284e+01 +1.2292846814464257e+02 -4.5892672349388275e+04 +2.9921122259898941e+04 +3.9186776389739656e+08 
-7.3999999999999897e+00 -1.0318913080913361e+00 +2.2857339878421010e+00 +2.0139403471048883e+01 +1.1534618659976947e+02 -4.4566281193044633e+04 +7.0527742313184499e+04 +3.8296534382548952e+08 
-7.4999999999999893e+00 -1.0318917825815861e+00 +2.2859142357322790e+00 +2.0122810124629893e+01 +1.0806301275559589e+02 -4.3377815612998958e+04 +1.0884029987709103e+05 +3.7453751773983932e+08 
-7.5999999999999890e+00 -1.0318924157535443e+00 +2.2860801845242356e+00 +2.0116668781508849e+01 +1.0107815674960536e+02 -4.2334139010067491e+04 +1.4486199917013536e+05 +3.6661253948094261e+08 
-7.6999999999999886e+00 -1.0318932037739732e+00 +2.2862331026734748e+00 +2.0120695069235317e+01 +9.4354492028800621e+01 -4.1430893230769383e+04 +1.7886751926333705e+05 +3.5917307337437195e+08 
-7.7999999999999883e+00 -1.0318941403639104e+00 +2.2863746990492824e+00 +2.0134450929541689e+01 +8.7845796691590053e+01 -4.0661429644393458e+04 +2.1119786101513237e+05 +3.5219242593901294e+08 
-7.8999999999999879e+00 -1.0318952192457289e+00 +2.2865066826533189e+00 +2.0157498501549320e+01 +8.1505844707748537e+01 -4.0019104004761575e+04 +2.4219405618549796e+05 +3.4564392602211678e+08 
-7.9999999999999876e+00 -1.0318964341430985e+00 +2.2866307626190467e+00 +2.0189400117342021e+01 +7.5288406104673967e+01 -3.9497276386332196e+04 +2.7219716091262177e+05 +3.3950092501783365e+08 
-8.0999999999999872e+00 -1.0318977787812604e+00 +2.2867486482218160e+00 +2.0229718339368361e+01 +6.9147246652875026e+01 -3.9089311936794809e+04 +3.0154825764439377e+05 +3.3373680057173097e+08 
-8.1999999999999869e+00 -1.0318992468868320e+00 +2.2868620488810802e+00 +2.0278015934986595e+01 +6.3036127775330165e+01 -3.8788580398632512e+04 +3.3058845579194813e+05 +3.2832495432707018e+08 
-8.2999999999999865e+00 -1.0319008321880310e+00 +2.2869726741795753e+00 +2.0333855906995911e+01 +5.6908805981391851e+01 -3.8588456725477132e+04 +3.5965889507683687e+05 +3.2323881496379101e+08 
-8.3999999999999861e+00 -1.0319025284146597e+00 +2.2870822338683063e+00 +2.0396801492600957e+01 +5.0719032703968892e+01 -3.8482321085173760e+04 +3.8910074657985638e+05 +3.1845183828743243e+08 
-8.4999999999999858e+00 -1.0319043292981505e+00 +2.2871924378736326e+00 +2.0466416169405335e+01 +4.4420554063927135e+01 -3.8463558994105537e+04 +4.1925521423305979e+05 +3.1393750793087900e+08 
-8.5999999999999854e+00 -1.0319062285716167e+00 +2.2873049963104535e+00 +2.0542263663732907e+01 +3.7967110475427425e+01 -3.8525561502655721e+04 +4.5046353719730489e+05 +3.0966933631978589e+08 
-8.6999999999999851e+00 -1.0319082199699254e+00 +2.2874216194953427e+00 +2.0623907960196853e+01 +3.1312436241976631e+01 -3.8661725400377902e+04 +4.8306699230133300e+05 +3.0562086572500229e+08 
-8.7999999999999847e+00 -1.0319102972297656e+00 +2.2875440179522255e+00 +2.0710913311984179e+01 +2.4410259378414075e+01 -3.8865453438429358e+04 +5.1740689517792297e+05 +3.0176566939896047e+08 
-8.8999999999999844e+00 -1.0319124540896023e+00 +2.2876739024167323e+00 +2.0802844235034623e+01 +1.7214301467837075e+01 -3.9130154236303533e+04 +5.5382460116322967e+05 +2.9807735119272369e+08 
-8.9999999999999840e+00 -1.0319146842898228e+00 +2.2878129838587955e+00 +2.0899265528793446e+01 +9.6782769671663544e+00 -3.9449242708607984e+04 +5.9266150949650141e+05 +2.9452954768049073e+08 
-9.0999999999999837e+00 -1.0319169815727736e+00 +2.2879629734813181e+00 +2.0999742280673264e+01 +1.7558932551498685e+00 -3.9816140168008766e+04 +6.3425906304965657e+05 +2.9109592871140778e+08 
-9.1999999999999833e+00 -1.0319193396827591e+00 +2.2881255827334854e+00 +2.1103839868179296e+01 -6.5991497949835676e+00 -4.0224274395641594e+04 +6.7895875097444421e+05 +2.8775019783294809e+08 
-9.2999999999999829e+00 -1.0319217523661743e+00 +2.2883025233234942e+00 +2.1211123975379266e+01 -1.5433160191036308e+01 -4.0667079972637541e+04 +7.2710211093476741e+05 +2.8446609392918557e+08 
-9.3999999999999826e+00 -1.0319242133714481e+00 +2.2884955072244204e+00 +2.1321160587824917e+01 -2.4792454016090232e+01 -4.1137998212255290e+04 +7.7903073035341967e+05 +2.8121739098525238e+08 
-9.4999999999999822e+00 -1.0319267164494017e+00 +2.2887062467930028e+00 +2.1433516052140877e+01 -3.4723358960319878e+01 -4.1630478466866298e+04 +8.3508625928530551e+05 +2.7797790411830246e+08 
-9.5999999999999819e+00 -1.0319292562531945e+00 +2.2889360351269143e+00 +2.1547809183927360e+01 -4.5260238294225864e+01 -4.2139126364925840e+04 +8.9552610642256739e+05 +2.7472760071705133e+08 
-9.6999999999999815e+00 -1.0319318294431576e+00 +2.2891844296607111e+00 +2.1663691823049049e+01 -5.6384511249135777e+01 -4.2660056749732990e+04 +9.6023134059306059e+05 +2.7145876974695039e+08 
-9.7999999999999812e+00 -1.0319344327895617e+00 +2.2894505498466922e+00 +2.1780781312903603e+01 -6.8063178363967580e+01 -4.3189041495423357e+04 +1.0289774135205600e+06 +2.6816412792526788e+08 
-9.8999999999999808e+00 -1.0319370630617162e+00 +2.2897335157984755e+00 +2.1898694845554321e+01 -8.0263259162612073e+01 -4.3721849548262508e+04 +1.1015398714631705e+06 +2.6483637923177040e+08 
-9.9999999999999805e+00 -1.0319397170281774e+00 +2.2900324483076924e+00 +2.2017049491737346e+01 -9.2951795299456535e+01 -4.4254247271659973e+04 +1.1776943939742225e+06 +2.6146821452439523e+08 
-1.0099999999999980e+01 -1.0319423914567480e+00 +2.2903464688683113e+00 +2.2135462199451450e+01 -1.0609585133513916e+02 -4.4781998409741493e+04 +1.2572167985514421e+06 +2.5805231134010801e+08 
