# multipoles
# s[mm] polynom_b[n=0][T/m^n] polynom_b[n=1][T/m^n] polynom_b[n=2][T/m^n] polynom_b[n=3][T/m^n] polynom_b[n=4][T/m^n] polynom_b[n=5][T/m^n] polynom_b[n=6][T/m^n] 
-0.0000000000000000e+00 -1.0309653943928758e+00 +2.3008144179507544e+00 +2.1546379207803202e+01 -1.4694894630932401e+02 -4.2099555166974453e+04 +1.1279196513980273e+06 +2.6865301325048876e+08 
-1.0000000000000001e-01 -1.0309655659528512e+00 +2.3008390657614513e+00 +2.1526374457855347e+01 -1.4737437156615266e+02 -4.2327433778645303e+04 +1.1223832778507753e+06 +2.7158786981106305e+08 
-2.0000000000000001e-01 -1.0309656660123334e+00 +2.3008367417304778e+00 +2.1499924651411497e+01 -1.4719655300705003e+02 -4.2441852565705347e+04 +1.1139298086759292e+06 +2.7401985794979632e+08 
-2.9999999999999999e-01 -1.0309656931963640e+00 +2.3008056170580486e+00 +2.1466574222463244e+01 -1.4636645580061420e+02 -4.2434269629620008e+04 +1.1022889649404257e+06 +2.7590846678345066e+08 
-4.0000000000000002e-01 -1.0309656461297503e+00 +2.3007438630101169e+00 +2.1425867583135631e+01 -1.4483504729626574e+02 -4.2296142751487962e+04 +1.0871904814937471e+06 +2.7721318420346588e+08 
-5.0000000000000000e-01 -1.0309655234369588e+00 +2.3006496509208856e+00 +2.1377349112613828e+01 -1.4255329713147032e+02 -4.2018929189866816e+04 +1.0683641077524270e+06 +2.7789349594778258e+08 
-5.9999999999999998e-01 -1.0309653237422804e+00 +2.3005211522015165e+00 +2.1320563177150333e+01 -1.3947217746856793e+02 -4.1594086072585975e+04 +1.0455396090350578e+06 +2.7790888750724655e+08 
-6.9999999999999996e-01 -1.0309650456696231e+00 +2.3003565383297224e+00 +2.1255054103974157e+01 -1.3554266272055088e+02 -4.1013069904425356e+04 +1.0184467650834982e+06 +2.7721884180585474e+08 
-8.0000000000000004e-01 -1.0309646878425340e+00 +2.3001539808699278e+00 +2.1180366185573259e+01 -1.3071573013984826e+02 -4.0267336654826875e+04 +9.8681537354192324e+05 +2.7578283964789617e+08 
-9.0000000000000002e-01 -1.0309642488842330e+00 +2.2999116514652047e+00 +2.1096043685324585e+01 -1.2494235959429440e+02 -3.9348341880083717e+04 +9.5037524871815974e+05 +2.7356036034962571e+08 
-1.0000000000000000e+00 -1.0309637274175552e+00 +2.2996277218416314e+00 +2.1001630827604199e+01 -1.1817353370037307e+02 -3.8247540536913039e+04 +9.0885622237012943e+05 +2.7051088086992151e+08 
-1.1000000000000001e+00 -1.0309631220648632e+00 +2.2993003638168599e+00 +2.0896671790318919e+01 -1.1036023808680925e+02 -3.6956386848453905e+04 +8.6198814536510361e+05 +2.6659387520495802e+08 
-1.2000000000000000e+00 -1.0309624314481334e+00 +2.2989277493000415e+00 +2.0780710714131242e+01 -1.0145346140158775e+02 -3.5466334490885631e+04 +8.0950088773858931e+05 +2.6176881532067180e+08 
-1.3000000000000000e+00 -1.0309616541888380e+00 +2.2985080502938398e+00 +2.0653291689791622e+01 -9.1404195371105061e+01 -3.3768836356303953e+04 +7.5112433909504861e+05 +2.5599517004305077e+08 
-1.3999999999999999e+00 -1.0309607889079178e+00 +2.2980394389010730e+00 +2.0513958754061818e+01 -8.0163435018333942e+01 -3.1855344485721995e+04 +6.8658840997409867e+05 +2.4923240478214455e+08 
-1.5000000000000000e+00 -1.0309598342258954e+00 +2.2975200873231860e+00 +2.0362255904258344e+01 -6.7682178625556503e+01 -2.9717310354783724e+04 +6.1562303167610790e+05 +2.4143998292659512e+08 
-1.6000000000000001e+00 -1.0309587913077209e+00 +2.2969492358271517e+00 +2.0198043290345346e+01 -5.3939750487306512e+01 -2.7351714700121360e+04 +5.3811698818129685e+05 +2.3260191527394614e+08 
-1.7000000000000000e+00 -1.0309576716263218e+00 +2.2963303241423993e+00 +2.0022444369127651e+01 -3.9027341765265319e+01 -2.4777503393774892e+04 +4.5458832645654073e+05 +2.2279929800525197e+08 
-1.8000000000000000e+00 -1.0309564892648939e+00 +2.2956678241649890e+00 +1.9836898303004425e+01 -2.3063770478317849e+01 -2.2019079947103368e+04 +3.6571100498494064e+05 +2.1213724361749992e+08 
-1.8999999999999999e+00 -1.0309552583068107e+00 +2.2949662076814747e+00 +1.9642844285080294e+01 -6.1678510700731755e+00 -1.9100848545235353e+04 +2.7215896022216155e+05 +2.0072086804631847e+08 
-2.0000000000000000e+00 -1.0309539928356948e+00 +2.2942299463374272e+00 +1.9441721544828653e+01 +1.1541606575986906e+01 -1.6047214145988270e+04 +1.7460610055055108e+05 +1.8865529110317275e+08 
-2.1000000000000001e+00 -1.0309527069354105e+00 +2.2934635116142492e+00 +1.9234969347276643e+01 +2.9945797926493057e+01 -1.2882582448146544e+04 +7.3726301297162194e+04 +1.7604563626300204e+08 
-2.2000000000000002e+00 -1.0309514146902690e+00 +2.2926713748099603e+00 +1.9024027018512758e+01 +4.8925924431619713e+01 -9.6313603798965651e+03 -2.9806599285085213e+04 +1.6299703298139563e+08 
-2.2999999999999998e+00 -1.0309501301849884e+00 +2.2918580070034311e+00 +1.8810333938539934e+01 +6.8363194669805580e+01 -6.3179559438084252e+03 -1.3531880704257268e+05 +1.4961461588775599e+08 
-2.3999999999999999e+00 -1.0309488675047929e+00 +2.2910278790376313e+00 +1.8595329555278745e+01 +8.8138824918224145e+01 -2.9667784840202271e+03 -2.4213657556749703e+05 +1.3600352604696470e+08 
-2.5000000000000000e+00 -1.0309476407355544e+00 +2.2901854614927566e+00 +1.8380453400465651e+01 +1.0813404002228800e+02 +3.9776102329641981e+02 -3.4958621159082756e+05 +1.2226891228885017e+08 
-2.6000000000000001e+00 -1.0309464639637502e+00 +2.2893352246547147e+00 +1.8167145082859292e+01 +1.2823007441713798e+02 +3.7512501090339679e+03 -4.5699408133106207e+05 +1.0851593050637859e+08 
-2.7000000000000002e+00 -1.0309453512766040e+00 +2.2884816385050128e+00 +1.7956844307404801e+01 +1.4830817249007990e+02 +7.0692744513161688e+03 -5.6368661284728325e+05 +9.4849745339628085e+07 
-2.7999999999999998e+00 -1.0309443167621817e+00 +2.2876291726758526e+00 +1.7750990885605880e+01 +1.6824959000958202e+02 +1.0327417686888293e+04 -6.6899030482290615e+05 +8.1375531032766312e+07 
-2.8999999999999999e+00 -1.0309433745094079e+00 +2.2867822964393985e+00 +1.7551024734775094e+01 +1.8793559449510352e+02 +1.3501261435986031e+04 -7.7223172897856007e+05 +6.8198471269506305e+07 
-3.0000000000000000e+00 -1.0309425386081323e+00 +2.2859454786778222e+00 +1.7358385889928186e+01 +2.0724746620038491e+02 +1.6566385082091005e+04 -8.7273753614795732e+05 +5.5423760193942398e+07 
-3.1000000000000001e+00 -1.0309418231492884e+00 +2.2851231878572280e+00 +1.7174514520521079e+01 +2.2606649896876229e+02 +1.9498365461324091e+04 -9.6983446166722663e+05 +4.3156603846358307e+07 
-3.2000000000000002e+00 -1.0309412422248379e+00 +2.2843198920055432e+00 +1.7000850922186547e+01 +2.4427400093375010e+02 +2.2272777028652563e+04 -1.0628493296853059e+06 +3.1502219335800029e+07 
-3.2999999999999998e+00 -1.0309408099279782e+00 +2.2835400586839998e+00 +1.6838835544775751e+01 +2.6175129549131623e+02 +2.4865191330968824e+04 -1.1511090593008790e+06 +2.0565837311975803e+07 
-3.3999999999999999e+00 -1.0309405403530922e+00 +2.2827881549633520e+00 +1.6689908982532156e+01 +2.7837972202945974e+02 +2.7251177206970613e+04 -1.2339406690283522e+06 +1.0452700964174338e+07 
-3.5000000000000000e+00 -1.0309404475958881e+00 +2.2820686473880958e+00 +1.6555511991271818e+01 +2.9404063716831718e+02 +2.9406300477991517e+04 -1.3106712844784812e+06 +1.2680674360961895e+06 
-3.6000000000000001e+00 -1.0309405428259015e+00 +2.2813851304994173e+00 +1.6436768187467042e+01 +3.0863968459328953e+02 +3.1311913645025226e+04 -1.3807697199199041e+06 -6.9087962665003408e+06 
-3.7000000000000002e+00 -1.0309408252161898e+00 +2.2807378792938695e+00 +1.6333528227014746e+01 +3.2217541877811902e+02 +3.2972321609957937e+04 -1.4442540888489224e+06 -1.4100667505452177e+07 
-3.7999999999999998e+00 -1.0309412908620299e+00 +2.2801263785084953e+00 +1.6245322154133284e+01 +3.3466866787922027e+02 +3.4397546662932400e+04 -1.5012762480643876e+06 -2.0355483780907914e+07 
-3.8999999999999999e+00 -1.0309419358588896e+00 +2.2795501127605808e+00 +1.6171680030688410e+01 +3.4614026301290073e+02 +3.5597610835605905e+04 -1.5519880702244297e+06 -2.5721181590400271e+07 
-4.0000000000000000e+00 -1.0309427563023466e+00 +2.2790085665566822e+00 +1.6112131922391448e+01 +3.5661103777508328e+02 +3.6582536175215057e+04 -1.5965414398721666e+06 -3.0245697823112234e+07 
-4.0999999999999996e+00 -1.0309437482881045e+00 +2.2785012242871638e+00 +1.6066207905425642e+01 +3.6610182835617360e+02 +3.7362344627465034e+04 -1.6350882538440458e+06 -3.3976969226805128e+07 
-4.2000000000000002e+00 -1.0309449079120174e+00 +2.2780275702403596e+00 +1.6033438063519338e+01 +3.7463347301640880e+02 +3.7947058100891627e+04 -1.6677804179224740e+06 -3.6962932739945404e+07 
-4.2999999999999998e+00 -1.0309462312700020e+00 +2.2775870886046352e+00 +1.6013352480261759e+01 +3.8222681195553542e+02 +3.8346698619400056e+04 -1.6947698457635969e+06 -3.9251526232177041e+07 
-4.4000000000000004e+00 -1.0309477144580332e+00 +2.2771792634735224e+00 +1.6005481234567309e+01 +3.8890268706387837e+02 +3.8571288422365651e+04 -1.7162084571401761e+06 -4.0890689019976825e+07 
-4.5000000000000000e+00 -1.0309493535721785e+00 +2.2768035788558740e+00 +1.6009354408516895e+01 +3.9468194155549787e+02 +3.8630849815076632e+04 -1.7322481755213996e+06 -4.1928361156399772e+07 
-4.5999999999999996e+00 -1.0309511447085333e+00 +2.2764595186780308e+00 +1.6024502073024745e+01 +3.9958541980502798e+02 +3.8535405460867369e+04 -1.7430409268221464e+06 -4.2412484871417470e+07 
-4.7000000000000002e+00 -1.0309530839632404e+00 +2.2761465667902678e+00 +1.6050454294407402e+01 +4.0363396708321983e+02 +3.8294978251854576e+04 -1.7487386375597066e+06 -4.2391003945985928e+07 
-4.7999999999999998e+00 -1.0309551674323802e+00 +2.2758642069696671e+00 +1.6086741118642980e+01 +4.0684842938577356e+02 +3.7919591629557101e+04 -1.7494932335378986e+06 -4.1911865297854684e+07 
-4.9000000000000004e+00 -1.0309573912120955e+00 +2.2756119229339484e+00 +1.6132892583952184e+01 +4.0924965293517471e+02 +3.7419269346316352e+04 -1.7454566366729052e+06 -4.1023017847848251e+07 
-5.0000000000000000e+00 -1.0309597513984485e+00 +2.2753891983352328e+00 +1.6188438705926774e+01 +4.1085848430049299e+02 +3.6804035755286262e+04 -1.7367807654032076e+06 -3.9772413917075202e+07 
-5.0999999999999996e+00 -1.0309622440874833e+00 +2.2751955167813516e+00 +1.6252909481523417e+01 +4.1169576965805027e+02 +3.6083915752476874e+04 -1.7236175300277446e+06 -3.8208009004092574e+07 
-5.2000000000000002e+00 -1.0309648653751773e+00 +2.2750303618229006e+00 +1.6325834884270144e+01 +4.1178235510146982e+02 +3.5268934861364272e+04 -1.7061188342507929e+06 -3.6377762168162279e+07 
-5.2999999999999998e+00 -1.0309676113573865e+00 +2.2748932169764768e+00 +1.6406744855852068e+01 +4.1113908589089203e+02 +3.4369119418006710e+04 -1.6844365705417264e+06 -3.4329636977947727e+07 
-5.4000000000000004e+00 -1.0309704781299118e+00 +2.2747835657175202e+00 +1.6495169313569047e+01 +4.0978680654265224e+02 +3.3394496426635458e+04 -1.6587226202747424e+06 -3.2111600820446923e+07 
-5.5000000000000000e+00 -1.0309734617884256e+00 +2.2747008915112823e+00 +1.6590638144377387e+01 +4.0774635951416309e+02 +3.2355093623211047e+04 -1.6291288452707892e+06 -2.9771625064112194e+07 
-5.5999999999999996e+00 -1.0309765568956029e+00 +2.2746446569421037e+00 +1.6692592916325761e+01 +4.0503971020091353e+02 +3.1261237402708324e+04 -1.5958151868102904e+06 -2.7355494363132797e+07 
-5.7000000000000002e+00 -1.0309797516553401e+00 +2.2746141005758624e+00 +1.6800092497519817e+01 +4.0170167677484073e+02 +3.0124947541513098e+04 -1.5590296993539585e+06 -2.4902413514096484e+07 
-5.7999999999999998e+00 -1.0309830326152918e+00 +2.2746083713618703e+00 +1.6912091865958160e+01 +3.9777236593175678e+02 +2.8958786556535699e+04 -1.5190563945767072e+06 -2.2450398589970797e+07 
-5.9000000000000004e+00 -1.0309863863225643e+00 +2.2746266187664417e+00 +1.7027545895005066e+01 +3.9329187039640209e+02 +2.7775319273080397e+04 -1.4761792086407887e+06 -2.0037477587555293e+07 
-6.0000000000000000e+00 -1.0309897993237391e+00 +2.2746679928121427e+00 +1.7145409352761202e+01 +3.8830026730928756e+02 +2.6587112918913252e+04 -1.4306819921529084e+06 -1.7701691105980329e+07 
-6.0999999999999996e+00 -1.0309932581648351e+00 +2.2747316441067804e+00 +1.7264636894444788e+01 +3.8283761740895449e+02 +2.5406737279769797e+04 -1.3828485056463757e+06 -1.5481093114918668e+07 
-6.2000000000000002e+00 -1.0309967493912988e+00 +2.2748167238736663e+00 +1.7384183065263539e+01 +3.7694396421197672e+02 +2.4246764653914877e+04 -1.3329624150647833e+06 -1.3413750764242509e+07 
-6.2999999999999998e+00 -1.0310002595478840e+00 +2.2749223839717549e+00 +1.7503002277795883e+01 +3.7065933343708230e+02 +2.3119770308738822e+04 -1.2813072886459981e+06 -1.1537746630415305e+07 
-6.4000000000000004e+00 -1.0310037751787324e+00 +2.2750477769364621e+00 +1.7620048823412880e+01 +3.6402373186427900e+02 +2.2038332266888650e+04 -1.2281665905346395e+06 -9.8911777059146482e+06 
-6.5000000000000000e+00 -1.0310072828272805e+00 +2.2751920559934025e+00 +1.7734276860122858e+01 +3.5707714697647822e+02 +2.1015031557945371e+04 -1.1738236789499880e+06 -8.5121566564528011e+06 
-6.5999999999999996e+00 -1.0310107690362602e+00 +2.2753543750950236e+00 +1.7844640409048676e+01 +3.4985954591340948e+02 +2.0062452294920349e+04 -1.1185618003132448e+06 -7.4388122053451352e+06 
-6.7000000000000002e+00 -1.0310142203476496e+00 +2.2755338889521806e+00 +1.7950093349156401e+01 +3.4241087459955673e+02 +1.9193181791221665e+04 -1.0626640844386506e+06 -6.7092897418496255e+06 
-6.7999999999999998e+00 -1.0310176233026049e+00 +2.2757297530495255e+00 +1.8049589405955210e+01 +3.3477105734035911e+02 +1.8419810792304746e+04 -1.0064135424519297e+06 -6.3617524673098819e+06 
-6.9000000000000004e+00 -1.0310209644415369e+00 +2.2759411236841909e+00 +1.8142082158328609e+01 +3.2697999569996449e+02 +1.7754933353568020e+04 -9.5009306044431822e+05 -6.4343808334166817e+06 
-7.0000000000000000e+00 -1.0310242303039514e+00 +2.2761671579929028e+00 +1.8226525020375444e+01 +3.1907756777949237e+02 +1.7211147205526457e+04 -8.9398539555552753e+05 -6.9653743387492448e+06 
-7.0999999999999996e+00 -1.0310274074285248e+00 +2.2764070139744050e+00 +1.8301871247142962e+01 +3.1110362759018830e+02 +1.6801053654811818e+04 -8.3837317258083983e+05 -7.9929510808514701e+06 
-7.2000000000000002e+00 -1.0310304823530128e+00 +2.2766598505249229e+00 +1.8367073921466353e+01 +3.0309800404088054e+02 +1.6537257852126168e+04 -7.8353887827665335e+05 -9.5553490833548028e+06 
-7.2999999999999998e+00 -1.0310334416142393e+00 +2.2769248274571958e+00 +1.8421085955212174e+01 +2.9510050046081739e+02 +1.6432368779169061e+04 -7.2976485889815481e+05 -1.1690826259779543e+07 
-7.4000000000000004e+00 -1.0310362717480364e+00 +2.2772011055393686e+00 +1.8462860073155802e+01 +2.8715089344356261e+02 +1.6498999576655762e+04 -6.7733331362137478e+05 -1.4437662036862699e+07 
-7.5000000000000000e+00 -1.0310389592892850e+00 +2.2774878464762707e+00 +1.8491348820181035e+01 +2.7928893438332426e+02 +1.6749767544348852e+04 -6.2652630669552367e+05 -1.7834157854562655e+07 
-7.5999999999999996e+00 -1.0310414941133605e+00 +2.2777840717215239e+00 +1.8505817898893067e+01 +2.7155240784530389e+02 +1.7193209183221232e+04 -5.7759721187028789e+05 -2.1905132921254851e+07 
-7.7000000000000002e+00 -1.0310438805021722e+00 +2.2780881937061892e+00 +1.8506947512242778e+01 +2.6396264982493210e+02 +1.7818819627463352e+04 -5.3060555412294203e+05 -2.6610222252556983e+07 
-7.7999999999999998e+00 -1.0310461266501503e+00 +2.2783984500847319e+00 +1.8495819400648813e+01 +2.5653479401917917e+02 +1.8610558586300180e+04 -4.8554201273106731e+05 -3.1889692033476304e+07 
-7.9000000000000004e+00 -1.0310482407519637e+00 +2.2787130779415596e+00 +1.8473515417787237e+01 +2.4928398876669905e+02 +1.9552383074624246e+04 -4.4239733917272824e+05 -3.7683794370745145e+07 
-8.0000000000000000e+00 -1.0310502310022256e+00 +2.2790303137911208e+00 +1.8441117487901995e+01 +2.4222539960960452e+02 +2.0628247989509764e+04 -4.0116238218900771e+05 -4.3932768834054872e+07 
-8.0999999999999996e+00 -1.0310521055954649e+00 +2.2793483935841601e+00 +1.8399707603253535e+01 +2.3537420910043215e+02 +2.1822106127849594e+04 -3.6182808647457941e+05 -5.0576842448152289e+07 
-8.1999999999999993e+00 -1.0310538727261283e+00 +2.2796655526669891e+00 +1.8350367829030226e+01 +2.2874561802950419e+02 +2.3117908063549479e+04 -3.2438549972680013e+05 -5.7556229011767209e+07 
-8.3000000000000007e+00 -1.0310555405885797e+00 +2.2799800257681690e+00 +1.8294180303396818e+01 +2.2235484580672500e+02 +2.4499602119498075e+04 -2.8882577470178145e+05 -6.4811128881955907e+07 
-8.4000000000000004e+00 -1.0310571173771284e+00 +2.2802900469727283e+00 +1.8232227246813100e+01 +2.1621713123045802e+02 +2.5951134156432869e+04 -2.5514017352439888e+05 -7.2281727859886423e+07 
-8.5000000000000000e+00 -1.0310586112860030e+00 +2.2805938496992746e+00 +1.8165590960676745e+01 +2.1034773317830425e+02 +2.7456447570440643e+04 -2.2332007160176834e+05 -7.9908197091661051e+07 
-8.5999999999999996e+00 -1.0310600305093496e+00 +2.2808896666768561e+00 +1.8095353827843418e+01 +2.0476193127589340e+02 +2.8999483255688978e+04 -1.9335696134620544e+05 -8.7630692804888144e+07 
-8.6999999999999993e+00 -1.0310613832412545e+00 +2.2811757299288788e+00 +1.8022598323545854e+01 +1.9947502640391571e+02 +3.0564179359528451e+04 -1.6524245499204099e+05 -9.5389355024208024e+07 
-8.8000000000000007e+00 -1.0310626776757412e+00 +2.2814502707374156e+00 +1.7948407012938496e+01 +1.9450234173240929e+02 +3.2134471304797895e+04 -1.3896829047369398e+05 -1.0312430760335992e+08 
-8.9000000000000004e+00 -1.0310639220067628e+00 +2.2817115196397446e+00 +1.7873862554982839e+01 +1.8985922283511204e+02 +3.3694291685744669e+04 -1.1452633192516946e+05 -1.1077565763315056e+08 
-9.0000000000000000e+00 -1.0310651244281805e+00 +2.2819577063835768e+00 +1.7800047704061416e+01 +1.8556103902752028e+02 +3.5227570206034208e+04 -9.1908577362326861e+04 -1.1828349504717886e+08 
-9.0999999999999996e+00 -1.0310662931338372e+00 +2.2821870599222716e+00 +1.7728045319996497e+01 +1.8162318350079349e+02 +3.6718233454350389e+04 -7.1107159300917410e+04 -1.2558789145046277e+08 
-9.1999999999999993e+00 -1.0310674363174797e+00 +2.2823978083834882e+00 +1.7658938361356245e+01 +1.7806107424711305e+02 +3.8150205008716715e+04 -5.2114349964007815e+04 -1.3262890054020448e+08 
-9.3000000000000007e+00 -1.0310685621728215e+00 +2.2825881790481954e+00 +1.7593809898369546e+01 +1.7489015470146350e+02 +3.9507405156607594e+04 -3.4922564924436272e+04 -1.3934655666757131e+08 
-9.4000000000000004e+00 -1.0310696788934783e+00 +2.2827563983335599e+00 +1.7533743106174089e+01 +1.7212589424939506e+02 +4.0773750992296402e+04 -1.9524365914278191e+04 -1.4568087520377108e+08 
-9.5000000000000000e+00 -1.0310707946730322e+00 +2.2829006918079657e+00 +1.7479821279554869e+01 +1.6978378656255390e+02 +4.1933155951958302e+04 -5.9124432013496817e+03 -1.5157184930367112e+08 
-9.5999999999999996e+00 -1.0310719160907471e+00 +2.2830197197387156e+00 +1.7432898208542856e+01 +1.6787357362819176e+02 +4.2973018811099806e+04 +5.9397117251383870e+03 -1.5697250775164479e+08 
-9.6999999999999993e+00 -1.0310730423615744e+00 +2.2831141452913308e+00 +1.7392725524875505e+01 +1.6638340729963301e+02 +4.3897950185974463e+04 +1.6096489227144846e+04 -1.6190263670464763e+08 
-9.8000000000000007e+00 -1.0310741705674364e+00 +2.2831852201198930e+00 +1.7358721953293806e+01 +1.6529607001002981e+02 +4.4717860595314763e+04 +2.4623151060520890e+04 -1.6640302004837051e+08 
-9.9000000000000004e+00 -1.0310752977901143e+00 +2.2832341964153562e+00 +1.7330306136072029e+01 +1.6459433020580795e+02 +4.5442662118625711e+04 +3.1585030075577874e+04 -1.7051444824126261e+08 
-1.0000000000000000e+01 -1.0310764211117194e+00 +2.2832623267383836e+00 +1.7306896729475106e+01 +1.6426094392704377e+02 +4.6082266715685008e+04 +3.7047534213795363e+04 -1.7427771141611657e+08 
-1.0100000000000000e+01 -1.0310775376148349e+00 +2.2832708640362016e+00 +1.7287912414131171e+01 +1.6427865424596854e+02 +4.6646586035632557e+04 +4.1076149839920188e+04 -1.7773359848652384e+08 
