# trajectory
# s[mm] rx[mm] ry[mm] rz[mm] px[rad] py[rad] pz[rad]
0.0000000000000000e+00 +9.1762999999999995e+00 +0.0000000000000000e+00 +0.0000000000000000e+00 +0.0000000000000000e+00 +0.0000000000000000e+00 +1.0000000000000000e+00
-1.0000000000000001e-01 +9.1762994844406194e+00 +0.0000000000000000e+00 -9.9999999998227992e-02 +1.0311180197366838e-05 +0.0000000000000000e+00 +9.9999999994683975e-01
-2.0000000000000001e-01 +9.1762979377654244e+00 +0.0000000000000000e+00 -1.9999999998582396e-01 +2.0622316446265154e-05 +0.0000000000000000e+00 +9.9999999978735998e-01
-3.0000000000000004e-01 +9.1762953599787664e+00 +0.0000000000000000e+00 -2.9999999995215604e-01 +3.0933409623388286e-05 +0.0000000000000000e+00 +9.9999999952156204e-01
-4.0000000000000002e-01 +9.1762917510849054e+00 +0.0000000000000000e+00 -3.9999999988659246e-01 +4.1244460667405311e-05 +0.0000000000000000e+00 +9.9999999914944715e-01
-5.0000000000000000e-01 +9.1762871110880049e+00 +0.0000000000000000e+00 -4.9999999977850162e-01 +5.1555470578954076e-05 +0.0000000000000000e+00 +9.9999999867101663e-01
-5.9999999999999998e-01 +9.1762814399921258e+00 +0.0000000000000000e+00 -5.9999999961725203e-01 +6.1866440420634201e-05 +0.0000000000000000e+00 +9.9999999808627171e-01
-6.9999999999999996e-01 +9.1762747378012186e+00 +0.0000000000000000e+00 -6.9999999939221225e-01 +7.2177371316999985e-05 +0.0000000000000000e+00 +9.9999999739521350e-01
-7.9999999999999993e-01 +9.1762670045191204e+00 +0.0000000000000000e+00 -7.9999999909275099e-01 +8.2488264454553390e-05 +0.0000000000000000e+00 +9.9999999659784311e-01
-8.9999999999999991e-01 +9.1762582401495454e+00 +0.0000000000000000e+00 -8.9999999870823710e-01 +9.2799121081736844e-05 +0.0000000000000000e+00 +9.9999999569416154e-01
-9.9999999999999989e-01 +9.1762484446960784e+00 +0.0000000000000000e+00 -9.9999999822803953e-01 +1.0310994250892615e-04 +0.0000000000000000e+00 +9.9999999468416989e-01
-1.0999999999999999e+00 +9.1762376181621708e+00 +0.0000000000000000e+00 -1.0999999976415273e+00 +1.1342073010842324e-04 +0.0000000000000000e+00 +9.9999999356786895e-01
-1.2000000000000000e+00 +9.1762257605511355e+00 +0.0000000000000000e+00 -1.1999999969380697e+00 +1.2373148531444897e-04 +0.0000000000000000e+00 +9.9999999234525971e-01
-1.3000000000000000e+00 +9.1762128718661380e+00 +0.0000000000000000e+00 -1.2999999961070356e+00 +1.3404220962313584e-04 +0.0000000000000000e+00 +9.9999999101634296e-01
-1.4000000000000001e+00 +9.1761989521101892e+00 +0.0000000000000000e+00 -1.3999999951377946e+00 +1.4435290459252072e-04 +0.0000000000000000e+00 +9.9999998958111935e-01
-1.5000000000000002e+00 +9.1761840012861438e+00 +0.0000000000000000e+00 -1.4999999940197160e+00 +1.5466357184253744e-04 +0.0000000000000000e+00 +9.9999998803958967e-01
-1.6000000000000003e+00 +9.1761680193966892e+00 +0.0000000000000000e+00 -1.5999999927421691e+00 +1.6497421305036074e-04 +0.0000000000000000e+00 +9.9999998639175436e-01
-1.7000000000000004e+00 +9.1761510064443463e+00 +0.0000000000000000e+00 -1.6999999912945234e+00 +1.7528482989926329e-04 +0.0000000000000000e+00 +9.9999998463761397e-01
-1.8000000000000005e+00 +9.1761329624314669e+00 +0.0000000000000000e+00 -1.7999999896661485e+00 +1.8559542402747263e-04 +0.0000000000000000e+00 +9.9999998277716906e-01
-1.9000000000000006e+00 +9.1761138873602448e+00 +0.0000000000000000e+00 -1.8999999878464138e+00 +1.9590599702351509e-04 +0.0000000000000000e+00 +9.9999998081041985e-01
-2.0000000000000004e+00 +9.1760937812327157e+00 +0.0000000000000000e+00 -1.9999999858246889e+00 +2.0621655042620852e-04 +0.0000000000000000e+00 +9.9999997873736679e-01
-2.1000000000000005e+00 +9.1760726440507625e+00 +0.0000000000000000e+00 -2.0999999835903438e+00 +2.1652708572465488e-04 +0.0000000000000000e+00 +9.9999997655801010e-01
-2.2000000000000006e+00 +9.1760504758161261e+00 +0.0000000000000000e+00 -2.1999999811327475e+00 +2.2683760435823286e-04 +0.0000000000000000e+00 +9.9999997427235010e-01
-2.3000000000000007e+00 +9.1760272765303998e+00 +0.0000000000000000e+00 -2.2999999784412704e+00 +2.3714810771659044e-04 +0.0000000000000000e+00 +9.9999997188038692e-01
-2.4000000000000008e+00 +9.1760030461950457e+00 +0.0000000000000000e+00 -2.3999999755052817e+00 +2.4745859713963748e-04 +0.0000000000000000e+00 +9.9999996938212066e-01
-2.5000000000000009e+00 +9.1759777848113924e+00 +0.0000000000000000e+00 -2.4999999723141513e+00 +2.5776907391753835e-04 +0.0000000000000000e+00 +9.9999996677755154e-01
-2.6000000000000010e+00 +9.1759514923806424e+00 +0.0000000000000000e+00 -2.5999999688572486e+00 +2.6807953929070438e-04 +0.0000000000000000e+00 +9.9999996406667946e-01
-2.7000000000000011e+00 +9.1759241689038760e+00 +0.0000000000000000e+00 -2.6999999651239435e+00 +2.7838999444978644e-04 +0.0000000000000000e+00 +9.9999996124950452e-01
-2.8000000000000012e+00 +9.1758958143820557e+00 +0.0000000000000000e+00 -2.7999999611036057e+00 +2.8870044053566738e-04 +0.0000000000000000e+00 +9.9999995832602673e-01
-2.9000000000000012e+00 +9.1758664288160343e+00 +0.0000000000000000e+00 -2.8999999567856052e+00 +2.9901087863945459e-04 +0.0000000000000000e+00 +9.9999995529624597e-01
-3.0000000000000013e+00 +9.1758360122065579e+00 +0.0000000000000000e+00 -2.9999999521593113e+00 +3.0932130980247251e-04 +0.0000000000000000e+00 +9.9999995216016224e-01
-3.1000000000000014e+00 +9.1758045645542712e+00 +0.0000000000000000e+00 -3.0999999472140942e+00 +3.1963173501625502e-04 +0.0000000000000000e+00 +9.9999994891777544e-01
-3.2000000000000015e+00 +9.1757720858597214e+00 +0.0000000000000000e+00 -3.1999999419393230e+00 +3.2994215522253785e-04 +0.0000000000000000e+00 +9.9999994556908534e-01
-3.3000000000000016e+00 +9.1757385761233632e+00 +0.0000000000000000e+00 -3.2999999363243679e+00 +3.4025257131325114e-04 +0.0000000000000000e+00 +9.9999994211409193e-01
-3.4000000000000017e+00 +9.1757040353455679e+00 +0.0000000000000000e+00 -3.3999999303585979e+00 +3.5056298413051168e-04 +0.0000000000000000e+00 +9.9999993855279490e-01
-3.5000000000000018e+00 +9.1756684635266197e+00 +0.0000000000000000e+00 -3.4999999240313833e+00 +3.6087339446661546e-04 +0.0000000000000000e+00 +9.9999993488519412e-01
-3.6000000000000019e+00 +9.1756318606667318e+00 +0.0000000000000000e+00 -3.5999999173320933e+00 +3.7118380306564819e-04 +0.0000000000000000e+00 +9.9999993111128949e-01
-3.7000000000000020e+00 +9.1755942267660409e+00 +0.0000000000000000e+00 -3.6999999102500976e+00 +3.8149421064127972e-04 +0.0000000000000000e+00 +9.9999992723108067e-01
-3.8000000000000020e+00 +9.1755555618246145e+00 +0.0000000000000000e+00 -3.7999999027747657e+00 +3.9180461789456054e-04 +0.0000000000000000e+00 +9.9999992324456743e-01
-3.9000000000000021e+00 +9.1755158658424492e+00 +0.0000000000000000e+00 -3.8999998948954673e+00 +4.0211502551553650e-04 +0.0000000000000000e+00 +9.9999991915174957e-01
-4.0000000000000018e+00 +9.1754751388194755e+00 +0.0000000000000000e+00 -3.9999998866015720e+00 +4.1242543418324579e-04 +0.0000000000000000e+00 +9.9999991495262675e-01
-4.1000000000000014e+00 +9.1754333807555550e+00 +0.0000000000000000e+00 -4.0999998778824489e+00 +4.2273584456571601e-04 +0.0000000000000000e+00 +9.9999991064719862e-01
-4.2000000000000011e+00 +9.1753905916504834e+00 +0.0000000000000000e+00 -4.1999998687274678e+00 +4.3304625731996159e-04 +0.0000000000000000e+00 +9.9999990623546486e-01
-4.3000000000000007e+00 +9.1753467715039907e+00 +0.0000000000000000e+00 -4.2999998591259985e+00 +4.4335667309198124e-04 +0.0000000000000000e+00 +9.9999990171742514e-01
-4.4000000000000004e+00 +9.1753019203157429e+00 +0.0000000000000000e+00 -4.3999998490674095e+00 +4.5366709251675602e-04 +0.0000000000000000e+00 +9.9999989709307902e-01
-4.5000000000000000e+00 +9.1752560380853438e+00 +0.0000000000000000e+00 -4.4999998385410702e+00 +4.6397751621824737e-04 +0.0000000000000000e+00 +9.9999989236242615e-01
-4.5999999999999996e+00 +9.1752091248123353e+00 +0.0000000000000000e+00 -4.5999998275363509e+00 +4.7428794480939559e-04 +0.0000000000000000e+00 +9.9999988752546609e-01
-4.6999999999999993e+00 +9.1751611804961986e+00 +0.0000000000000000e+00 -4.6999998160426202e+00 +4.8459837889211846e-04 +0.0000000000000000e+00 +9.9999988258219841e-01
-4.7999999999999989e+00 +9.1751122051363545e+00 +0.0000000000000000e+00 -4.7999998040492473e+00 +4.9490881905731011e-04 +0.0000000000000000e+00 +9.9999987753262265e-01
-4.8999999999999986e+00 +9.1750621987321654e+00 +0.0000000000000000e+00 -4.8999997915456008e+00 +5.0521926588484019e-04 +0.0000000000000000e+00 +9.9999987237673826e-01
-4.9999999999999982e+00 +9.1750111612829368e+00 +0.0000000000000000e+00 -4.9999997785210510e+00 +5.1552971994355337e-04 +0.0000000000000000e+00 +9.9999986711454480e-01
-5.0999999999999979e+00 +9.1749590927879172e+00 +0.0000000000000000e+00 -5.0999997649649664e+00 +5.2584018179126907e-04 +0.0000000000000000e+00 +9.9999986174604172e-01
-5.1999999999999975e+00 +9.1749059932463002e+00 +0.0000000000000000e+00 -5.1999997508667155e+00 +5.3615065197478123e-04 +0.0000000000000000e+00 +9.9999985627122856e-01
-5.2999999999999972e+00 +9.1748518626572260e+00 +0.0000000000000000e+00 -5.2999997362156677e+00 +5.4646113102985855e-04 +0.0000000000000000e+00 +9.9999985069010466e-01
-5.3999999999999968e+00 +9.1747967010197815e+00 +0.0000000000000000e+00 -5.3999997210011923e+00 +5.5677161948124512e-04 +0.0000000000000000e+00 +9.9999984500266959e-01
-5.4999999999999964e+00 +9.1747405083330005e+00 +0.0000000000000000e+00 -5.4999997052126579e+00 +5.6708211784266087e-04 +0.0000000000000000e+00 +9.9999983920892266e-01
-5.5999999999999961e+00 +9.1746832845958668e+00 +0.0000000000000000e+00 -5.5999996888394330e+00 +5.7739262661973486e-04 +0.0000000000000000e+00 +9.9999983330886322e-01
-5.6999999999999957e+00 +9.1746250298073129e+00 +0.0000000000000000e+00 -5.6999996718708870e+00 +5.8770314634225675e-04 +0.0000000000000000e+00 +9.9999982730249071e-01
-5.7999999999999954e+00 +9.1745657439662143e+00 +0.0000000000000000e+00 -5.7999996542963874e+00 +5.9801367759642384e-04 +0.0000000000000000e+00 +9.9999982118980446e-01
-5.8999999999999950e+00 +9.1745054270713879e+00 +0.0000000000000000e+00 -5.8999996361053038e+00 +6.0832422102776438e-04 +0.0000000000000000e+00 +9.9999981497080370e-01
-5.9999999999999947e+00 +9.1744440791215798e+00 +0.0000000000000000e+00 -5.9999996172870045e+00 +6.1863477734112871e-04 +0.0000000000000000e+00 +9.9999980864548754e-01
-6.0999999999999943e+00 +9.1743817001154646e+00 +0.0000000000000000e+00 -6.0999995978308572e+00 +6.2894534730067986e-04 +0.0000000000000000e+00 +9.9999980221385520e-01
-6.1999999999999940e+00 +9.1743182900516373e+00 +0.0000000000000000e+00 -6.1999995777262313e+00 +6.3925593172988468e-04 +0.0000000000000000e+00 +9.9999979567590569e-01
-6.2999999999999936e+00 +9.1742538489286076e+00 +0.0000000000000000e+00 -6.2999995569624945e+00 +6.4956653151150383e-04 +0.0000000000000000e+00 +9.9999978903163800e-01
-6.3999999999999932e+00 +9.1741883767447927e+00 +0.0000000000000000e+00 -6.3999995355290151e+00 +6.5987714758758257e-04 +0.0000000000000000e+00 +9.9999978228105102e-01
-6.4999999999999929e+00 +9.1741218734985139e+00 +0.0000000000000000e+00 -6.4999995134151609e+00 +6.7018778095944039e-04 +0.0000000000000000e+00 +9.9999977542414353e-01
-6.5999999999999925e+00 +9.1740543391879896e+00 +0.0000000000000000e+00 -6.5999994906102994e+00 +6.8049843268766117e-04 +0.0000000000000000e+00 +9.9999976846091443e-01
-6.6999999999999922e+00 +9.1739857738113280e+00 +0.0000000000000000e+00 -6.6999994671037992e+00 +6.9080910389208289e-04 +0.0000000000000000e+00 +9.9999976139136215e-01
-6.7999999999999918e+00 +9.1739161773665234e+00 +0.0000000000000000e+00 -6.7999994428850279e+00 +7.0111979575178710e-04 +0.0000000000000000e+00 +9.9999975421548548e-01
-6.8999999999999915e+00 +9.1738455498514480e+00 +0.0000000000000000e+00 -6.8999994179433521e+00 +7.1143050950508839e-04 +0.0000000000000000e+00 +9.9999974693328275e-01
-6.9999999999999911e+00 +9.1737738912638491e+00 +0.0000000000000000e+00 -6.9999993922681396e+00 +7.2174124644952336e-04 +0.0000000000000000e+00 +9.9999973954475241e-01
-7.0999999999999908e+00 +9.1737012016013395e+00 +0.0000000000000000e+00 -7.0999993658487579e+00 +7.3205200794183964e-04 +0.0000000000000000e+00 +9.9999973204989268e-01
-7.1999999999999904e+00 +9.1736274808613949e+00 +0.0000000000000000e+00 -7.1999993386745738e+00 +7.4236279539798477e-04 +0.0000000000000000e+00 +9.9999972444870178e-01
-7.2999999999999901e+00 +9.1735527290413454e+00 +0.0000000000000000e+00 -7.2999993107349539e+00 +7.5267361029309463e-04 +0.0000000000000000e+00 +9.9999971674117782e-01
-7.3999999999999897e+00 +9.1734769461383703e+00 +0.0000000000000000e+00 -7.3999992820192650e+00 +7.6298445416148194e-04 +0.0000000000000000e+00 +9.9999970892731871e-01
-7.4999999999999893e+00 +9.1734001321494940e+00 +0.0000000000000000e+00 -7.4999992525168730e+00 +7.7329532859662421e-04 +0.0000000000000000e+00 +9.9999970100712243e-01
-7.5999999999999890e+00 +9.1733222870715778e+00 +0.0000000000000000e+00 -7.5999992222171446e+00 +7.8360623524165727e-04 +0.0000000000000000e+00 +9.9999969298058666e-01
-7.6999999999999886e+00 +9.1732434109013195e+00 +0.0000000000000000e+00 -7.6999991911094456e+00 +7.9391717568491876e-04 +0.0000000000000000e+00 +9.9999968484770918e-01
-7.7999999999999883e+00 +9.1731635036352657e+00 +0.0000000000000000e+00 -7.7999991591831419e+00 +8.0422815135550250e-04 +0.0000000000000000e+00 +9.9999967660848776e-01
-7.8999999999999879e+00 +9.1730825652698318e+00 +0.0000000000000000e+00 -7.8999991264275984e+00 +8.1453916351377205e-04 +0.0000000000000000e+00 +9.9999966826292030e-01
-7.9999999999999876e+00 +9.1730005958013106e+00 +0.0000000000000000e+00 -7.9999990928321809e+00 +8.2485021325137057e-04 +0.0000000000000000e+00 +9.9999965981100480e-01
-8.0999999999999872e+00 +9.1729175952258970e+00 +0.0000000000000000e+00 -8.0999990583862544e+00 +8.3516130149123167e-04 +0.0000000000000000e+00 +9.9999965125273926e-01
-8.1999999999999869e+00 +9.1728335635397027e+00 +0.0000000000000000e+00 -8.1999990230791830e+00 +8.4547242898759024e-04 +0.0000000000000000e+00 +9.9999964258812191e-01
-8.2999999999999865e+00 +9.1727485007387717e+00 +0.0000000000000000e+00 -8.2999989869003326e+00 +8.5578359632599416e-04 +0.0000000000000000e+00 +9.9999963381715096e-01
-8.3999999999999861e+00 +9.1726624068190965e+00 +0.0000000000000000e+00 -8.3999989498390679e+00 +8.6609480392331624e-04 +0.0000000000000000e+00 +9.9999962493982486e-01
-8.4999999999999858e+00 +9.1725752817766377e+00 +0.0000000000000000e+00 -8.4999989118847523e+00 +8.7640605202776690e-04 +0.0000000000000000e+00 +9.9999961595614217e-01
-8.5999999999999854e+00 +9.1724871256073381e+00 +0.0000000000000000e+00 -8.5999988730267507e+00 +8.8671734071890749e-04 +0.0000000000000000e+00 +9.9999960686610145e-01
-8.6999999999999851e+00 +9.1723979383071441e+00 +0.0000000000000000e+00 -8.6999988332544280e+00 +8.9702866990766365e-04 +0.0000000000000000e+00 +9.9999959766970159e-01
-8.7999999999999847e+00 +9.1723077198720162e+00 +0.0000000000000000e+00 -8.7999987925571457e+00 +9.0734003933633949e-04 +0.0000000000000000e+00 +9.9999958836694158e-01
-8.8999999999999844e+00 +9.1722164702979505e+00 +0.0000000000000000e+00 -8.8999987509242704e+00 +9.1765144857863259e-04 +0.0000000000000000e+00 +9.9999957895782066e-01
-8.9999999999999840e+00 +9.1721241895809928e+00 +0.0000000000000000e+00 -8.9999987083451654e+00 +9.2796289703964889e-04 +0.0000000000000000e+00 +9.9999956944233803e-01
-9.0999999999999837e+00 +9.1720308777172601e+00 +0.0000000000000000e+00 -9.0999986648091937e+00 +9.3827438395591839e-04 +0.0000000000000000e+00 +9.9999955982049316e-01
-9.1999999999999833e+00 +9.1719365347029509e+00 +0.0000000000000000e+00 -9.1999986203057187e+00 +9.4858590839541168e-04 +0.0000000000000000e+00 +9.9999955009228580e-01
-9.2999999999999829e+00 +9.1718411605343668e+00 +0.0000000000000000e+00 -9.2999985748241052e+00 +9.5889746925755654e-04 +0.0000000000000000e+00 +9.9999954025771587e-01
-9.3999999999999826e+00 +9.1717447552079268e+00 +0.0000000000000000e+00 -9.3999985283537164e+00 +9.6920906527325507e-04 +0.0000000000000000e+00 +9.9999953031678346e-01
-9.4999999999999822e+00 +9.1716473187201881e+00 +0.0000000000000000e+00 -9.4999984808839155e+00 +9.7952069500490172e-04 +0.0000000000000000e+00 +9.9999952026948880e-01
-9.5999999999999819e+00 +9.1715488510678558e+00 +0.0000000000000000e+00 -9.5999984324040675e+00 +9.8983235685720910e-04 +0.0000000000000000e+00 +9.9999951011583255e-01
-9.6999999999999815e+00 +9.1714493522477998e+00 +0.0000000000000000e+00 -9.6999983829035354e+00 +1.0001440491961121e-03 +0.0000000000000000e+00 +9.9999949985581527e-01
-9.7999999999999812e+00 +9.1713488222570518e+00 +0.0000000000000000e+00 -9.7999983323716844e+00 +1.0104557704676751e-03 +0.0000000000000000e+00 +9.9999948948943751e-01
-9.8999999999999808e+00 +9.1712472610927911e+00 +0.0000000000000000e+00 -9.8999982807978775e+00 +1.0207675192089149e-03 +0.0000000000000000e+00 +9.9999947901670005e-01
-9.9999999999999805e+00 +9.1711446687523406e+00 +0.0000000000000000e+00 -9.9999982281714797e+00 +1.0310792940478176e-03 +0.0000000000000000e+00 +9.9999946843760334e-01
-1.0099999999999980e+01 +9.1710410452331548e+00 +0.0000000000000000e+00 -1.0099998174481854e+01 +1.0413910937033530e-03 +0.0000000000000000e+00 +9.9999945775214794e-01
-1.0199999999999980e+01 +9.1709363905328125e+00 +0.0000000000000000e+00 -1.0199998119718364e+01 +1.0517029169854915e-03 +0.0000000000000000e+00 +9.9999944696033427e-01
-1.0299999999999979e+01 +9.1708307046490063e+00 +0.0000000000000000e+00 -1.0299998063870374e+01 +1.0620147627952209e-03 +0.0000000000000000e+00 +9.9999943606216279e-01
-1.0399999999999979e+01 +9.1707239875795352e+00 +0.0000000000000000e+00 -1.0399998006927250e+01 +1.0723266301245634e-03 +0.0000000000000000e+00 +9.9999942505763384e-01
-1.0499999999999979e+01 +9.1706162393222943e+00 +0.0000000000000000e+00 -1.0499997948878356e+01 +1.0826385180565925e-03 +0.0000000000000000e+00 +9.9999941394674785e-01
-1.0599999999999978e+01 +9.1705074598752656e+00 +0.0000000000000000e+00 -1.0599997889713055e+01 +1.0929504257654516e-03 +0.0000000000000000e+00 +9.9999940272950505e-01
-1.0699999999999978e+01 +9.1703976492365076e+00 +0.0000000000000000e+00 -1.0699997829420711e+01 +1.1032623525163714e-03 +0.0000000000000000e+00 +9.9999939140590555e-01
-1.0799999999999978e+01 +9.1702868074041497e+00 +0.0000000000000000e+00 -1.0799997767990691e+01 +1.1135742976656890e-03 +0.0000000000000000e+00 +9.9999937997594956e-01
-1.0899999999999977e+01 +9.1701749343763801e+00 +0.0000000000000000e+00 -1.0899997705412357e+01 +1.1238862606608670e-03 +0.0000000000000000e+00 +9.9999936843963710e-01
-1.0999999999999977e+01 +9.1700620301514384e+00 +0.0000000000000000e+00 -1.0999997641675073e+01 +1.1341982410405121e-03 +0.0000000000000000e+00 +9.9999935679696816e-01
-1.1099999999999977e+01 +9.1699480947276051e+00 +0.0000000000000000e+00 -1.1099997576768205e+01 +1.1445102384343960e-03 +0.0000000000000000e+00 +9.9999934504794263e-01
-1.1199999999999976e+01 +9.1698331281031944e+00 +0.0000000000000000e+00 -1.1199997510681117e+01 +1.1548222525634743e-03 +0.0000000000000000e+00 +9.9999933319256018e-01
-1.1299999999999976e+01 +9.1697171302765419e+00 +0.0000000000000000e+00 -1.1299997443403171e+01 +1.1651342832399078e-03 +0.0000000000000000e+00 +9.9999932123082069e-01
-1.1399999999999975e+01 +9.1696001012459991e+00 +0.0000000000000000e+00 -1.1399997374923736e+01 +1.1754463303670832e-03 +0.0000000000000000e+00 +9.9999930916272362e-01
-1.1499999999999975e+01 +9.1694820410099211e+00 +0.0000000000000000e+00 -1.1499997305232171e+01 +1.1857583939396347e-03 +0.0000000000000000e+00 +9.9999929698826850e-01
-1.1599999999999975e+01 +9.1693629495666613e+00 +0.0000000000000000e+00 -1.1599997234317843e+01 +1.1960704740394549e-03 +0.0000000000000000e+00 +9.9999928470745481e-01
-1.1699999999999974e+01 +9.1692428269145587e+00 +0.0000000000000000e+00 -1.1699997162170117e+01 +1.2063825707915997e-03 +0.0000000000000000e+00 +9.9999927232028174e-01
