# field on trajectory
# s[mm] rx[mm] ry[mm] rz[mm] bx[T] by[T] bz[T]
0.0000000000000000e+00 +9.0449999999999999e+00 +0.0000000000000000e+00 +0.0000000000000000e+00 +3.3276685067505788e-03 -6.1917406868416860e-02 -5.4613076204802530e-04
1.0000000000000001e-01 +9.0449994835255669e+00 +0.0000000000000000e+00 +9.9999999998221692e-02 +3.3276611710669731e-03 -6.1917367525298576e-02 -5.4612327842100991e-04
2.0000000000000001e-01 +9.0449979341027085e+00 +0.0000000000000000e+00 +1.9999999998577356e-01 +3.3276545529765883e-03 -6.1917327839726553e-02 -5.4611646808743050e-04
3.0000000000000004e-01 +9.0449953517320871e+00 +0.0000000000000000e+00 +2.9999999995198579e-01 +3.3276486630315271e-03 -6.1917287743460454e-02 -5.4611032782945232e-04
4.0000000000000002e-01 +9.0449917364143708e+00 +0.0000000000000000e+00 +3.9999999988618862e-01 +3.3276435117857582e-03 -6.1917247168259290e-02 -5.4610485442611759e-04
5.0000000000000000e-01 +9.0449870881502381e+00 +0.0000000000000000e+00 +4.9999999977771226e-01 +3.3276391097945726e-03 -6.1917206045882370e-02 -5.4610004465499378e-04
5.9999999999999998e-01 +9.0449814069403747e+00 +0.0000000000000000e+00 +5.9999999961588701e-01 +3.3276354676140289e-03 -6.1917164308090480e-02 -5.4609589529381979e-04
6.9999999999999996e-01 +9.0449746927854768e+00 +0.0000000000000000e+00 +6.9999999939004309e-01 +3.3276325958003987e-03 -6.1917121886646768e-02 -5.4609240312215358e-04
7.9999999999999993e-01 +9.0449669456862551e+00 +0.0000000000000000e+00 +7.9999999908951080e-01 +3.3276305049096356e-03 -6.1917078713318190e-02 -5.4608956492302083e-04
8.9999999999999991e-01 +9.0449581656434290e+00 +0.0000000000000000e+00 +8.9999999870362046e-01 +3.3276292054967996e-03 -6.1917034719876134e-02 -5.4608737748455946e-04
9.9999999999999989e-01 +9.0449483526577339e+00 +0.0000000000000000e+00 +9.9999999822170249e-01 +3.3276287081155272e-03 -6.1916989838097819e-02 -5.4608583760167029e-04
1.0999999999999999e+00 +9.0449375067299211e+00 +0.0000000000000000e+00 +1.0999999976330872e+00 +3.3276290233174729e-03 -6.1916943999767229e-02 -5.4608494207766128e-04
1.2000000000000000e+00 +9.0449256278607546e+00 +0.0000000000000000e+00 +1.1999999969271049e+00 +3.3276301616517608e-03 -6.1916897136676245e-02 -5.4608468772589648e-04
1.3000000000000000e+00 +9.0449127160510194e+00 +0.0000000000000000e+00 +1.2999999960930861e+00 +3.3276321336644351e-03 -6.1916849180625691e-02 -5.4608507137144313e-04
1.4000000000000001e+00 +9.0448987713015150e+00 +0.0000000000000000e+00 +1.3999999951203614e+00 +3.3276349498979085e-03 -6.1916800063426432e-02 -5.4608608985271846e-04
1.5000000000000002e+00 +9.0448837936130637e+00 +0.0000000000000000e+00 +1.4999999939982611e+00 +3.3276386208904159e-03 -6.1916749716900428e-02 -5.4608774002313696e-04
1.6000000000000003e+00 +9.0448677829865076e+00 +0.0000000000000000e+00 +1.5999999927161157e+00 +3.3276431571754605e-03 -6.1916698072881790e-02 -5.4609001875275830e-04
1.7000000000000004e+00 +9.0448507394227082e+00 +0.0000000000000000e+00 +1.6999999912632557e+00 +3.3276485692812652e-03 -6.1916645063217979e-02 -5.4609292292993406e-04
1.8000000000000005e+00 +9.0448326629225537e+00 +0.0000000000000000e+00 +1.7999999896290120e+00 +3.3276548677302221e-03 -6.1916590619770645e-02 -5.4609644946295431e-04
1.9000000000000006e+00 +9.0448135534869536e+00 +0.0000000000000000e+00 +1.8999999878027147e+00 +3.3276620630383453e-03 -6.1916534674416976e-02 -5.4610059528169665e-04
2.0000000000000004e+00 +9.0447934111168422e+00 +0.0000000000000000e+00 +1.9999999857736948e+00 +3.3276701657147158e-03 -6.1916477159050617e-02 -5.4610535733927174e-04
2.1000000000000005e+00 +9.0447722358131823e+00 +0.0000000000000000e+00 +2.0999999835312826e+00 +3.3276791753314911e-03 -6.1916418030804325e-02 -5.4611072548923145e-04
2.2000000000000006e+00 +9.0447500275769634e+00 +0.0000000000000000e+00 +2.1999999810648094e+00 +3.3276890477380696e-03 -6.1916357347711080e-02 -5.4611666110506015e-04
2.3000000000000007e+00 +9.0447267864091980e+00 +0.0000000000000000e+00 +2.2999999783636054e+00 +3.3276997278547053e-03 -6.1916295193030380e-02 -5.4612311843831517e-04
2.4000000000000008e+00 +9.0447025123109270e+00 +0.0000000000000000e+00 +2.3999999754170016e+00 +3.3277111606031936e-03 -6.1916231650024828e-02 -5.4613005173959029e-04
2.5000000000000009e+00 +9.0446772052832127e+00 +0.0000000000000000e+00 +2.4999999722143289e+00 +3.3277232909073814e-03 -6.1916166801959265e-02 -5.4613741525708353e-04
2.6000000000000010e+00 +9.0446508653271387e+00 +0.0000000000000000e+00 +2.5999999687449180e+00 +3.3277360636936927e-03 -6.1916100732100229e-02 -5.4614516323516513e-04
2.7000000000000011e+00 +9.0446234924438116e+00 +0.0000000000000000e+00 +2.6999999649980997e+00 +3.3277494238916389e-03 -6.1916033523715226e-02 -5.4615324991294728e-04
2.8000000000000012e+00 +9.0445950866343541e+00 +0.0000000000000000e+00 +2.7999999609632051e+00 +3.3277633164343384e-03 -6.1915965260071974e-02 -5.4616162952285288e-04
2.9000000000000012e+00 +9.0445656478999084e+00 +0.0000000000000000e+00 +2.8999999566295651e+00 +3.3277776862590349e-03 -6.1915896024437748e-02 -5.4617025628918238e-04
3.0000000000000013e+00 +9.0445351762416326e+00 +0.0000000000000000e+00 +2.9999999519865108e+00 +3.3277924783076114e-03 -6.1915825900078651e-02 -5.4617908442668379e-04
3.1000000000000014e+00 +9.0445036716606992e+00 +0.0000000000000000e+00 +3.0999999470233730e+00 +3.3278076375271117e-03 -6.1915754970258932e-02 -5.4618806813912105e-04
3.2000000000000015e+00 +9.0444711341582948e+00 +0.0000000000000000e+00 +3.1999999417294829e+00 +3.3278231088702537e-03 -6.1915683318240343e-02 -5.4619716161784237e-04
3.3000000000000016e+00 +9.0444375637356185e+00 +0.0000000000000000e+00 +3.2999999360941716e+00 +3.3278388372959484e-03 -6.1915611027281311e-02 -5.4620631904035005e-04
3.4000000000000017e+00 +9.0444029603938798e+00 +0.0000000000000000e+00 +3.3999999301067705e+00 +3.3278547677698185e-03 -6.1915538180636318e-02 -5.4621549456886596e-04
3.5000000000000018e+00 +9.0443673241342974e+00 +0.0000000000000000e+00 +3.4999999237566106e+00 +3.3278708452647143e-03 -6.1915464861555275e-02 -5.4622464234890442e-04
3.6000000000000019e+00 +9.0443306549580971e+00 +0.0000000000000000e+00 +3.5999999170330232e+00 +3.3278870147612320e-03 -6.1915391153282665e-02 -5.4623371650783833e-04
3.7000000000000020e+00 +9.0442929528665132e+00 +0.0000000000000000e+00 +3.6999999099253400e+00 +3.3279032212482317e-03 -6.1915317139056923e-02 -5.4624267115346761e-04
3.8000000000000020e+00 +9.0442542178607859e+00 +0.0000000000000000e+00 +3.7999999024228917e+00 +3.3279194097233550e-03 -6.1915242902109771e-02 -5.4625146037258932e-04
3.9000000000000021e+00 +9.0442144499421548e+00 +0.0000000000000000e+00 +3.8999998945150103e+00 +3.3279355251935394e-03 -6.1915168525665469e-02 -5.4626003822956569e-04
4.0000000000000018e+00 +9.0441736491118672e+00 +0.0000000000000000e+00 +3.9999998861910266e+00 +3.3279515126755431e-03 -6.1915094092940090e-02 -5.4626835876489305e-04
4.1000000000000014e+00 +9.0441318153711681e+00 +0.0000000000000000e+00 +4.0999998774402728e+00 +3.3279673243806727e-03 -6.1915019675508484e-02 -5.4627638747438336e-04
4.2000000000000011e+00 +9.0440889487213028e+00 +0.0000000000000000e+00 +4.1999998682520792e+00 +3.3279829412651289e-03 -6.1914945298406965e-02 -5.4628413576194386e-04
4.3000000000000007e+00 +9.0440450491635183e+00 +0.0000000000000000e+00 +4.2999998586157782e+00 +3.3279983514725000e-03 -6.1914870975031754e-02 -5.4629162651858264e-04
4.4000000000000004e+00 +9.0440001166990580e+00 +0.0000000000000000e+00 +4.3999998485207010e+00 +3.3280135431487871e-03 -6.1914796718771044e-02 -5.4629888264543490e-04
4.5000000000000000e+00 +9.0439541513291655e+00 +0.0000000000000000e+00 +4.4999998379561799e+00 +3.3280285044423965e-03 -6.1914722543004584e-02 -5.4630592705453835e-04
4.5999999999999996e+00 +9.0439071530550841e+00 +0.0000000000000000e+00 +4.5999998269115459e+00 +3.3280432235041294e-03 -6.1914648461103047e-02 -5.4631278266960835e-04
4.6999999999999993e+00 +9.0438591218780537e+00 +0.0000000000000000e+00 +4.6999998153761311e+00 +3.3280576884871750e-03 -6.1914574486427558e-02 -5.4631947242681455e-04
4.7999999999999989e+00 +9.0438100577993144e+00 +0.0000000000000000e+00 +4.7999998033392668e+00 +3.3280718875471002e-03 -6.1914500632329138e-02 -5.4632601927555530e-04
4.8999999999999986e+00 +9.0437599608201023e+00 +0.0000000000000000e+00 +4.8999997907902850e+00 +3.3280858088418452e-03 -6.1914426912148206e-02 -5.4633244617923447e-04
4.9999999999999982e+00 +9.0437088309416520e+00 +0.0000000000000000e+00 +4.9999997777185170e+00 +3.3280994405317076e-03 -6.1914353339213891e-02 -5.4633877611603618e-04
5.0999999999999979e+00 +9.0436566681651982e+00 +0.0000000000000000e+00 +5.0999997641132957e+00 +3.3281127707793451e-03 -6.1914279926843778e-02 -5.4634503207970223e-04
5.1999999999999975e+00 +9.0436034724919701e+00 +0.0000000000000000e+00 +5.1999997499639523e+00 +3.3281257877497555e-03 -6.1914206688343049e-02 -5.4635123708030519e-04
5.2999999999999972e+00 +9.0435492439231950e+00 +0.0000000000000000e+00 +5.2999997352598180e+00 +3.3281384796102782e-03 -6.1914133637004154e-02 -5.4635741414502754e-04
5.3999999999999968e+00 +9.0434939824600988e+00 +0.0000000000000000e+00 +5.3999997199902259e+00 +3.3281508345305798e-03 -6.1914060786106284e-02 -5.4636358631893612e-04
5.4999999999999964e+00 +9.0434376881039018e+00 +0.0000000000000000e+00 +5.4999997041445070e+00 +3.3281628406826498e-03 -6.1913988148914662e-02 -5.4636977666575677e-04
5.5999999999999961e+00 +9.0433803608558208e+00 +0.0000000000000000e+00 +5.5999996877119944e+00 +3.3281744862407874e-03 -6.1913915738680179e-02 -5.4637600826865367e-04
5.6999999999999957e+00 +9.0433220007170707e+00 +0.0000000000000000e+00 +5.6999996706820193e+00 +3.3281857593816014e-03 -6.1913843568638764e-02 -5.4638230423100214e-04
5.7999999999999954e+00 +9.0432626076888631e+00 +0.0000000000000000e+00 +5.7999996530439146e+00 +3.3281966482839962e-03 -6.1913771652010882e-02 -5.4638868767716725e-04
5.8999999999999950e+00 +9.0432021817724024e+00 +0.0000000000000000e+00 +5.8999996347870116e+00 +3.3282071411291653e-03 -6.1913700002000985e-02 -5.4639518175327853e-04
5.9999999999999947e+00 +9.0431407229688912e+00 +0.0000000000000000e+00 +5.9999996159006423e+00 +3.3282172261005858e-03 -6.1913628631796960e-02 -5.4640180962800761e-04
6.0999999999999943e+00 +9.0430782312795266e+00 +0.0000000000000000e+00 +6.0999995963741398e+00 +3.3282268963936920e-03 -6.1913557542660334e-02 -5.4640858879493378e-04
6.1999999999999940e+00 +9.0430147067055007e+00 +0.0000000000000000e+00 +6.1999995761968361e+00 +3.3282361652384718e-03 -6.1913486688205448e-02 -5.4641551396161282e-04
6.2999999999999936e+00 +9.0429501492480018e+00 +0.0000000000000000e+00 +6.2999995553580632e+00 +3.3282450508581797e-03 -6.1913416010141269e-02 -5.4642257411644500e-04
6.3999999999999932e+00 +9.0428845589082165e+00 +0.0000000000000000e+00 +6.3999995338471534e+00 +3.3282535714570837e-03 -6.1913345450183309e-02 -5.4642975822205813e-04
6.4999999999999929e+00 +9.0428179356873297e+00 +0.0000000000000000e+00 +6.4999995116534386e+00 +3.3282617452196303e-03 -6.1913274950054074e-02 -5.4643705521410389e-04
6.5999999999999925e+00 +9.0427502795865244e+00 +0.0000000000000000e+00 +6.5999994887662519e+00 +3.3282695903096306e-03 -6.1913204451483510e-02 -5.4644445400005629e-04
6.6999999999999922e+00 +9.0426815906069837e+00 +0.0000000000000000e+00 +6.6999994651749253e+00 +3.3282771248694201e-03 -6.1913133896209407e-02 -5.4645194345800789e-04
6.7999999999999918e+00 +9.0426118687498924e+00 +0.0000000000000000e+00 +6.7999994408687909e+00 +3.3282843670190475e-03 -6.1913063225977900e-02 -5.4645951243546744e-04
6.8999999999999915e+00 +9.0425411140164371e+00 +0.0000000000000000e+00 +6.8999994158371818e+00 +3.3282913348554378e-03 -6.1912992382543872e-02 -5.4646714974815672e-04
6.9999999999999911e+00 +9.0424693264078080e+00 +0.0000000000000000e+00 +6.9999993900694299e+00 +3.3282980464515743e-03 -6.1912921307671433e-02 -5.4647484417880696e-04
7.0999999999999908e+00 +9.0423965059251969e+00 +0.0000000000000000e+00 +7.0999993635548684e+00 +3.3283045198556679e-03 -6.1912849943134354e-02 -5.4648258447595650e-04
7.1999999999999904e+00 +9.0423226525698031e+00 +0.0000000000000000e+00 +7.1999993362828301e+00 +3.3283107730903306e-03 -6.1912778230716468e-02 -5.4649035935274662e-04
7.2999999999999901e+00 +9.0422477663428307e+00 +0.0000000000000000e+00 +7.2999993082426471e+00 +3.3283168241517568e-03 -6.1912706112212182e-02 -5.4649815748571888e-04
7.3999999999999897e+00 +9.0421718472454913e+00 +0.0000000000000000e+00 +7.3999992794236515e+00 +3.3283226910088880e-03 -6.1912633529426934e-02 -5.4650596751361011e-04
7.4999999999999893e+00 +9.0420948952790035e+00 +0.0000000000000000e+00 +7.4999992498151773e+00 +3.3283283916025926e-03 -6.1912560424177539e-02 -5.4651377803615145e-04
7.5999999999999890e+00 +9.0420169104445947e+00 +0.0000000000000000e+00 +7.5999992194065564e+00 +3.3283339438448388e-03 -6.1912486738292777e-02 -5.4652157761286174e-04
7.6999999999999886e+00 +9.0419378927435030e+00 +0.0000000000000000e+00 +7.6999991881871219e+00 +3.3283393656178650e-03 -6.1912412413613706e-02 -5.4652935476184547e-04
7.7999999999999883e+00 +9.0418578421769773e+00 +0.0000000000000000e+00 +7.7999991561462068e+00 +3.3283446747733609e-03 -6.1912337391994275e-02 -5.4653709795858887e-04
7.8999999999999879e+00 +9.0417767587462787e+00 +0.0000000000000000e+00 +7.8999991232731430e+00 +3.3283498891316346e-03 -6.1912261615301625e-02 -5.4654479563475463e-04
7.9999999999999876e+00 +9.0416946424526774e+00 +0.0000000000000000e+00 +7.9999990895572646e+00 +3.3283550264807862e-03 -6.1912185025416608e-02 -5.4655243617697871e-04
8.0999999999999872e+00 +9.0416114932974629e+00 +0.0000000000000000e+00 +8.0999990549879044e+00 +3.3283600944756771e-03 -6.1912107558693426e-02 -5.4656001175279858e-04
8.1999999999999869e+00 +9.0415273112819339e+00 +0.0000000000000000e+00 +8.1999990195543955e+00 +3.3283650603517642e-03 -6.1912029129340712e-02 -5.4656752981663368e-04
8.2999999999999865e+00 +9.0414420964074100e+00 +0.0000000000000000e+00 +8.2999989832460699e+00 +3.3283698812548415e-03 -6.1911949646051727e-02 -5.4657500167242467e-04
8.3999999999999861e+00 +9.0413558486752255e+00 +0.0000000000000000e+00 +8.3999989460522624e+00 +3.3283745143465123e-03 -6.1911869017547194e-02 -5.4658243865365126e-04
8.4999999999999858e+00 +9.0412685680867355e+00 +0.0000000000000000e+00 +8.4999989079623042e+00 +3.3283789168048654e-03 -6.1911787152576107e-02 -5.4658985212446235e-04
8.5999999999999854e+00 +9.0411802546433133e+00 +0.0000000000000000e+00 +8.5999988689655300e+00 +3.3283830458251643e-03 -6.1911703959916527e-02 -5.4659725348080602e-04
8.6999999999999851e+00 +9.0410909083463586e+00 +0.0000000000000000e+00 +8.6999988290512729e+00 +3.3283868586205159e-03 -6.1911619348376377e-02 -5.4660465415156409e-04
8.7999999999999847e+00 +9.0410005291972908e+00 +0.0000000000000000e+00 +8.7999987882088675e+00 +3.3283903124225614e-03 -6.1911533226794227e-02 -5.4661206559967937e-04
8.8999999999999844e+00 +9.0409091171975575e+00 +0.0000000000000000e+00 +8.8999987464276451e+00 +3.3283933644821504e-03 -6.1911445504039986e-02 -5.4661949932328804e-04
8.9999999999999840e+00 +9.0408166723486314e+00 +0.0000000000000000e+00 +8.9999987036969404e+00 +3.3283959720700239e-03 -6.1911356089015865e-02 -5.4662696685685210e-04
9.0999999999999837e+00 +9.0407231946520152e+00 +0.0000000000000000e+00 +9.0999986600060883e+00 +3.3283980924774898e-03 -6.1911264890656993e-02 -5.4663447977228792e-04
9.1999999999999833e+00 +9.0406286841092385e+00 +0.0000000000000000e+00 +9.1999986153444198e+00 +3.3283996830171096e-03 -6.1911171817932334e-02 -5.4664204968009897e-04
9.2999999999999829e+00 +9.0405331407218661e+00 +0.0000000000000000e+00 +9.2999985697012697e+00 +3.3284007010233700e-03 -6.1911076779845406e-02 -5.4664968823050532e-04
9.3999999999999826e+00 +9.0404365644914932e+00 +0.0000000000000000e+00 +9.3999985230659728e+00 +3.3284011038533677e-03 -6.1910979685434998e-02 -5.4665740711457489e-04
9.4999999999999822e+00 +9.0403389554197506e+00 +0.0000000000000000e+00 +9.4999984754278621e+00 +3.3284008488874851e-03 -6.1910880443776108e-02 -5.4666521806535429e-04
9.5999999999999819e+00 +9.0402403135083027e+00 +0.0000000000000000e+00 +9.5999984267762724e+00 +3.3283998935300673e-03 -6.1910778963980603e-02 -5.4667313285899975e-04
9.6999999999999815e+00 +9.0401406387588548e+00 +0.0000000000000000e+00 +9.6999983771005365e+00 +3.3283981952101091e-03 -6.1910675155198082e-02 -5.4668116331590640e-04
9.7999999999999812e+00 +9.0400399311731494e+00 +0.0000000000000000e+00 +9.7999983263899892e+00 +3.3283957113819191e-03 -6.1910568926616533e-02 -5.4668932130184022e-04
9.8999999999999808e+00 +9.0399381907529683e+00 +0.0000000000000000e+00 +9.8999982746339654e+00 +3.3283923995258125e-03 -6.1910460187463288e-02 -5.4669761872906740e-04
9.9999999999999805e+00 +9.0398354175001376e+00 +0.0000000000000000e+00 +9.9999982218217998e+00 +3.3283882171487775e-03 -6.1910348847005692e-02 -5.4670606755748607e-04
1.0099999999999980e+01 +9.0397316114165260e+00 +0.0000000000000000e+00 +1.0099998167942825e+01 +3.3283831274723641e-03 -6.1910234867567415e-02 -5.4671466820718068e-04
1.0199999999999980e+01 +9.0396267725040449e+00 +0.0000000000000000e+00 +1.0199998112986378e+01 +3.3283771164783881e-03 -6.1910118423552846e-02 -5.4672337477198487e-04
1.0299999999999979e+01 +9.0395209007646482e+00 +0.0000000000000000e+00 +1.0299998056941792e+01 +3.3283701758156218e-03 -6.1909999742333792e-02 -5.4673212975301971e-04
1.0399999999999979e+01 +9.0394139962003273e+00 +0.0000000000000000e+00 +1.0399997999798401e+01 +3.3283622971069589e-03 -6.1909879051217906e-02 -5.4674087564343481e-04
1.0499999999999979e+01 +9.0393060588131053e+00 +0.0000000000000000e+00 +1.0499997941545542e+01 +3.3283534719487791e-03 -6.1909756577447031e-02 -5.4674955492811292e-04
1.0599999999999978e+01 +9.0391970886050377e+00 +0.0000000000000000e+00 +1.0599997882172548e+01 +3.3283436919103130e-03 -6.1909632548195280e-02 -5.4675811008337346e-04
1.0699999999999978e+01 +9.0390870855782044e+00 +0.0000000000000000e+00 +1.0699997821668756e+01 +3.3283329485330115e-03 -6.1909507190567439e-02 -5.4676648357667834e-04
1.0799999999999978e+01 +9.0389760497347087e+00 +0.0000000000000000e+00 +1.0799997760023500e+01 +3.3283212333299001e-03 -6.1909380731597130e-02 -5.4677461786633501e-04
1.0899999999999977e+01 +9.0388639810766715e+00 +0.0000000000000000e+00 +1.0899997697226114e+01 +3.3283085377849536e-03 -6.1909253398244962e-02 -5.4678245540120275e-04
1.0999999999999977e+01 +9.0387508796062281e+00 +0.0000000000000000e+00 +1.0999997633265936e+01 +3.3282948533524593e-03 -6.1909125417396869e-02 -5.4678993862039766e-04
1.1099999999999977e+01 +9.0386367453255261e+00 +0.0000000000000000e+00 +1.1099997568132300e+01 +3.3282801714563767e-03 -6.1908997015862291e-02 -5.4679700995299851e-04
1.1199999999999976e+01 +9.0385215782367201e+00 +0.0000000000000000e+00 +1.1199997501814542e+01 +3.3282644834897101e-03 -6.1908868420372465e-02 -5.4680361181775185e-04
1.1299999999999976e+01 +9.0384053783419667e+00 +0.0000000000000000e+00 +1.1299997434301996e+01 +3.3282477808138640e-03 -6.1908739857578526e-02 -5.4680968662277956e-04
1.1399999999999975e+01 +9.0382881456434223e+00 +0.0000000000000000e+00 +1.1399997365584001e+01 +3.3282300547580190e-03 -6.1908611554049905e-02 -5.4681517676528381e-04
1.1499999999999975e+01 +9.0381698801432400e+00 +0.0000000000000000e+00 +1.1499997295649889e+01 +3.3282112966184865e-03 -6.1908483736272384e-02 -5.4682002463125380e-04
1.1599999999999975e+01 +9.0380505818435637e+00 +0.0000000000000000e+00 +1.1599997224488998e+01 +3.3281914976580791e-03 -6.1908356630646484e-02 -5.4682417259517449e-04
1.1699999999999974e+01 +9.0379302507465269e+00 +0.0000000000000000e+00 +1.1699997152090663e+01 +3.3281706491054748e-03 -6.1908230463485626e-02 -5.4682756301973289e-04
1.1799999999999974e+01 +9.0378088868542470e+00 +0.0000000000000000e+00 +1.1799997078444219e+01 +3.3281487421545786e-03 -6.1908105461014308e-02 -5.4683013825552486e-04
