# field on trajectory
# s[mm] rx[mm] ry[mm] rz[mm] bx[T] by[T] bz[T]
-0.0000000000000000e+00 +9.1476323485342608e+00 +0.0000000000000000e+00 -0.0000000000000000e+00 +3.9834881666767343e-05 -6.3884597272464996e-02 -2.4911642686478030e-04
-1.0000000000000001e-01 +9.1476318316365202e+00 +0.0000000000000000e+00 -9.9999999998218805e-02 +3.9826916615511541e-05 -6.3884572792774250e-02 -2.4910446414488181e-04
-2.0000000000000001e-01 +9.1476302809427192e+00 +0.0000000000000000e+00 -1.9999999998574999e-01 +3.9818568374317728e-05 -6.3884566735657233e-02 -2.4909082057974612e-04
-2.9999999999999999e-01 +9.1476276964536503e+00 +0.0000000000000000e+00 -2.9999999995190701e-01 +3.9810281102081804e-05 -6.3884575114879549e-02 -2.4907534636807628e-04
-4.0000000000000002e-01 +9.1476240781675404e+00 +0.0000000000000000e+00 -3.9999999988600199e-01 +3.9802498951175152e-05 -6.3884593944254789e-02 -2.4905789171439596e-04
-5.0000000000000000e-01 +9.1476194260861501e+00 +0.0000000000000000e+00 -4.9999999977734699e-01 +3.9795666065490964e-05 -6.3884619237659784e-02 -2.4903830682316094e-04
-5.9999999999999998e-01 +9.1476137402094899e+00 +0.0000000000000000e+00 -5.9999999961525596e-01 +3.9790226578488417e-05 -6.3884647009051720e-02 -2.4901644189287224e-04
-6.9999999999999996e-01 +9.1476070205357907e+00 +0.0000000000000000e+00 -6.9999999938904001e-01 +3.9786624611237937e-05 -6.3884673272484385e-02 -2.4899214711018939e-04
-8.0000000000000004e-01 +9.1475992670650292e+00 +0.0000000000000000e+00 -7.9999999908801400e-01 +3.9785304270466644e-05 -6.3884694042123810e-02 -2.4896527264404165e-04
-9.0000000000000002e-01 +9.1475904798007797e+00 +0.0000000000000000e+00 -8.9999999870148795e-01 +3.9786709646603276e-05 -6.3884705332264299e-02 -2.4893566863974046e-04
-1.0000000000000000e+00 +9.1475806587394892e+00 +0.0000000000000000e+00 -9.9999999821877705e-01 +3.9791284811821086e-05 -6.3884703157346304e-02 -2.4890318521309413e-04
-1.1000000000000001e+00 +9.1475698038829201e+00 +0.0000000000000000e+00 -1.0999999976291901e+00 +3.9799270425305632e-05 -6.3884684826626112e-02 -2.4886781525876154e-04
-1.2000000000000000e+00 +9.1475579152292994e+00 +0.0000000000000000e+00 -1.1999999969220501e+00 +3.9810093563918400e-05 -6.3884652828086239e-02 -2.4883012290407544e-04
-1.3000000000000000e+00 +9.1475449927804107e+00 +0.0000000000000000e+00 -1.2999999960866500e+00 +3.9822977921072509e-05 -6.3884610944333606e-02 -2.4879081509504163e-04
-1.3999999999999999e+00 +9.1475310365362503e+00 +0.0000000000000000e+00 -1.3999999951123201e+00 +3.9837147207139793e-05 -6.3884562957896823e-02 -2.4875059879093085e-04
-1.5000000000000000e+00 +9.1475160464950402e+00 +0.0000000000000000e+00 -1.4999999939883699e+00 +3.9851825154668018e-05 -6.3884512651194492e-02 -2.4871018096944431e-04
-1.6000000000000001e+00 +9.1475000226585603e+00 +0.0000000000000000e+00 -1.5999999927041100e+00 +3.9866235523599451e-05 -6.3884463806502492e-02 -2.4867026863187747e-04
-1.7000000000000000e+00 +9.1474829650268106e+00 +0.0000000000000000e+00 -1.6999999912488499e+00 +3.9879602106488083e-05 -6.3884420205922929e-02 -2.4863156880828636e-04
-1.8000000000000000e+00 +9.1474648735980093e+00 +0.0000000000000000e+00 -1.7999999896119101e+00 +3.9891148733717909e-05 -6.3884385631352278e-02 -2.4859478856265147e-04
-1.8999999999999999e+00 +9.1474457483739400e+00 +0.0000000000000000e+00 -1.8999999877825899e+00 +3.9900099278722878e-05 -6.3884363864448818e-02 -2.4856063499804090e-04
-2.0000000000000000e+00 +9.1474255893528191e+00 +0.0000000000000000e+00 -1.9999999857502100e+00 +3.9905677663204995e-05 -6.3884358686601750e-02 -2.4852981526177540e-04
-2.1000000000000001e+00 +9.1474043965364302e+00 +0.0000000000000000e+00 -2.0999999835040901e+00 +3.9907324903415135e-05 -6.3884372653288266e-02 -2.4850275691483355e-04
-2.2000000000000002e+00 +9.1473821699247697e+00 +0.0000000000000000e+00 -2.1999999810335300e+00 +3.9905350200382268e-05 -6.3884403417373434e-02 -2.4847876900380660e-04
-2.2999999999999998e+00 +9.1473589095160595e+00 +0.0000000000000000e+00 -2.2999999783278602e+00 +3.9900279748273822e-05 -6.3884447406218806e-02 -2.4845688092502041e-04
-2.3999999999999999e+00 +9.1473346153120794e+00 +0.0000000000000000e+00 -2.3999999753763701e+00 +3.9892639675962736e-05 -6.3884501047355630e-02 -2.4843612205089488e-04
-2.5000000000000000e+00 +9.1473092873128206e+00 +0.0000000000000000e+00 -2.4999999721683901e+00 +3.9882956038799886e-05 -6.3884560768510248e-02 -2.4841552172623083e-04
-2.6000000000000001e+00 +9.1472829255165191e+00 +0.0000000000000000e+00 -2.5999999686932198e+00 +3.9871754810387443e-05 -6.3884622997629079e-02 -2.4839410926449760e-04
-2.7000000000000002e+00 +9.1472555299249496e+00 +0.0000000000000000e+00 -2.6999999649401798e+00 +3.9859561874352213e-05 -6.3884684162902675e-02 -2.4837091394412110e-04
-2.7999999999999998e+00 +9.1472271005398795e+00 +0.0000000000000000e+00 -2.7999999608985902e+00 +3.9846903016117392e-05 -6.3884740692791084e-02 -2.4834496500477293e-04
-2.8999999999999999e+00 +9.1471976373559905e+00 +0.0000000000000000e+00 -2.8999999565577501e+00 +3.9834303914673082e-05 -6.3884789016049798e-02 -2.4831529164366379e-04
-3.0000000000000000e+00 +9.1471671403768209e+00 +0.0000000000000000e+00 -2.9999999519069700e+00 +3.9822290134350084e-05 -6.3884825561752207e-02 -2.4828092301183230e-04
-3.1000000000000001e+00 +9.1471356096023904e+00 +0.0000000000000000e+00 -3.0999999469355801e+00 +3.9811309175087993e-05 -6.3884847763520297e-02 -2.4824105557217502e-04
-3.2000000000000002e+00 +9.1471030450308994e+00 +0.0000000000000000e+00 -3.1999999416328699e+00 +3.9801496721907245e-05 -6.3884857071918960e-02 -2.4819555521397862e-04
-3.2999999999999998e+00 +9.1470694466641493e+00 +0.0000000000000000e+00 -3.2999999359881800e+00 +3.9792910614907312e-05 -6.3884855941405486e-02 -2.4814445522308812e-04
-3.3999999999999999e+00 +9.1470348145021205e+00 +0.0000000000000000e+00 -3.3999999299908001e+00 +3.9785608822124327e-05 -6.3884846826030406e-02 -2.4808778893125032e-04
-3.5000000000000000e+00 +9.1469991485430509e+00 +0.0000000000000000e+00 -3.4999999236300501e+00 +3.9779649450985591e-05 -6.3884832179403328e-02 -2.4802558972003786e-04
-3.6000000000000001e+00 +9.1469624487887007e+00 +0.0000000000000000e+00 -3.5999999168952499e+00 +3.9775090759766074e-05 -6.3884814454658170e-02 -2.4795789102477082e-04
-3.7000000000000002e+00 +9.1469247152390807e+00 +0.0000000000000000e+00 -3.6999999097757001e+00 +3.9771991169042535e-05 -6.3884796104419717e-02 -2.4788472633844168e-04
-3.7999999999999998e+00 +9.1468859478924092e+00 +0.0000000000000000e+00 -3.7999999022607200e+00 +3.9770409273149544e-05 -6.3884779580769505e-02 -2.4780612921563677e-04
-3.8999999999999999e+00 +9.1468461467522495e+00 +0.0000000000000000e+00 -3.8999998943396199e+00 +3.9770403851638282e-05 -6.3884767335210660e-02 -2.4772213327645863e-04
-4.0000000000000000e+00 +9.1468053118132708e+00 +0.0000000000000000e+00 -3.9999998860017101e+00 +3.9772033880728977e-05 -6.3884761818635963e-02 -2.4763277221044925e-04
-4.0999999999999996e+00 +9.1467634430807898e+00 +0.0000000000000000e+00 -4.0999998772363098e+00 +3.9775230159621455e-05 -6.3884764940037114e-02 -2.4753825790629962e-04
-4.2000000000000002e+00 +9.1467205405512608e+00 +0.0000000000000000e+00 -4.1999998680327302e+00 +3.9779410057599583e-05 -6.3884776443156377e-02 -2.4743951480972481e-04
-4.2999999999999998e+00 +9.1466766042264602e+00 +0.0000000000000000e+00 -4.2999998583802803e+00 +3.9783862485643460e-05 -6.3884795531039568e-02 -2.4733764550143820e-04
-4.4000000000000004e+00 +9.1466316341046099e+00 +0.0000000000000000e+00 -4.3999998482682798e+00 +3.9787876248736551e-05 -6.3884821407450679e-02 -2.4723375256315423e-04
-4.5000000000000000e+00 +9.1465856301892607e+00 +0.0000000000000000e+00 -4.4999998376860297e+00 +3.9790740037961260e-05 -6.3884853276917786e-02 -2.4712893857682747e-04
-4.5999999999999996e+00 +9.1465385924768707e+00 +0.0000000000000000e+00 -4.5999998266228497e+00 +3.9791742422586976e-05 -6.3884890344782119e-02 -2.4702430612389266e-04
-4.7000000000000002e+00 +9.1464905209674292e+00 +0.0000000000000000e+00 -4.6999998150680504e+00 +3.9790171842165955e-05 -6.3884931817244070e-02 -2.4692095778449980e-04
-4.7999999999999998e+00 +9.1464414156644995e+00 +0.0000000000000000e+00 -4.7999998030109499e+00 +3.9785316598625184e-05 -6.3884976901410276e-02 -2.4681999613674884e-04
-4.9000000000000004e+00 +9.1463912765645095e+00 +0.0000000000000000e+00 -4.8999997904408596e+00 +3.9776464848354877e-05 -6.3885024805342569e-02 -2.4672252375592622e-04
-5.0000000000000000e+00 +9.1463401036692602e+00 +0.0000000000000000e+00 -4.9999997773470897e+00 +3.9762904594304251e-05 -6.3885074738103564e-02 -2.4662964321373336e-04
-5.0999999999999996e+00 +9.1462878969787305e+00 +0.0000000000000000e+00 -5.0999997637189498e+00 +3.9744176179837996e-05 -6.3885125907605547e-02 -2.4654217976183588e-04
-5.2000000000000002e+00 +9.1462346564911599e+00 +0.0000000000000000e+00 -5.1999997495457499e+00 +3.9720829860853706e-05 -6.3885177513471850e-02 -2.4645984935350282e-04
-5.2999999999999998e+00 +9.1461803822083105e+00 +0.0000000000000000e+00 -5.2999997348168204e+00 +3.9693668412613454e-05 -6.3885228752614528e-02 -2.4638209055159786e-04
-5.4000000000000004e+00 +9.1461250741284204e+00 +0.0000000000000000e+00 -5.3999997195214604e+00 +3.9663494643087655e-05 -6.3885278821253902e-02 -2.4630834183823376e-04
-5.5000000000000000e+00 +9.1460687322550296e+00 +0.0000000000000000e+00 -5.4999997036489701e+00 +3.9631111394942784e-05 -6.3885326914878901e-02 -2.4623804161064703e-04
-5.5999999999999996e+00 +9.1460113565845909e+00 +0.0000000000000000e+00 -5.5999996871886903e+00 +3.9597321547523322e-05 -6.3885372228210655e-02 -2.4617062817708265e-04
-5.7000000000000002e+00 +9.1459529471188894e+00 +0.0000000000000000e+00 -5.6999996701299196e+00 +3.9562928018838687e-05 -6.3885413955162354e-02 -2.4610553975266969e-04
-5.7999999999999998e+00 +9.1458935038561293e+00 +0.0000000000000000e+00 -5.7999996524619597e+00 +3.9528733767544316e-05 -6.3885451288802117e-02 -2.4604221445530521e-04
-5.9000000000000004e+00 +9.1458330267980994e+00 +0.0000000000000000e+00 -5.8999996341741401e+00 +3.9495541794925608e-05 -6.3885483421313838e-02 -2.4598009030153315e-04
-6.0000000000000000e+00 +9.1457715159465796e+00 +0.0000000000000000e+00 -5.9999996152557697e+00 +3.9464155146878553e-05 -6.3885509543959357e-02 -2.4591860520242775e-04
-6.0999999999999996e+00 +9.1457089712962301e+00 +0.0000000000000000e+00 -6.0999995956961603e+00 +3.9435249156954343e-05 -6.3885529249086956e-02 -2.4585738327183749e-04
-6.2000000000000002e+00 +9.1456453928523906e+00 +0.0000000000000000e+00 -6.1999995754846200e+00 +3.9408988150321476e-05 -6.3885543736651298e-02 -2.4579679378632622e-04
-6.2999999999999998e+00 +9.1455807806132707e+00 +0.0000000000000000e+00 -6.2999995546104604e+00 +3.9385408697848794e-05 -6.3885554608759360e-02 -2.4573739227289927e-04
-6.4000000000000004e+00 +9.1455151345771100e+00 +0.0000000000000000e+00 -6.3999995330630002e+00 +3.9364547374376603e-05 -6.3885563467723824e-02 -2.4567973419494746e-04
-6.5000000000000000e+00 +9.1454484547456794e+00 +0.0000000000000000e+00 -6.4999995108315600e+00 +3.9346440758840564e-05 -6.3885571916073469e-02 -2.4562437495036221e-04
-6.5999999999999996e+00 +9.1453807411171901e+00 +0.0000000000000000e+00 -6.5999994879054302e+00 +3.9331125434393971e-05 -6.3885581556565194e-02 -2.4557186986965725e-04
-6.7000000000000002e+00 +9.1453119936934399e+00 +0.0000000000000000e+00 -6.6999994642739402e+00 +3.9318637988533028e-05 -6.3885593992194206e-02 -2.4552277421408057e-04
-6.7999999999999998e+00 +9.1452422124761892e+00 +0.0000000000000000e+00 -6.7999994399263999e+00 +3.9309015013220335e-05 -6.3885610826205239e-02 -2.4547764317373321e-04
-6.9000000000000004e+00 +9.1451713974618905e+00 +0.0000000000000000e+00 -6.8999994148521200e+00 +3.9302293105008639e-05 -6.3885633662104604e-02 -2.4543703186568917e-04
-7.0000000000000000e+00 +9.1450995486523308e+00 +0.0000000000000000e+00 -6.9999993890404202e+00 +3.9298508865167603e-05 -6.3885664103669387e-02 -2.4540149533210396e-04
-7.0999999999999996e+00 +9.1450266660474906e+00 +0.0000000000000000e+00 -7.0999993624805997e+00 +3.9297601667271709e-05 -6.3885703227366322e-02 -2.4537134391754779e-04
-7.2000000000000002e+00 +9.1449527496438208e+00 +0.0000000000000000e+00 -7.1999993351619702e+00 +3.9299121927819001e-05 -6.3885749999401206e-02 -2.4534590945035319e-04
-7.2999999999999998e+00 +9.1448777994484391e+00 +0.0000000000000000e+00 -7.2999993070738700e+00 +3.9302522763020844e-05 -6.3885802858273028e-02 -2.4532427922623631e-04
-7.4000000000000004e+00 +9.1448018154560096e+00 +0.0000000000000000e+00 -7.3999992782055797e+00 +3.9307257216374273e-05 -6.3885860242351419e-02 -2.4530554065840988e-04
-7.5000000000000000e+00 +9.1447247976682995e+00 +0.0000000000000000e+00 -7.4999992485464304e+00 +3.9312778256204773e-05 -6.3885920589869929e-02 -2.4528878128236782e-04
-7.5999999999999996e+00 +9.1446467460835503e+00 +0.0000000000000000e+00 -7.5999992180857303e+00 +3.9318538773205783e-05 -6.3885982338923702e-02 -2.4527308876068848e-04
-7.7000000000000002e+00 +9.1445676607035296e+00 +0.0000000000000000e+00 -7.6999991868127999e+00 +3.9323991577981965e-05 -6.3886043927464553e-02 -2.4525755088782990e-04
-7.7999999999999998e+00 +9.1444875415300100e+00 +0.0000000000000000e+00 -7.7999991547169403e+00 +3.9328589398592534e-05 -6.3886103793297497e-02 -2.4524125559493128e-04
-7.9000000000000004e+00 +9.1444063885594495e+00 +0.0000000000000000e+00 -7.8999991217874603e+00 +3.9331784878095669e-05 -6.3886160374077613e-02 -2.4522329095461617e-04
-8.0000000000000000e+00 +9.1443242017936104e+00 +0.0000000000000000e+00 -7.9999990880136904e+00 +3.9333030572096366e-05 -6.3886212107304746e-02 -2.4520274518578941e-04
-8.0999999999999996e+00 +9.1442409812307197e+00 +0.0000000000000000e+00 -8.0999990533849306e+00 +3.9331926682485636e-05 -6.3886257858742634e-02 -2.4517889145541348e-04
-8.1999999999999993e+00 +9.1441567268743391e+00 +0.0000000000000000e+00 -8.1999990178904891e+00 +3.9328664354976380e-05 -6.3886298208029005e-02 -2.4515174229757230e-04
-8.3000000000000007e+00 +9.1440714387209105e+00 +0.0000000000000000e+00 -8.2999989815196997e+00 +3.9323582594766669e-05 -6.3886334163925695e-02 -2.4512149522287443e-04
-8.4000000000000004e+00 +9.1439851167722104e+00 +0.0000000000000000e+00 -8.3999989442618492e+00 +3.9317020545176098e-05 -6.3886366735969563e-02 -2.4508834791722955e-04
-8.5000000000000000e+00 +9.1438977610300203e+00 +0.0000000000000000e+00 -8.4999989061062706e+00 +3.9309317492089272e-05 -6.3886396934497255e-02 -2.4505249824694408e-04
-8.5999999999999996e+00 +9.1438093714890005e+00 +0.0000000000000000e+00 -8.5999988670422596e+00 +3.9300812868398202e-05 -6.3886425770670108e-02 -2.4501414426381817e-04
-8.6999999999999993e+00 +9.1437199481544802e+00 +0.0000000000000000e+00 -8.6999988270591402e+00 +3.9291846258447941e-05 -6.3886454256495612e-02 -2.4497348421023696e-04
-8.8000000000000007e+00 +9.1436294910247007e+00 +0.0000000000000000e+00 -8.7999987861462294e+00 +3.9282757402475726e-05 -6.3886483404853867e-02 -2.4493071652427354e-04
-8.9000000000000004e+00 +9.1435380000978608e+00 +0.0000000000000000e+00 -8.8999987442928301e+00 +3.9273886201053216e-05 -6.3886514229520561e-02 -2.4488603984478414e-04
-9.0000000000000000e+00 +9.1434454753775292e+00 +0.0000000000000000e+00 -8.9999987014882503e+00 +3.9265572719528057e-05 -6.3886547745190106e-02 -2.4483965301650822e-04
-9.0999999999999996e+00 +9.1433519168619295e+00 +0.0000000000000000e+00 -9.0999986577218195e+00 +3.9258093049493826e-05 -6.3886584566690552e-02 -2.4479184195280203e-04
-9.1999999999999993e+00 +9.1432573245492801e+00 +0.0000000000000000e+00 -9.1999986129828297e+00 +3.9251466821507456e-05 -6.3886623705966206e-02 -2.4474324007436551e-04
-9.3000000000000007e+00 +9.1431616984413608e+00 +0.0000000000000000e+00 -9.2999985672606194e+00 +3.9245649549031560e-05 -6.3886663773588329e-02 -2.4469456746161193e-04
-9.4000000000000004e+00 +9.1430650385381700e+00 +0.0000000000000000e+00 -9.3999985205444805e+00 +3.9240596763509367e-05 -6.3886703379442578e-02 -2.4464654394521727e-04
-9.5000000000000000e+00 +9.1429673448397004e+00 +0.0000000000000000e+00 -9.4999984728237195e+00 +3.9236264014464948e-05 -6.3886741132707717e-02 -2.4459988909863724e-04
-9.5999999999999996e+00 +9.1428686173459699e+00 +0.0000000000000000e+00 -9.5999984240876799e+00 +3.9232606869601765e-05 -6.3886775641834800e-02 -2.4455532223062378e-04
-9.6999999999999993e+00 +9.1427688560551807e+00 +0.0000000000000000e+00 -9.6999983743256504e+00 +3.9229580914899619e-05 -6.3886805514526551e-02 -2.4451356237773793e-04
-9.8000000000000007e+00 +9.1426680609726798e+00 +0.0000000000000000e+00 -9.7999983235269408e+00 +3.9227141754712110e-05 -6.3886829357715044e-02 -2.4447532829685798e-04
-9.9000000000000004e+00 +9.1425662320913492e+00 +0.0000000000000000e+00 -9.8999982716808805e+00 +3.9225245011857873e-05 -6.3886845777543680e-02 -2.4444133845769316e-04
-1.0000000000000000e+01 +9.1424633694165305e+00 +0.0000000000000000e+00 -9.9999982187767706e+00 +3.9223846327717943e-05 -6.3886853379342676e-02 -2.4441231103528114e-04
-1.0100000000000000e+01 +9.1423594729446602e+00 +0.0000000000000000e+00 -1.0099998164803900e+01 +3.9222935444618710e-05 -6.3886851568387873e-02 -2.4438880076395445e-04
-1.0199999999999999e+01 +9.1422545426793000e+00 +0.0000000000000000e+00 -1.0199998109751700e+01 +3.9222638372225014e-05 -6.3886842952515427e-02 -2.4437070960624539e-04
-1.0300000000000001e+01 +9.1421485786168795e+00 +0.0000000000000000e+00 -1.0299998053609301e+01 +3.9223114980418592e-05 -6.3886830939929418e-02 -2.4435777640478704e-04
-1.0400000000000000e+01 +9.1420415807609707e+00 +0.0000000000000000e+00 -1.0399997996366100e+01 +3.9224524885342725e-05 -6.3886818938360332e-02 -2.4434974007146932e-04
-1.0500000000000000e+01 +9.1419335491080194e+00 +0.0000000000000000e+00 -1.0499997938011500e+01 +3.9227027443027325e-05 -6.3886810355056126e-02 -2.4434633958936926e-04
-1.0600000000000000e+01 +9.1418244836597893e+00 +0.0000000000000000e+00 -1.0599997878534600e+01 +3.9230781743016575e-05 -6.3886808596769706e-02 -2.4434731401467267e-04
-1.0699999999999999e+01 +9.1417143844180693e+00 +0.0000000000000000e+00 -1.0699997817925000e+01 +3.9235946601995471e-05 -6.3886817069748886e-02 -2.4435240247860083e-04
-1.0800000000000001e+01 +9.1416032513792906e+00 +0.0000000000000000e+00 -1.0799997756171701e+01 +3.9242680557417361e-05 -6.3886839179726179e-02 -2.4436134418933888e-04
-1.0900000000000000e+01 +9.1414910845470292e+00 +0.0000000000000000e+00 -1.0899997693264300e+01 +3.9251141861131594e-05 -6.3886878331906413e-02 -2.4437387843395713e-04
-1.1000000000000000e+01 +9.1413778839177091e+00 +0.0000000000000000e+00 -1.0999997629191901e+01 +3.9261488473012069e-05 -6.3886937930957802e-02 -2.4438974458034255e-04
-1.1100000000000000e+01 +9.1412636494931299e+00 +0.0000000000000000e+00 -1.1099997563943900e+01 +3.9273659761245204e-05 -6.3887019931398017e-02 -2.4440865470052171e-04
-1.1199999999999999e+01 +9.1411483812750394e+00 +0.0000000000000000e+00 -1.1199997497509599e+01 +3.9286721688406873e-05 -6.3887120488934634e-02 -2.4443021140601017e-04
-1.1300000000000001e+01 +9.1410320792599205e+00 +0.0000000000000000e+00 -1.1299997429878401e+01 +3.9299521955787590e-05 -6.3887234310473745e-02 -2.4445398994850750e-04
-1.1400000000000000e+01 +9.1409147434512903e+00 +0.0000000000000000e+00 -1.1399997361039500e+01 +3.9310908363739473e-05 -6.3887356104093004e-02 -2.4447956559712293e-04
-1.1500000000000000e+01 +9.1407963738456193e+00 +0.0000000000000000e+00 -1.1499997290982201e+01 +3.9319728814445339e-05 -6.3887480579071107e-02 -2.4450651363879319e-04
-1.1600000000000000e+01 +9.1406769704464494e+00 +0.0000000000000000e+00 -1.1599997219695799e+01 +3.9324831314690228e-05 -6.3887602445913114e-02 -2.4453440937868988e-04
-1.1699999999999999e+01 +9.1405565332520098e+00 +0.0000000000000000e+00 -1.1699997147169800e+01 +3.9325063978639993e-05 -6.3887716416379789e-02 -2.4456282814064165e-04
