# field on trajectory
# s[mm] rx[mm] ry[mm] rz[mm] bx[T] by[T] bz[T]
0.0000000000000000e+00 +9.1613000000000007e+00 +0.0000000000000000e+00 +0.0000000000000000e+00 +1.1137791553150270e-02 -1.0329296889924910e+00 -5.8753723188307551e-02
-1.0000000000000001e-01 +9.1612994838926500e+00 +0.0000000000000000e+00 -9.9999999998224232e-02 +1.1137982024263726e-02 -1.0329283861945870e+00 -5.8754097443663160e-02
-2.0000000000000001e-01 +9.1612979355714739e+00 +0.0000000000000000e+00 -1.9999999998579379e-01 +1.1138168114104447e-02 -1.0329270455473145e+00 -5.8754484249751895e-02
-3.0000000000000004e-01 +9.1612953550378098e+00 +0.0000000000000000e+00 -2.9999999995205406e-01 +1.1138350655903228e-02 -1.0329256737691039e+00 -5.8754883770296876e-02
-4.0000000000000002e-01 +9.1612917422930309e+00 +0.0000000000000000e+00 -3.9999999988635049e-01 +1.1138530482903272e-02 -1.0329242775783400e+00 -5.8755296169025396e-02
-5.0000000000000000e-01 +9.1612870973385299e+00 +0.0000000000000000e+00 -4.9999999977802856e-01 +1.1138708428358846e-02 -1.0329228636932255e+00 -5.8755721609672691e-02
-5.9999999999999998e-01 +9.1612814201757207e+00 +0.0000000000000000e+00 -5.9999999961643369e-01 +1.1138885325533881e-02 -1.0329214388316477e+00 -5.8756160255985769e-02
-6.9999999999999996e-01 +9.1612747108060262e+00 +0.0000000000000000e+00 -6.9999999939091151e-01 +1.1139062007700627e-02 -1.0329200097110418e+00 -5.8756612271727258e-02
-7.9999999999999993e-01 +9.1612669692308764e+00 +0.0000000000000000e+00 -7.9999999909080766e-01 +1.1139239308138276e-02 -1.0329185830482572e+00 -5.8757077820679141e-02
-8.9999999999999991e-01 +9.1612581954516958e+00 +0.0000000000000000e+00 -8.9999999870546776e-01 +1.1139418060131604e-02 -1.0329171655594231e+00 -5.8757557066646690e-02
-9.9999999999999989e-01 +9.1612483894699022e+00 +0.0000000000000000e+00 -9.9999999822423746e-01 +1.1139599096969570e-02 -1.0329157639598101e+00 -5.8758050173462147e-02
-1.0999999999999999e+00 +9.1612375512868969e+00 +0.0000000000000000e+00 -1.0999999976364625e+00 +1.1139783251943989e-02 -1.0329143849637001e+00 -5.8758557304988676e-02
-1.2000000000000000e+00 +9.1612256809040566e+00 +0.0000000000000000e+00 -1.1999999969314887e+00 +1.1139971358348147e-02 -1.0329130352842468e+00 -5.8759078625124063e-02
-1.3000000000000000e+00 +9.1612127783227333e+00 +0.0000000000000000e+00 -1.2999999960986617e+00 +1.1140164249475398e-02 -1.0329117216333430e+00 -5.8759614297804602e-02
-1.4000000000000001e+00 +9.1611988435442395e+00 +0.0000000000000000e+00 -1.3999999951273274e+00 +1.1140362758617860e-02 -1.0329104507214857e+00 -5.8760164487008881e-02
-1.5000000000000002e+00 +9.1611838765698455e+00 +0.0000000000000000e+00 -1.4999999940068318e+00 +1.1140567719064971e-02 -1.0329092292576396e+00 -5.8760729356761597e-02
-1.6000000000000003e+00 +9.1611678774007732e+00 +0.0000000000000000e+00 -1.5999999927265209e+00 +1.1140779716650272e-02 -1.0329080634350962e+00 -5.8761308893501576e-02
-1.7000000000000004e+00 +9.1611508460381899e+00 +0.0000000000000000e+00 -1.6999999912757404e+00 +1.1140998347392668e-02 -1.0329069573896676e+00 -5.8761902373151029e-02
-1.8000000000000005e+00 +9.1611327824832021e+00 +0.0000000000000000e+00 -1.7999999896438363e+00 +1.1141222959848067e-02 -1.0329059147422643e+00 -5.8762508893974372e-02
-1.9000000000000006e+00 +9.1611136867368526e+00 +0.0000000000000000e+00 -1.8999999878201548e+00 +1.1141452902559013e-02 -1.0329049391130098e+00 -5.8763127554199539e-02
-2.0000000000000004e+00 +9.1610935588001183e+00 +0.0000000000000000e+00 -1.9999999857940416e+00 +1.1141687524052674e-02 -1.0329040341212636e+00 -5.8763757452009471e-02
-2.1000000000000005e+00 +9.1610723986739053e+00 +0.0000000000000000e+00 -2.0999999835548429e+00 +1.1141926172838795e-02 -1.0329032033856482e+00 -5.8764397685533827e-02
-2.2000000000000006e+00 +9.1610502063590467e+00 +0.0000000000000000e+00 -2.1999999810919046e+00 +1.1142168197407700e-02 -1.0329024505240745e+00 -5.8765047352840480e-02
-2.3000000000000007e+00 +9.1610269818562955e+00 +0.0000000000000000e+00 -2.2999999783945730e+00 +1.1142412946228256e-02 -1.0329017791537665e+00 -5.8765705551927214e-02
-2.4000000000000008e+00 +9.1610027251663269e+00 +0.0000000000000000e+00 -2.3999999754521939e+00 +1.1142659767745861e-02 -1.0329011928912866e+00 -5.8766371380713098e-02
-2.5000000000000009e+00 +9.1609774362897269e+00 +0.0000000000000000e+00 -2.4999999722541135e+00 +1.1142908010380405e-02 -1.0329006953525615e+00 -5.8767043937030299e-02
-2.6000000000000010e+00 +9.1609511152269967e+00 +0.0000000000000000e+00 -2.5999999687896778e+00 +1.1143157022524273e-02 -1.0329002901529083e+00 -5.8767722318615524e-02
-2.7000000000000011e+00 +9.1609237619785411e+00 +0.0000000000000000e+00 -2.6999999650482329e+00 +1.1143406152540296e-02 -1.0328999809070565e+00 -5.8768405623101636e-02
-2.8000000000000012e+00 +9.1608953765446746e+00 +0.0000000000000000e+00 -2.7999999610191249e+00 +1.1143654748759788e-02 -1.0328997712291785e+00 -5.8769092948009305e-02
-2.9000000000000012e+00 +9.1608659589256085e+00 +0.0000000000000000e+00 -2.8999999566916994e+00 +1.1143902159480449e-02 -1.0328996647329103e+00 -5.8769783390738531e-02
-3.0000000000000013e+00 +9.1608355091214513e+00 +0.0000000000000000e+00 -2.9999999520553025e+00 +1.1144147732964411e-02 -1.0328996650313793e+00 -5.8770476048560200e-02
-3.1000000000000014e+00 +9.1608040271322064e+00 +0.0000000000000000e+00 -3.0999999470992803e+00 +1.1144390817436208e-02 -1.0328997757372287e+00 -5.8771170018607745e-02
-3.2000000000000015e+00 +9.1607715129577656e+00 +0.0000000000000000e+00 -3.1999999418129788e+00 +1.1144630761080762e-02 -1.0329000004626443e+00 -5.8771864397868807e-02
-3.3000000000000016e+00 +9.1607379665979085e+00 +0.0000000000000000e+00 -3.2999999361857433e+00 +1.1144866912041340e-02 -1.0329003428193764e+00 -5.8772558283176589e-02
-3.4000000000000017e+00 +9.1607033880522959e+00 +0.0000000000000000e+00 -3.3999999302069202e+00 +1.1145098618417604e-02 -1.0329008064187699e+00 -5.8773250771201699e-02
-3.5000000000000018e+00 +9.1606677773204677e+00 +0.0000000000000000e+00 -3.4999999238658548e+00 +1.1145325228263548e-02 -1.0329013948717849e+00 -5.8773940958443661e-02
-3.6000000000000019e+00 +9.1606311344018394e+00 +0.0000000000000000e+00 -3.5999999171518930e+00 +1.1145546279560744e-02 -1.0329021088696941e+00 -5.8774628182470978e-02
-3.7000000000000020e+00 +9.1605934592957023e+00 +0.0000000000000000e+00 -3.6999999100543808e+00 +1.1145762070171766e-02 -1.0329029374264025e+00 -5.8775312745733839e-02
-3.8000000000000020e+00 +9.1605547520012340e+00 +0.0000000000000000e+00 -3.7999999025626634e+00 +1.1145973087963243e-02 -1.0329038666370851e+00 -5.8775995191943341e-02
-3.9000000000000021e+00 +9.1605150125175108e+00 +0.0000000000000000e+00 -3.8999998946660863e+00 +1.1146179820840161e-02 -1.0329048825976972e+00 -5.8776676064845948e-02
-4.0000000000000018e+00 +9.1604742408435236e+00 +0.0000000000000000e+00 -3.9999998863539949e+00 +1.1146382756749614e-02 -1.0329059714050692e+00 -5.8777355908230002e-02
-4.1000000000000014e+00 +9.1604324369781889e+00 +0.0000000000000000e+00 -4.0999998776157351e+00 +1.1146582383684553e-02 -1.0329071191569990e+00 -5.8778035265932449e-02
-4.2000000000000011e+00 +9.1603896009203662e+00 +0.0000000000000000e+00 -4.1999998684406519e+00 +1.1146779189687482e-02 -1.0329083119523408e+00 -5.8778714681845264e-02
-4.3000000000000007e+00 +9.1603457326688691e+00 +0.0000000000000000e+00 -4.2999998588180901e+00 +1.1146973662854201e-02 -1.0329095358911005e+00 -5.8779394699922195e-02
-4.4000000000000004e+00 +9.1603008322224806e+00 +0.0000000000000000e+00 -4.3999998487373952e+00 +1.1147166291337531e-02 -1.0329107770745245e+00 -5.8780075864185148e-02
-4.5000000000000000e+00 +9.1602548995799662e+00 +0.0000000000000000e+00 -4.4999998381879127e+00 +1.1147357563351048e-02 -1.0329120216051957e+00 -5.8780758718731056e-02
-4.5999999999999996e+00 +9.1602079347400878e+00 +0.0000000000000000e+00 -4.5999998271589870e+00 +1.1147547967172780e-02 -1.0329132555871208e+00 -5.8781443807738136e-02
-4.6999999999999993e+00 +9.1601599377016178e+00 +0.0000000000000000e+00 -4.6999998156399636e+00 +1.1147737991148961e-02 -1.0329144651258253e+00 -5.8782131675472728e-02
-4.7999999999999989e+00 +9.1601109084633539e+00 +0.0000000000000000e+00 -4.7999998036201879e+00 +1.1147928123697708e-02 -1.0329156363284444e+00 -5.8782822866295631e-02
-4.8999999999999986e+00 +9.1600608470241340e+00 +0.0000000000000000e+00 -4.8999997910890043e+00 +1.1148118853312784e-02 -1.0329167553038170e+00 -5.8783517924668988e-02
-4.9999999999999982e+00 +9.1600097533828446e+00 +0.0000000000000000e+00 -4.9999997780357583e+00 +1.1148310668567283e-02 -1.0329178081625738e+00 -5.8784217395162548e-02
-5.0999999999999979e+00 +9.1599576275384411e+00 +0.0000000000000000e+00 -5.0999997644497954e+00 +1.1148504058117365e-02 -1.0329187810172342e+00 -5.8784921822460465e-02
-5.1999999999999975e+00 +9.1599044694899572e+00 +0.0000000000000000e+00 -5.1999997503204600e+00 +1.1148699510705943e-02 -1.0329196599822943e+00 -5.8785631751367737e-02
-5.2999999999999972e+00 +9.1598502792365224e+00 +0.0000000000000000e+00 -5.2999997356370976e+00 +1.1148897515166409e-02 -1.0329204311743221e+00 -5.8786347726816832e-02
-5.3999999999999968e+00 +9.1597950567773712e+00 +0.0000000000000000e+00 -5.3999997203890526e+00 +1.1149098560426340e-02 -1.0329210807120472e+00 -5.8787070293874262e-02
-5.4999999999999964e+00 +9.1597388021118622e+00 +0.0000000000000000e+00 -5.4999997045656706e+00 +1.1149303135511204e-02 -1.0329215947164547e+00 -5.8787799997747116e-02
-5.5999999999999961e+00 +9.1596815152394893e+00 +0.0000000000000000e+00 -5.5999996881562968e+00 +1.1149511557794445e-02 -1.0329219625721537e+00 -5.8788537192893918e-02
-5.6999999999999957e+00 +9.1596231961598917e+00 +0.0000000000000000e+00 -5.6999996711502758e+00 +1.1149723457667772e-02 -1.0329221867105340e+00 -5.8789281470357800e-02
-5.7999999999999954e+00 +9.1595638448728494e+00 +0.0000000000000000e+00 -5.7999996535369540e+00 +1.1149938293688351e-02 -1.0329222728243754e+00 -5.8790032230500923e-02
-5.8999999999999950e+00 +9.1595034613782822e+00 +0.0000000000000000e+00 -5.8999996353056767e+00 +1.1150155524314262e-02 -1.0329222266062748e+00 -5.8790788873917935e-02
-5.9999999999999947e+00 +9.1594420456762435e+00 +0.0000000000000000e+00 -5.9999996164457885e+00 +1.1150374607899359e-02 -1.0329220537486201e+00 -5.8791550801445262e-02
-6.0999999999999943e+00 +9.1593795977669110e+00 +0.0000000000000000e+00 -6.0999995969466356e+00 +1.1150595002688220e-02 -1.0329217599435672e+00 -5.8792317414170479e-02
-6.1999999999999940e+00 +9.1593161176505866e+00 +0.0000000000000000e+00 -6.1999995767975635e+00 +1.1150816166811057e-02 -1.0329213508830124e+00 -5.8793088113441562e-02
-6.2999999999999936e+00 +9.1592516053276825e+00 +0.0000000000000000e+00 -6.2999995559879185e+00 +1.1151037558278655e-02 -1.0329208322585712e+00 -5.8793862300876354e-02
-6.3999999999999932e+00 +9.1591860607987243e+00 +0.0000000000000000e+00 -6.3999995345070460e+00 +1.1151258634977268e-02 -1.0329202097615486e+00 -5.8794639378371726e-02
-6.4999999999999929e+00 +9.1591194840643411e+00 +0.0000000000000000e+00 -6.4999995123442922e+00 +1.1151478854663601e-02 -1.0329194890829183e+00 -5.8795418748113039e-02
-6.5999999999999925e+00 +9.1590518751252592e+00 +0.0000000000000000e+00 -6.5999994894890026e+00 +1.1151697674959693e-02 -1.0329186759132956e+00 -5.8796199812583404e-02
-6.6999999999999922e+00 +9.1589832339822994e+00 +0.0000000000000000e+00 -6.6999994659305235e+00 +1.1151914553347880e-02 -1.0329177759429129e+00 -5.8796981974572990e-02
-6.7999999999999918e+00 +9.1589135606363659e+00 +0.0000000000000000e+00 -6.7999994416582012e+00 +1.1152128947165732e-02 -1.0329167948615943e+00 -5.8797764637188471e-02
-6.8999999999999915e+00 +9.1588428550884480e+00 +0.0000000000000000e+00 -6.8999994166613821e+00 +1.1152340313600998e-02 -1.0329157383587320e+00 -5.8798547203862274e-02
-6.9999999999999911e+00 +9.1587711173396062e+00 +0.0000000000000000e+00 -6.9999993909294114e+00 +1.1152548109686536e-02 -1.0329146121232591e+00 -5.8799329078361905e-02
-7.0999999999999908e+00 +9.1586983473909758e+00 +0.0000000000000000e+00 -7.0999993644516373e+00 +1.1152751792295282e-02 -1.0329134218436267e+00 -5.8800109664799295e-02
-7.1999999999999904e+00 +9.1586245452437502e+00 +0.0000000000000000e+00 -7.1999993372174051e+00 +1.1152950818135178e-02 -1.0329121732077780e+00 -5.8800888367640192e-02
-7.2999999999999901e+00 +9.1585497108991873e+00 +0.0000000000000000e+00 -7.2999993092160613e+00 +1.1153144643744155e-02 -1.0329108719031228e+00 -5.8801664591713487e-02
-7.3999999999999897e+00 +9.1584738443585945e+00 +0.0000000000000000e+00 -7.3999992804369530e+00 +1.1153332725485087e-02 -1.0329095236165140e+00 -5.8802437742220492e-02
-7.4999999999999893e+00 +9.1583969456233252e+00 +0.0000000000000000e+00 -7.4999992508694273e+00 +1.1153514519540726e-02 -1.0329081340342205e+00 -5.8803207224744296e-02
-7.5999999999999890e+00 +9.1583190146947775e+00 +0.0000000000000000e+00 -7.5999992205028306e+00 +1.1153689680724853e-02 -1.0329067088245680e+00 -5.8803972605873132e-02
-7.6999999999999886e+00 +9.1582400515743831e+00 +0.0000000000000000e+00 -7.6999991893265101e+00 +1.1153858659068549e-02 -1.0329052535856620e+00 -5.8804734094897657e-02
-7.7999999999999883e+00 +9.1581600562636041e+00 +0.0000000000000000e+00 -7.7999991573298120e+00 +1.1154022103581974e-02 -1.0329037738969296e+00 -5.8805492061669608e-02
-7.8999999999999879e+00 +9.1580790287639271e+00 +0.0000000000000000e+00 -7.8999991245020844e+00 +1.1154180663467043e-02 -1.0329022753363490e+00 -5.8806246875932326e-02
-7.9999999999999876e+00 +9.1579969690768586e+00 +0.0000000000000000e+00 -7.9999990908326737e+00 +1.1154334988124558e-02 -1.0329007634803991e+00 -5.8806998907313411e-02
-8.0999999999999872e+00 +9.1579138772039155e+00 +0.0000000000000000e+00 -8.0999990563109279e+00 +1.1154485727161351e-02 -1.0328992439040083e+00 -5.8807748525317727e-02
-8.1999999999999869e+00 +9.1578297531466273e+00 +0.0000000000000000e+00 -8.1999990209261924e+00 +1.1154633530397381e-02 -1.0328977221805105e+00 -5.8808496099320172e-02
-8.2999999999999865e+00 +9.1577445969065217e+00 +0.0000000000000000e+00 -8.2999989846678162e+00 +1.1154779047872881e-02 -1.0328962038815899e+00 -5.8809241998558338e-02
-8.3999999999999861e+00 +9.1576584084851245e+00 +0.0000000000000000e+00 -8.3999989475251446e+00 +1.1154922929855449e-02 -1.0328946945772355e+00 -5.8809986592125572e-02
-8.4999999999999858e+00 +9.1575711878839527e+00 +0.0000000000000000e+00 -8.4999989094875268e+00 +1.1155065826847181e-02 -1.0328931998356903e+00 -5.8810730248963584e-02
-8.5999999999999854e+00 +9.1574829351045093e+00 +0.0000000000000000e+00 -8.5999988705443098e+00 +1.1155208389591794e-02 -1.0328917252234042e+00 -5.8811473337855434e-02
-8.6999999999999851e+00 +9.1573936501482773e+00 +0.0000000000000000e+00 -8.6999988306848408e+00 +1.1155351269081674e-02 -1.0328902763049796e+00 -5.8812216227418182e-02
-8.7999999999999847e+00 +9.1573033330167117e+00 +0.0000000000000000e+00 -8.7999987898984671e+00 +1.1155495116565037e-02 -1.0328888586431282e+00 -5.8812959286095826e-02
-8.8999999999999844e+00 +9.1572119837112407e+00 +0.0000000000000000e+00 -8.8999987481745357e+00 +1.1155640583552999e-02 -1.0328874777986179e+00 -5.8813702882152007e-02
-8.9999999999999840e+00 +9.1571196022332515e+00 +0.0000000000000000e+00 -8.9999987055023958e+00 +1.1155788321826666e-02 -1.0328861393302229e+00 -5.8814447383662892e-02
-9.0999999999999837e+00 +9.1570261885840925e+00 +0.0000000000000000e+00 -9.0999986618713926e+00 +1.1155938983444235e-02 -1.0328848487946771e+00 -5.8815193158509978e-02
-9.1999999999999833e+00 +9.1569317427650621e+00 +0.0000000000000000e+00 -9.1999986172708752e+00 +1.1156093220748047e-02 -1.0328836117466227e+00 -5.8815940574372824e-02
-9.2999999999999829e+00 +9.1568362647774055e+00 +0.0000000000000000e+00 -9.2999985716901907e+00 +1.1156251686371724e-02 -1.0328824337385600e+00 -5.8816689998721916e-02
-9.3999999999999826e+00 +9.1567397546223113e+00 +0.0000000000000000e+00 -9.3999985251186864e+00 +1.1156415033247173e-02 -1.0328813203208007e+00 -5.8817441798811466e-02
-9.4999999999999822e+00 +9.1566422123009001e+00 +0.0000000000000000e+00 -9.4999984775457094e+00 +1.1156583914611714e-02 -1.0328802770414158e+00 -5.8818196341672166e-02
-9.5999999999999819e+00 +9.1565436378142255e+00 +0.0000000000000000e+00 -9.5999984289606068e+00 +1.1156758780069711e-02 -1.0328793083963383e+00 -5.8818953779595867e-02
-9.6999999999999815e+00 +9.1564440311632662e+00 +0.0000000000000000e+00 -9.6999983793527260e+00 +1.1156939263521428e-02 -1.0328784146810033e+00 -5.8819713406581556e-02
-9.7999999999999812e+00 +9.1563433923489264e+00 +0.0000000000000000e+00 -9.7999983287114141e+00 +1.1157124794659292e-02 -1.0328775951424731e+00 -5.8820474301902965e-02
-9.8999999999999808e+00 +9.1562417213720337e+00 +0.0000000000000000e+00 -9.8999982770260200e+00 +1.1157314802872811e-02 -1.0328768490297953e+00 -5.8821235544634663e-02
-9.9999999999999805e+00 +9.1561390182333469e+00 +0.0000000000000000e+00 -9.9999982242858891e+00 +1.1157508717239814e-02 -1.0328761755940603e+00 -5.8821996213646296e-02
-1.0099999999999980e+01 +9.1560352829335496e+00 +0.0000000000000000e+00 -1.0099998170480369e+01 +1.1157705966517778e-02 -1.0328755740884643e+00 -5.8822755387596695e-02
-1.0199999999999980e+01 +9.1559305154732531e+00 +0.0000000000000000e+00 -1.0199998115598806e+01 +1.1157905979135099e-02 -1.0328750437683725e+00 -5.8823512144928113e-02
-1.0299999999999979e+01 +9.1558247158529991e+00 +0.0000000000000000e+00 -1.0299998059630548e+01 +1.1158108183182396e-02 -1.0328745838913744e+00 -5.8824265563860410e-02
-1.0399999999999979e+01 +9.1557178840732583e+00 +0.0000000000000000e+00 -1.0399998002564942e+01 +1.1158312006403829e-02 -1.0328741937173522e+00 -5.8825014722385278e-02
-1.0499999999999979e+01 +9.1556100201344321e+00 +0.0000000000000000e+00 -1.0499997944391335e+01 +1.1158516876188374e-02 -1.0328738725085354e+00 -5.8825758698260407e-02
-1.0599999999999978e+01 +9.1555011240368529e+00 +0.0000000000000000e+00 -1.0599997885099073e+01 +1.1158722219561164e-02 -1.0328736195295651e+00 -5.8826496569003642e-02
-1.0699999999999978e+01 +9.1553911957807852e+00 +0.0000000000000000e+00 -1.0699997824677503e+01 +1.1158927463174779e-02 -1.0328734340475556e+00 -5.8827227411887228e-02
-1.0799999999999978e+01 +9.1552802353664262e+00 +0.0000000000000000e+00 -1.0799997763115972e+01 +1.1159132033300595e-02 -1.0328733153321539e+00 -5.8827950303932064e-02
-1.0899999999999977e+01 +9.1551682427939056e+00 +0.0000000000000000e+00 -1.0899997700403826e+01 +1.1159335355820085e-02 -1.0328732626556001e+00 -5.8828664321901793e-02
-1.0999999999999977e+01 +9.1550552180632891e+00 +0.0000000000000000e+00 -1.0999997636530413e+01 +1.1159536856216156e-02 -1.0328732752927903e+00 -5.8829368542297061e-02
-1.1099999999999977e+01 +9.1549411611745768e+00 +0.0000000000000000e+00 -1.1099997571485078e+01 +1.1159735959564500e-02 -1.0328733525213372e+00 -5.8830062041349822e-02
-1.1199999999999976e+01 +9.1548260721277028e+00 +0.0000000000000000e+00 -1.1199997505257169e+01 +1.1159932090524904e-02 -1.0328734936216304e+00 -5.8830743895017336e-02
-1.1299999999999976e+01 +9.1547099509225376e+00 +0.0000000000000000e+00 -1.1299997437836032e+01 +1.1160124673332623e-02 -1.0328736978768960e+00 -5.8831413178976610e-02
-1.1399999999999975e+01 +9.1545927975588910e+00 +0.0000000000000000e+00 -1.1399997369211011e+01 +1.1160313131789718e-02 -1.0328739645732607e+00 -5.8832068968618485e-02
-1.1499999999999975e+01 +9.1544746120365090e+00 +0.0000000000000000e+00 -1.1499997299371454e+01 +1.1160496889256409e-02 -1.0328742929998111e+00 -5.8832710339041888e-02
-1.1599999999999975e+01 +9.1543553943550755e+00 +0.0000000000000000e+00 -1.1599997228306707e+01 +1.1160675557800384e-02 -1.0328746813009964e+00 -5.8833336588250372e-02
-1.1699999999999974e+01 +9.1542351445142156e+00 +0.0000000000000000e+00 -1.1699997156006116e+01 +1.1160849505987764e-02 -1.0328751230314210e+00 -5.8833947907000653e-02
