# trajectory
# s[mm] rx[mm] ry[mm] rz[mm] px[rad] py[rad] pz[rad]
0.0000000000000000e+00 +9.0449999999999999e+00 +0.0000000000000000e+00 +0.0000000000000000e+00 +0.0000000000000000e+00 +0.0000000000000000e+00 +1.0000000000000000e+00
1.0000000000000001e-01 +9.0449994833527718e+00 +0.0000000000000000e+00 +9.9999999998220498e-02 -1.0332944679755359e-05 +0.0000000000000000e+00 +9.9999999994661515e-01
2.0000000000000001e-01 +9.0449979334110342e+00 +0.0000000000000000e+00 +1.9999999998576404e-01 -2.0665890257967659e-05 +0.0000000000000000e+00 +9.9999999978646048e-01
3.0000000000000004e-01 +9.0449953501746840e+00 +0.0000000000000000e+00 +2.9999999995195359e-01 -3.0998836933034056e-05 +0.0000000000000000e+00 +9.9999999951953600e-01
4.0000000000000002e-01 +9.0449917336436059e+00 +0.0000000000000000e+00 +3.9999999988611223e-01 -4.1331784824896276e-05 +0.0000000000000000e+00 +9.9999999914584170e-01
5.0000000000000000e-01 +9.0449870838176771e+00 +0.0000000000000000e+00 +4.9999999977756293e-01 -5.1664733975032945e-05 +0.0000000000000000e+00 +9.9999999866537759e-01
5.9999999999999998e-01 +9.0449814006967699e+00 +0.0000000000000000e+00 +5.9999999961562878e-01 -6.1997684350502072e-05 +0.0000000000000000e+00 +9.9999999807814355e-01
6.9999999999999996e-01 +9.0449746842807670e+00 +0.0000000000000000e+00 +6.9999999938963264e-01 -7.2330635888490159e-05 +0.0000000000000000e+00 +9.9999999738413958e-01
7.9999999999999993e-01 +9.0449669345695547e+00 +0.0000000000000000e+00 +7.9999999908889763e-01 -8.2663588540863320e-05 +0.0000000000000000e+00 +9.9999999658336558e-01
8.9999999999999991e-01 +9.0449581515630229e+00 +0.0000000000000000e+00 +8.9999999870274672e-01 -9.2996542278213682e-05 +0.0000000000000000e+00 +9.9999999567582154e-01
9.9999999999999989e-01 +9.0449483352610631e+00 +0.0000000000000000e+00 +9.9999999822050289e-01 -1.0332949708985626e-04 +0.0000000000000000e+00 +9.9999999466150746e-01
1.0999999999999999e+00 +9.0449374856635689e+00 +0.0000000000000000e+00 +1.0999999976314891e+00 -1.1366245298382685e-04 +0.0000000000000000e+00 +9.9999999354042335e-01
1.2000000000000000e+00 +9.0449256027704301e+00 +0.0000000000000000e+00 +1.1999999969250286e+00 -1.2399540998688110e-04 +0.0000000000000000e+00 +9.9999999231256909e-01
1.3000000000000000e+00 +9.0449126865815330e+00 +0.0000000000000000e+00 +1.2999999960904440e+00 -1.3432836814449451e-04 +0.0000000000000000e+00 +9.9999999097794467e-01
1.4000000000000001e+00 +9.0448987370967604e+00 +0.0000000000000000e+00 +1.3999999951170585e+00 -1.4466132752086360e-04 +0.0000000000000000e+00 +9.9999998953655012e-01
1.5000000000000002e+00 +9.0448837543159861e+00 +0.0000000000000000e+00 +1.4999999939941950e+00 -1.5499428819890808e-04 +0.0000000000000000e+00 +9.9999998798838530e-01
1.6000000000000003e+00 +9.0448677382390752e+00 +0.0000000000000000e+00 +1.5999999927111765e+00 -1.6532725028027421e-04 +0.0000000000000000e+00 +9.9999998633345011e-01
1.7000000000000004e+00 +9.0448506888658802e+00 +0.0000000000000000e+00 +1.6999999912573260e+00 -1.7566021388533900e-04 +0.0000000000000000e+00 +9.9999998457174455e-01
1.8000000000000005e+00 +9.0448326061962430e+00 +0.0000000000000000e+00 +1.7999999896219665e+00 -1.8599317915321567e-04 +0.0000000000000000e+00 +9.9999998270326851e-01
1.9000000000000006e+00 +9.0448134902299895e+00 +0.0000000000000000e+00 +1.8999999877944207e+00 -1.9632614624176013e-04 +0.0000000000000000e+00 +9.9999998072802199e-01
2.0000000000000004e+00 +9.0447933409669279e+00 +0.0000000000000000e+00 +1.9999999857640118e+00 -2.0665911532757850e-04 +0.0000000000000000e+00 +9.9999997864600487e-01
2.1000000000000005e+00 +9.0447721584068503e+00 +0.0000000000000000e+00 +2.0999999835200627e+00 -2.1699208660603568e-04 +0.0000000000000000e+00 +9.9999997645721694e-01
2.2000000000000006e+00 +9.0447499425495259e+00 +0.0000000000000000e+00 +2.1999999810518962e+00 -2.2732506029126502e-04 +0.0000000000000000e+00 +9.9999997416165820e-01
2.3000000000000007e+00 +9.0447266933947041e+00 +0.0000000000000000e+00 +2.2999999783488354e+00 -2.3765803661617910e-04 +0.0000000000000000e+00 +9.9999997175932842e-01
2.4000000000000008e+00 +9.0447024109421061e+00 +0.0000000000000000e+00 +2.3999999754002030e+00 -2.4799101583248146e-04 +0.0000000000000000e+00 +9.9999996925022760e-01
2.5000000000000009e+00 +9.0446770951914317e+00 +0.0000000000000000e+00 +2.4999999721953219e+00 -2.5832399821067951e-04 +0.0000000000000000e+00 +9.9999996663435542e-01
2.6000000000000010e+00 +9.0446507461423487e+00 +0.0000000000000000e+00 +2.5999999687235151e+00 -2.6865698403940664e-04 +0.0000000000000000e+00 +9.9999996391171186e-01
2.7000000000000011e+00 +9.0446233637944982e+00 +0.0000000000000000e+00 +2.6999999649741051e+00 -2.7898997361782492e-04 +0.0000000000000000e+00 +9.9999996108229661e-01
2.8000000000000012e+00 +9.0445949481474894e+00 +0.0000000000000000e+00 +2.7999999609364150e+00 -2.8932296724801715e-04 +0.0000000000000000e+00 +9.9999995814610954e-01
2.9000000000000012e+00 +9.0445654992009032e+00 +0.0000000000000000e+00 +2.8999999565997676e+00 -2.9965596523429024e-04 +0.0000000000000000e+00 +9.9999995510315032e-01
3.0000000000000013e+00 +9.0445350169542866e+00 +0.0000000000000000e+00 +2.9999999519534857e+00 -3.0998896788316915e-04 +0.0000000000000000e+00 +9.9999995195341884e-01
3.1000000000000014e+00 +9.0445035014071600e+00 +0.0000000000000000e+00 +3.0999999469868920e+00 -3.2032197550338975e-04 +0.0000000000000000e+00 +9.9999994869691478e-01
3.2000000000000015e+00 +9.0444709525590099e+00 +0.0000000000000000e+00 +3.1999999416893092e+00 -3.3065498840589125e-04 +0.0000000000000000e+00 +9.9999994533363790e-01
3.3000000000000016e+00 +9.0444373704092929e+00 +0.0000000000000000e+00 +3.2999999360500603e+00 -3.4098800690380725e-04 +0.0000000000000000e+00 +9.9999994186358798e-01
3.4000000000000017e+00 +9.0444027549574333e+00 +0.0000000000000000e+00 +3.3999999300584678e+00 -3.5132103131245630e-04 +0.0000000000000000e+00 +9.9999993828676470e-01
3.5000000000000018e+00 +9.0443671062028237e+00 +0.0000000000000000e+00 +3.4999999237038542e+00 -3.6165406194933134e-04 +0.0000000000000000e+00 +9.9999993460316772e-01
3.6000000000000019e+00 +9.0443304241448246e+00 +0.0000000000000000e+00 +3.5999999169755421e+00 -3.7198709913408842e-04 +0.0000000000000000e+00 +9.9999993081279681e-01
3.7000000000000020e+00 +9.0442927087827663e+00 +0.0000000000000000e+00 +3.6999999098628544e+00 -3.8232014318853445e-04 +0.0000000000000000e+00 +9.9999992691565154e-01
3.8000000000000020e+00 +9.0442539601159471e+00 +0.0000000000000000e+00 +3.7999999023551134e+00 -3.9265319443661413e-04 +0.0000000000000000e+00 +9.9999992291173168e-01
3.9000000000000021e+00 +9.0442141781436298e+00 +0.0000000000000000e+00 +3.8999998944416419e+00 -4.0298625320439585e-04 +0.0000000000000000e+00 +9.9999991880103678e-01
4.0000000000000018e+00 +9.0441733628650454e+00 +0.0000000000000000e+00 +3.9999998861117616e+00 -4.1331931982005709e-04 +0.0000000000000000e+00 +9.9999991458356652e-01
4.1000000000000014e+00 +9.0441315142793925e+00 +0.0000000000000000e+00 +4.0999998773547954e+00 -4.2365239461386839e-04 +0.0000000000000000e+00 +9.9999991025932045e-01
4.2000000000000011e+00 +9.0440886323858383e+00 +0.0000000000000000e+00 +4.1999998681600665e+00 -4.3398547791817700e-04 +0.0000000000000000e+00 +9.9999990582829823e-01
4.3000000000000007e+00 +9.0440447171835139e+00 +0.0000000000000000e+00 +4.2999998585168964e+00 -4.4431857006738921e-04 +0.0000000000000000e+00 +9.9999990129049943e-01
4.4000000000000004e+00 +9.0439997686715188e+00 +0.0000000000000000e+00 +4.3999998484146072e+00 -4.5465167139795208e-04 +0.0000000000000000e+00 +9.9999989664592370e-01
4.5000000000000000e+00 +9.0439537868489168e+00 +0.0000000000000000e+00 +4.4999998378425214e+00 -4.6498478224833419e-04 +0.0000000000000000e+00 +9.9999989189457050e-01
4.5999999999999996e+00 +9.0439067717147399e+00 +0.0000000000000000e+00 +4.5999998267899613e+00 -4.7531790295905876e-04 +0.0000000000000000e+00 +9.9999988703643938e-01
4.6999999999999993e+00 +9.0438587232679843e+00 +0.0000000000000000e+00 +4.6999998152462492e+00 -4.8565103387327146e-04 +0.0000000000000000e+00 +9.9999988207152990e-01
4.7999999999999989e+00 +9.0438096415076128e+00 +0.0000000000000000e+00 +4.7999998032007074e+00 -4.9598417533732082e-04 +0.0000000000000000e+00 +9.9999987699984150e-01
4.8999999999999986e+00 +9.0437595264325523e+00 +0.0000000000000000e+00 +4.8999997906426582e+00 -5.0631732770081369e-04 +0.0000000000000000e+00 +9.9999987182137373e-01
4.9999999999999982e+00 +9.0437083780416962e+00 +0.0000000000000000e+00 +4.9999997775614231e+00 -5.1665049131661793e-04 +0.0000000000000000e+00 +9.9999986653612616e-01
5.0999999999999979e+00 +9.0436561963339024e+00 +0.0000000000000000e+00 +5.0999997639463244e+00 -5.2698366654086565e-04 +0.0000000000000000e+00 +9.9999986114409811e-01
5.1999999999999975e+00 +9.0436029813079895e+00 +0.0000000000000000e+00 +5.1999997497866834e+00 -5.3731685373295719e-04 +0.0000000000000000e+00 +9.9999985564528904e-01
5.2999999999999972e+00 +9.0435487329627442e+00 +0.0000000000000000e+00 +5.2999997350718226e+00 -5.4765005325556489e-04 +0.0000000000000000e+00 +9.9999985003969849e-01
5.3999999999999968e+00 +9.0434934512969143e+00 +0.0000000000000000e+00 +5.3999997197910634e+00 -5.5798326547463789e-04 +0.0000000000000000e+00 +9.9999984432732580e-01
5.4999999999999964e+00 +9.0434371363092136e+00 +0.0000000000000000e+00 +5.4999997039337281e+00 -5.6831649075940699e-04 +0.0000000000000000e+00 +9.9999983850817031e-01
5.5999999999999961e+00 +9.0433797879983153e+00 +0.0000000000000000e+00 +5.5999996874891380e+00 -5.7864972948238984e-04 +0.0000000000000000e+00 +9.9999983258223146e-01
5.6999999999999957e+00 +9.0433214063628569e+00 +0.0000000000000000e+00 +5.6999996704466147e+00 -5.8898298201939695e-04 +0.0000000000000000e+00 +9.9999982654950859e-01
5.7999999999999954e+00 +9.0432619914014385e+00 +0.0000000000000000e+00 +5.7999996527954805e+00 -5.9931624874953781e-04 +0.0000000000000000e+00 +9.9999982041000102e-01
5.8999999999999950e+00 +9.0432015431126214e+00 +0.0000000000000000e+00 +5.8999996345250558e+00 -6.0964953005522766e-04 +0.0000000000000000e+00 +9.9999981416370809e-01
5.9999999999999947e+00 +9.0431400614949293e+00 +0.0000000000000000e+00 +5.9999996156246622e+00 -6.1998282632219409e-04 +0.0000000000000000e+00 +9.9999980781062914e-01
6.0999999999999943e+00 +9.0430775465468454e+00 +0.0000000000000000e+00 +6.0999995960836220e+00 -6.3031613793948494e-04 +0.0000000000000000e+00 +9.9999980135076350e-01
6.1999999999999940e+00 +9.0430139982668170e+00 +0.0000000000000000e+00 +6.1999995758912556e+00 -6.4064946529947590e-04 +0.0000000000000000e+00 +9.9999979478411039e-01
6.2999999999999936e+00 +9.0429494166532489e+00 +0.0000000000000000e+00 +6.2999995550368846e+00 -6.5098280879787886e-04 +0.0000000000000000e+00 +9.9999978811066903e-01
6.3999999999999932e+00 +9.0428838017045070e+00 +0.0000000000000000e+00 +6.3999995335098294e+00 -6.6131616883375059e-04 +0.0000000000000000e+00 +9.9999978133043865e-01
6.4999999999999929e+00 +9.0428171534189179e+00 +0.0000000000000000e+00 +6.4999995112994124e+00 -6.7164954580950205e-04 +0.0000000000000000e+00 +9.9999977444341848e-01
6.5999999999999925e+00 +9.0427494717947674e+00 +0.0000000000000000e+00 +6.5999994883949533e+00 -6.8198294012995417e-04 +0.0000000000000000e+00 +9.9999976744960772e-01
6.6999999999999922e+00 +9.0426807568303005e+00 +0.0000000000000000e+00 +6.6999994647857744e+00 -6.9231635219185869e-04 +0.0000000000000000e+00 +9.9999976034900562e-01
6.7999999999999918e+00 +9.0426110085237248e+00 +0.0000000000000000e+00 +6.7999994404611952e+00 -7.0264978237341048e-04 +0.0000000000000000e+00 +9.9999975314161127e-01
6.8999999999999915e+00 +9.0425402268732107e+00 +0.0000000000000000e+00 +6.8999994154105373e+00 -7.1298323103328890e-04 +0.0000000000000000e+00 +9.9999974582742390e-01
6.9999999999999911e+00 +9.0424684118768912e+00 +0.0000000000000000e+00 +6.9999993896231203e+00 -7.2331669851065188e-04 +0.0000000000000000e+00 +9.9999973840644263e-01
7.0999999999999908e+00 +9.0423955635328710e+00 +0.0000000000000000e+00 +7.0999993630882656e+00 -7.3365018512513058e-04 +0.0000000000000000e+00 +9.9999973087866678e-01
7.1999999999999904e+00 +9.0423216818392191e+00 +0.0000000000000000e+00 +7.1999993357952938e+00 -7.4398369117682328e-04 +0.0000000000000000e+00 +9.9999972324409536e-01
7.2999999999999901e+00 +9.0422467667939781e+00 +0.0000000000000000e+00 +7.2999993077335246e+00 -7.5431721694628907e-04 +0.0000000000000000e+00 +9.9999971550272770e-01
7.3999999999999897e+00 +9.0421708183951637e+00 +0.0000000000000000e+00 +7.3999992788922793e+00 -7.6465076269454182e-04 +0.0000000000000000e+00 +9.9999970765456292e-01
7.4999999999999893e+00 +9.0420938366407650e+00 +0.0000000000000000e+00 +7.4999992492608776e+00 -7.7498432866304366e-04 +0.0000000000000000e+00 +9.9999969969960012e-01
7.5999999999999890e+00 +9.0420158215287501e+00 +0.0000000000000000e+00 +7.5999992188286392e+00 -7.8531791507369824e-04 +0.0000000000000000e+00 +9.9999969163783864e-01
7.6999999999999886e+00 +9.0419367730570634e+00 +0.0000000000000000e+00 +7.6999991875848846e+00 -7.9565152212884393e-04 +0.0000000000000000e+00 +9.9999968346927759e-01
7.7999999999999883e+00 +9.0418566912236304e+00 +0.0000000000000000e+00 +7.7999991555189343e+00 -8.0598515001124686e-04 +0.0000000000000000e+00 +9.9999967519391630e-01
7.8999999999999879e+00 +9.0417755760263621e+00 +0.0000000000000000e+00 +7.8999991226201081e+00 -8.1631879888409377e-04 +0.0000000000000000e+00 +9.9999966681175390e-01
7.9999999999999876e+00 +9.0416934274631497e+00 +0.0000000000000000e+00 +7.9999990888777255e+00 -8.2665246889098462e-04 +0.0000000000000000e+00 +9.9999965832278959e-01
8.0999999999999872e+00 +9.0416102455318743e+00 +0.0000000000000000e+00 +8.0999990542811062e+00 -8.3698616015592516e-04 +0.0000000000000000e+00 +9.9999964972702260e-01
8.1999999999999869e+00 +9.0415260302304059e+00 +0.0000000000000000e+00 +8.1999990188195699e+00 -8.4731987278331916e-04 +0.0000000000000000e+00 +9.9999964102445227e-01
8.2999999999999865e+00 +9.0414407815566022e+00 +0.0000000000000000e+00 +8.2999989824824372e+00 -8.5765360685796058e-04 +0.0000000000000000e+00 +9.9999963221507782e-01
8.3999999999999861e+00 +9.0413544995083157e+00 +0.0000000000000000e+00 +8.3999989452590267e+00 -8.6798736244502557e-04 +0.0000000000000000e+00 +9.9999962329889847e-01
8.4999999999999858e+00 +9.0412671840833934e+00 +0.0000000000000000e+00 +8.4999989071386572e+00 -8.7832113959006417e-04 +0.0000000000000000e+00 +9.9999961427591355e-01
8.5999999999999854e+00 +9.0411788352796769e+00 +0.0000000000000000e+00 +8.5999988681106494e+00 -8.8865493832288500e-04 +0.0000000000000000e+00 +9.9999960514612241e-01
8.6999999999999851e+00 +9.0410894530950063e+00 +0.0000000000000000e+00 +8.6999988281643219e+00 -8.9898875870037497e-04 +0.0000000000000000e+00 +9.9999959590952425e-01
8.7999999999999847e+00 +9.0409990375272109e+00 +0.0000000000000000e+00 +8.7999987872889935e+00 -9.0932260084933964e-04 +0.0000000000000000e+00 +9.9999958656611831e-01
8.8999999999999844e+00 +9.0409075885741039e+00 +0.0000000000000000e+00 +8.8999987454739848e+00 -9.1965646497042287e-04 +0.0000000000000000e+00 +9.9999957711590381e-01
8.9999999999999840e+00 +9.0408151062334756e+00 +0.0000000000000000e+00 +8.9999987027086146e+00 -9.2999035133813470e-04 +0.0000000000000000e+00 +9.9999956755887975e-01
9.0999999999999837e+00 +9.0407215905030842e+00 +0.0000000000000000e+00 +9.0999986589822015e+00 -9.4032426030088033e-04 +0.0000000000000000e+00 +9.9999955789504502e-01
9.1999999999999833e+00 +9.0406270413806489e+00 +0.0000000000000000e+00 +9.1999986142840644e+00 -9.5065819228098926e-04 +0.0000000000000000e+00 +9.9999954812439862e-01
9.2999999999999829e+00 +9.0405314588638443e+00 +0.0000000000000000e+00 +9.2999985686035220e+00 -9.6099214777474603e-04 +0.0000000000000000e+00 +9.9999953824693932e-01
9.3999999999999826e+00 +9.0404348429502921e+00 +0.0000000000000000e+00 +9.3999985219298932e+00 -9.7132612735242158e-04 +0.0000000000000000e+00 +9.9999952826266592e-01
9.4999999999999822e+00 +9.0403371936375514e+00 +0.0000000000000000e+00 +9.4999984742524948e+00 -9.8166013165830479e-04 +0.0000000000000000e+00 +9.9999951817157695e-01
9.5999999999999819e+00 +9.0402385109231140e+00 +0.0000000000000000e+00 +9.5999984255606474e+00 -9.9199416141073607e-04 +0.0000000000000000e+00 +9.9999950797367088e-01
9.6999999999999815e+00 +9.0401387948043954e+00 +0.0000000000000000e+00 +9.6999983758436681e+00 -1.0023282174021406e-03 +0.0000000000000000e+00 +9.9999949766894614e-01
9.7999999999999812e+00 +9.0400380452787292e+00 +0.0000000000000000e+00 +9.7999983250908755e+00 -1.0126623004990635e-03 +0.0000000000000000e+00 +9.9999948725740118e-01
9.8999999999999808e+00 +9.0399362623433603e+00 +0.0000000000000000e+00 +9.8999982732915868e+00 -1.0229964116422042e-03 +0.0000000000000000e+00 +9.9999947673903400e-01
9.9999999999999805e+00 +9.0398334459954324e+00 +0.0000000000000000e+00 +9.9999982204351205e+00 -1.0333305518464542e-03 +0.0000000000000000e+00 +9.9999946611384283e-01
1.0099999999999980e+01 +9.0397295962319859e+00 +0.0000000000000000e+00 +1.0099998166510794e+01 -1.0436647222009327e-03 +0.0000000000000000e+00 +9.9999945538182555e-01
1.0199999999999980e+01 +9.0396247130499479e+00 +0.0000000000000000e+00 +1.0199998111507924e+01 -1.0539989238690256e-03 +0.0000000000000000e+00 +9.9999944454298006e-01
1.0299999999999979e+01 +9.0395187964461261e+00 +0.0000000000000000e+00 +1.0299998055415829e+01 -1.0643331580884236e-03 +0.0000000000000000e+00 +9.9999943359730403e-01
1.0399999999999979e+01 +9.0394118464172006e+00 +0.0000000000000000e+00 +1.0399997998223824e+01 -1.0746674261711627e-03 +0.0000000000000000e+00 +9.9999942254479501e-01
1.0499999999999979e+01 +9.0393038629597164e+00 +0.0000000000000000e+00 +1.0499997939921228e+01 -1.0850017295036634e-03 +0.0000000000000000e+00 +9.9999941138545045e-01
1.0599999999999978e+01 +9.0391948460700764e+00 +0.0000000000000000e+00 +1.0599997880497353e+01 -1.0953360695435265e-03 +0.0000000000000000e+00 +9.9999940011926769e-01
1.0699999999999978e+01 +9.0390847957445342e+00 +0.0000000000000000e+00 +1.0699997819941519e+01 -1.1056704477838541e-03 +0.0000000000000000e+00 +9.9999938874624383e-01
1.0799999999999978e+01 +9.0389737119791960e+00 +0.0000000000000000e+00 +1.0799997758243041e+01 -1.1160048657175342e-03 +0.0000000000000000e+00 +9.9999937726637611e-01
1.0899999999999977e+01 +9.0388615947700170e+00 +0.0000000000000000e+00 +1.0899997695391233e+01 -1.1263393248339734e-03 +0.0000000000000000e+00 +9.9999936567966163e-01
1.0999999999999977e+01 +9.0387484441128070e+00 +0.0000000000000000e+00 +1.0999997631375411e+01 -1.1366738266190743e-03 +0.0000000000000000e+00 +9.9999935398609741e-01
1.1099999999999977e+01 +9.0386342600032226e+00 +0.0000000000000000e+00 +1.1099997566184891e+01 -1.1470083725552127e-03 +0.0000000000000000e+00 +9.9999934218568043e-01
1.1199999999999976e+01 +9.0385190424367750e+00 +0.0000000000000000e+00 +1.1199997499808987e+01 -1.1573429641212134e-03 +0.0000000000000000e+00 +9.9999933027840759e-01
1.1299999999999976e+01 +9.0384027914088279e+00 +0.0000000000000000e+00 +1.1299997432237012e+01 -1.1676776027923256e-03 +0.0000000000000000e+00 +9.9999931826427579e-01
1.1399999999999975e+01 +9.0382855069145975e+00 +0.0000000000000000e+00 +1.1399997363458279e+01 -1.1780122900401984e-03 +0.0000000000000000e+00 +9.9999930614328170e-01
1.1499999999999975e+01 +9.0381671889491528e+00 +0.0000000000000000e+00 +1.1499997293462105e+01 -1.1883470273328551e-03 +0.0000000000000000e+00 +9.9999929391542219e-01
1.1599999999999975e+01 +9.0380478375074151e+00 +0.0000000000000000e+00 +1.1599997222237802e+01 -1.1986818161346660e-03 +0.0000000000000000e+00 +9.9999928158069396e-01
1.1699999999999974e+01 +9.0379274525841602e+00 +0.0000000000000000e+00 +1.1699997149774681e+01 -1.2090166579063215e-03 +0.0000000000000000e+00 +9.9999926913909354e-01
1.1799999999999974e+01 +9.0378060341740198e+00 +0.0000000000000000e+00 +1.1799997076062057e+01 -1.2193515541048050e-03 +0.0000000000000000e+00 +9.9999925659061761e-01
