# field on trajectory
# s[mm] rx[mm] ry[mm] rz[mm] bx[T] by[T] bz[T]
0.0000000000000000e+00 +9.1476323485342608e+00 +0.0000000000000000e+00 +0.0000000000000000e+00 +1.1087271679157526e-02 -1.0321677965391283e+00 -5.9473159347895370e-02
1.0000000000000001e-01 +9.1476318316365202e+00 +0.0000000000000000e+00 +9.9999999998218805e-02 +1.1087137918428089e-02 -1.0321705470090288e+00 -5.9475768954343103e-02
2.0000000000000001e-01 +9.1476302809427192e+00 +0.0000000000000000e+00 +1.9999999998574999e-01 +1.1087000089769887e-02 -1.0321731997543926e+00 -5.9478359063703100e-02
2.9999999999999999e-01 +9.1476276964536503e+00 +0.0000000000000000e+00 +2.9999999995190701e-01 +1.1086858375682613e-02 -1.0321757512612988e+00 -5.9480929588141794e-02
4.0000000000000002e-01 +9.1476240781675404e+00 +0.0000000000000000e+00 +3.9999999988600199e-01 +1.1086712958621292e-02 -1.0321781980163680e+00 -5.9483480439792284e-02
5.0000000000000000e-01 +9.1476194260861501e+00 +0.0000000000000000e+00 +4.9999999977734699e-01 +1.1086564020987837e-02 -1.0321805365067849e+00 -5.9486011530747292e-02
5.9999999999999998e-01 +9.1476137402094899e+00 +0.0000000000000000e+00 +5.9999999961525596e-01 +1.1086411769200001e-02 -1.0321827645469484e+00 -5.9488522695706557e-02
6.9999999999999996e-01 +9.1476070205357907e+00 +0.0000000000000000e+00 +6.9999999938904001e-01 +1.1086256505929511e-02 -1.0321848852582951e+00 -5.9491013459933184e-02
8.0000000000000004e-01 +9.1475992670650292e+00 +0.0000000000000000e+00 +7.9999999908801400e-01 +1.1086098557897467e-02 -1.0321869030895066e+00 -5.9493483271295208e-02
9.0000000000000002e-01 +9.1475904798007797e+00 +0.0000000000000000e+00 +8.9999999870148795e-01 +1.1085938251809688e-02 -1.0321888224899325e+00 -5.9495931577611100e-02
1.0000000000000000e+00 +9.1475806587394892e+00 +0.0000000000000000e+00 +9.9999999821877705e-01 +1.1085775914366445e-02 -1.0321906479096368e+00 -5.9498357826648467e-02
1.1000000000000001e+00 +9.1475698038829201e+00 +0.0000000000000000e+00 +1.0999999976291901e+00 +1.1085611872271594e-02 -1.0321923837993989e+00 -5.9500761466120280e-02
1.2000000000000000e+00 +9.1475579152292994e+00 +0.0000000000000000e+00 +1.1999999969220501e+00 +1.1085446452242225e-02 -1.0321940346107543e+00 -5.9503141943683467e-02
1.3000000000000000e+00 +9.1475449927804107e+00 +0.0000000000000000e+00 +1.2999999960866500e+00 +1.1085279981017982e-02 -1.0321956047960099e+00 -5.9505498706935965e-02
1.3999999999999999e+00 +9.1475310365362503e+00 +0.0000000000000000e+00 +1.3999999951123201e+00 +1.1085112785370601e-02 -1.0321970988082763e+00 -5.9507831203414747e-02
1.5000000000000000e+00 +9.1475160464950402e+00 +0.0000000000000000e+00 +1.4999999939883699e+00 +1.1084945192113406e-02 -1.0321985211014948e+00 -5.9510138880593623e-02
1.6000000000000001e+00 +9.1475000226585603e+00 +0.0000000000000000e+00 +1.5999999927041100e+00 +1.1084777528110584e-02 -1.0321998761304525e+00 -5.9512421185880147e-02
1.7000000000000000e+00 +9.1474829650268106e+00 +0.0000000000000000e+00 +1.6999999912488499e+00 +1.1084610120286813e-02 -1.0322011683508174e+00 -5.9514677566614028e-02
1.8000000000000000e+00 +9.1474648735980093e+00 +0.0000000000000000e+00 +1.7999999896119101e+00 +1.1084443295636678e-02 -1.0322024022191647e+00 -5.9516907470064648e-02
1.8999999999999999e+00 +9.1474457483739400e+00 +0.0000000000000000e+00 +1.8999999877825899e+00 +1.1084277381234006e-02 -1.0322035821929916e+00 -5.9519110343428182e-02
2.0000000000000000e+00 +9.1474255893528191e+00 +0.0000000000000000e+00 +1.9999999857502100e+00 +1.1084112704241486e-02 -1.0322047127307548e+00 -5.9521285633825971e-02
2.1000000000000001e+00 +9.1474043965364302e+00 +0.0000000000000000e+00 +2.0999999835040901e+00 +1.1083949591919953e-02 -1.0322057982918840e+00 -5.9523432788301446e-02
2.2000000000000002e+00 +9.1473821699247697e+00 +0.0000000000000000e+00 +2.1999999810335300e+00 +1.1083788371637957e-02 -1.0322068433368179e+00 -5.9525551253818337e-02
2.2999999999999998e+00 +9.1473589095160595e+00 +0.0000000000000000e+00 +2.2999999783278602e+00 +1.1083629370881230e-02 -1.0322078523270291e+00 -5.9527640477258406e-02
2.3999999999999999e+00 +9.1473346153120794e+00 +0.0000000000000000e+00 +2.3999999753763701e+00 +1.1083472917261982e-02 -1.0322088297250369e+00 -5.9529699905418260e-02
2.5000000000000000e+00 +9.1473092873128206e+00 +0.0000000000000000e+00 +2.4999999721683901e+00 +1.1083319338528496e-02 -1.0322097799944472e+00 -5.9531728985007908e-02
2.6000000000000001e+00 +9.1472829255165191e+00 +0.0000000000000000e+00 +2.5999999686932198e+00 +1.1083168854555516e-02 -1.0322107069965896e+00 -5.9533727053854041e-02
2.7000000000000002e+00 +9.1472555299249496e+00 +0.0000000000000000e+00 +2.6999999649401798e+00 +1.1083021253230185e-02 -1.0322116121799696e+00 -5.9535693014540932e-02
2.7999999999999998e+00 +9.1472271005398795e+00 +0.0000000000000000e+00 +2.7999999608985902e+00 +1.1082876214395472e-02 -1.0322124963896915e+00 -5.9537625660841247e-02
2.8999999999999999e+00 +9.1471976373559905e+00 +0.0000000000000000e+00 +2.8999999565577501e+00 +1.1082733417844938e-02 -1.0322133604706705e+00 -5.9539523786522851e-02
3.0000000000000000e+00 +9.1471671403768209e+00 +0.0000000000000000e+00 +2.9999999519069700e+00 +1.1082592543313128e-02 -1.0322142052675125e+00 -5.9541386185351937e-02
3.1000000000000001e+00 +9.1471356096023904e+00 +0.0000000000000000e+00 +3.0999999469355801e+00 +1.1082453270466731e-02 -1.0322150316244467e+00 -5.9543211651099784e-02
3.2000000000000002e+00 +9.1471030450308994e+00 +0.0000000000000000e+00 +3.1999999416328699e+00 +1.1082315278895378e-02 -1.0322158403852355e+00 -5.9544998977547774e-02
3.2999999999999998e+00 +9.1470694466641493e+00 +0.0000000000000000e+00 +3.2999999359881800e+00 +1.1082178248102323e-02 -1.0322166323930697e+00 -5.9546746958491888e-02
3.3999999999999999e+00 +9.1470348145021205e+00 +0.0000000000000000e+00 +3.3999999299908001e+00 +1.1082041857495419e-02 -1.0322174084904923e+00 -5.9548454387748556e-02
3.5000000000000000e+00 +9.1469991485430509e+00 +0.0000000000000000e+00 +3.4999999236300501e+00 +1.1081905786377961e-02 -1.0322181695193071e+00 -5.9550120059159897e-02
3.6000000000000001e+00 +9.1469624487887007e+00 +0.0000000000000000e+00 +3.5999999168952499e+00 +1.1081769713939347e-02 -1.0322189163204774e+00 -5.9551742766598179e-02
3.7000000000000002e+00 +9.1469247152390807e+00 +0.0000000000000000e+00 +3.6999999097757001e+00 +1.1081633319246081e-02 -1.0322196497340483e+00 -5.9553321303971743e-02
3.7999999999999998e+00 +9.1468859478924092e+00 +0.0000000000000000e+00 +3.7999999022607200e+00 +1.1081496281232620e-02 -1.0322203705990565e+00 -5.9554854465230192e-02
3.8999999999999999e+00 +9.1468461467522495e+00 +0.0000000000000000e+00 +3.8999998943396199e+00 +1.1081358278691954e-02 -1.0322210797534224e+00 -5.9556341044368612e-02
4.0000000000000000e+00 +9.1468053118132708e+00 +0.0000000000000000e+00 +3.9999998860017101e+00 +1.1081218990266916e-02 -1.0322217780338949e+00 -5.9557779835434657e-02
4.0999999999999996e+00 +9.1467634430807898e+00 +0.0000000000000000e+00 +4.0999998772363098e+00 +1.1081078094440382e-02 -1.0322224662759150e+00 -5.9559169632531238e-02
4.2000000000000002e+00 +9.1467205405512608e+00 +0.0000000000000000e+00 +4.1999998680327302e+00 +1.1080935269526736e-02 -1.0322231453135717e+00 -5.9560509229824081e-02
4.2999999999999998e+00 +9.1466766042264602e+00 +0.0000000000000000e+00 +4.2999998583802803e+00 +1.1080790193662250e-02 -1.0322238159794790e+00 -5.9561797421545298e-02
4.4000000000000004e+00 +9.1466316341046099e+00 +0.0000000000000000e+00 +4.3999998482682798e+00 +1.1080642544796191e-02 -1.0322244791047039e+00 -5.9563033001999596e-02
4.5000000000000000e+00 +9.1465856301892607e+00 +0.0000000000000000e+00 +4.4999998376860297e+00 +1.1080492000681414e-02 -1.0322251355186614e+00 -5.9564214765568363e-02
4.5999999999999996e+00 +9.1465385924768707e+00 +0.0000000000000000e+00 +4.5999998266228497e+00 +1.1080338370377370e-02 -1.0322257869143332e+00 -5.9565341667409601e-02
4.7000000000000002e+00 +9.1464905209674292e+00 +0.0000000000000000e+00 +4.6999998150680504e+00 +1.1080181988892893e-02 -1.0322264384449829e+00 -5.9566413305519227e-02
4.7999999999999998e+00 +9.1464414156644995e+00 +0.0000000000000000e+00 +4.7999998030109499e+00 +1.1080023322848256e-02 -1.0322270961299138e+00 -5.9567429438608696e-02
4.9000000000000004e+00 +9.1463912765645095e+00 +0.0000000000000000e+00 +4.8999997904408596e+00 +1.1079862838999217e-02 -1.0322277659894827e+00 -5.9568389825406513e-02
5.0000000000000000e+00 +9.1463401036692602e+00 +0.0000000000000000e+00 +4.9999997773470897e+00 +1.1079701004245872e-02 -1.0322284540451387e+00 -5.9569294224657690e-02
5.0999999999999996e+00 +9.1462878969787305e+00 +0.0000000000000000e+00 +5.0999997637189498e+00 +1.1079538285642152e-02 -1.0322291663194980e+00 -5.9570142395125744e-02
5.2000000000000002e+00 +9.1462346564911599e+00 +0.0000000000000000e+00 +5.1999997495457499e+00 +1.1079375150405035e-02 -1.0322299088364080e+00 -5.9570934095593851e-02
5.2999999999999998e+00 +9.1461803822083105e+00 +0.0000000000000000e+00 +5.2999997348168204e+00 +1.1079212065923622e-02 -1.0322306876209955e+00 -5.9571669084865289e-02
5.4000000000000004e+00 +9.1461250741284204e+00 +0.0000000000000000e+00 +5.3999997195214604e+00 +1.1079049499768632e-02 -1.0322315086997464e+00 -5.9572347121765269e-02
5.5000000000000000e+00 +9.1460687322550296e+00 +0.0000000000000000e+00 +5.4999997036489701e+00 +1.1078887919701309e-02 -1.0322323781005460e+00 -5.9572967965141131e-02
5.5999999999999996e+00 +9.1460113565845909e+00 +0.0000000000000000e+00 +5.5999996871886903e+00 +1.1078727793683112e-02 -1.0322333018527705e+00 -5.9573531373864799e-02
5.7000000000000002e+00 +9.1459529471188894e+00 +0.0000000000000000e+00 +5.6999996701299196e+00 +1.1078569589884528e-02 -1.0322342859873204e+00 -5.9574037106832470e-02
5.7999999999999998e+00 +9.1458935038561293e+00 +0.0000000000000000e+00 +5.7999996524619597e+00 +1.1078413776694601e-02 -1.0322353365367005e+00 -5.9574484922966700e-02
5.9000000000000004e+00 +9.1458330267980994e+00 +0.0000000000000000e+00 +5.8999996341741401e+00 +1.1078260822729955e-02 -1.0322364595350690e+00 -5.9574874581216693e-02
6.0000000000000000e+00 +9.1457715159465796e+00 +0.0000000000000000e+00 +5.9999996152557697e+00 +1.1078111196844136e-02 -1.0322376610183062e+00 -5.9575205840559871e-02
6.0999999999999996e+00 +9.1457089712962301e+00 +0.0000000000000000e+00 +6.0999995956961603e+00 +1.1077965368137075e-02 -1.0322389470240894e+00 -5.9575478460003668e-02
6.2000000000000002e+00 +9.1456453928523906e+00 +0.0000000000000000e+00 +6.1999995754846200e+00 +1.1077823805963784e-02 -1.0322403235919204e+00 -5.9575692198584683e-02
6.2999999999999998e+00 +9.1455807806132707e+00 +0.0000000000000000e+00 +6.2999995546104604e+00 +1.1077686979944124e-02 -1.0322417967632225e+00 -5.9575846815371751e-02
6.4000000000000004e+00 +9.1455151345771100e+00 +0.0000000000000000e+00 +6.3999995330630002e+00 +1.1077555359971855e-02 -1.0322433725813878e+00 -5.9575942069466301e-02
6.5000000000000000e+00 +9.1454484547456794e+00 +0.0000000000000000e+00 +6.4999995108315600e+00 +1.1077429416223724e-02 -1.0322450570918309e+00 -5.9575977720002879e-02
6.5999999999999996e+00 +9.1453807411171901e+00 +0.0000000000000000e+00 +6.5999994879054302e+00 +1.1077309456419345e-02 -1.0322468543902248e+00 -5.9575953443180424e-02
6.7000000000000002e+00 +9.1453119936934399e+00 +0.0000000000000000e+00 +6.6999994642739402e+00 +1.1077195137387376e-02 -1.0322487607665540e+00 -5.9575868583316698e-02
6.7999999999999998e+00 +9.1452422124761892e+00 +0.0000000000000000e+00 +6.7999994399263999e+00 +1.1077085952996380e-02 -1.0322507705601596e+00 -5.9575722401714666e-02
6.9000000000000004e+00 +9.1451713974618905e+00 +0.0000000000000000e+00 +6.8999994148521200e+00 +1.1076981396852786e-02 -1.0322528781115907e+00 -5.9575514159627571e-02
7.0000000000000000e+00 +9.1450995486523308e+00 +0.0000000000000000e+00 +6.9999993890404202e+00 +1.1076880962288970e-02 -1.0322550777626054e+00 -5.9575243118255634e-02
7.0999999999999996e+00 +9.1450266660474906e+00 +0.0000000000000000e+00 +7.0999993624805997e+00 +1.1076784142351921e-02 -1.0322573638562114e+00 -5.9574908538744885e-02
7.2000000000000002e+00 +9.1449527496438208e+00 +0.0000000000000000e+00 +7.1999993351619702e+00 +1.1076690429791718e-02 -1.0322597307366888e+00 -5.9574509682185250e-02
7.2999999999999998e+00 +9.1448777994484391e+00 +0.0000000000000000e+00 +7.2999993070738700e+00 +1.1076599317049553e-02 -1.0322621727495906e+00 -5.9574045809606964e-02
7.4000000000000004e+00 +9.1448018154560096e+00 +0.0000000000000000e+00 +7.3999992782055797e+00 +1.1076510296246836e-02 -1.0322646842418093e+00 -5.9573516181981145e-02
7.5000000000000000e+00 +9.1447247976682995e+00 +0.0000000000000000e+00 +7.4999992485464304e+00 +1.1076422859173067e-02 -1.0322672595615623e+00 -5.9572920060215542e-02
7.5999999999999996e+00 +9.1446467460835503e+00 +0.0000000000000000e+00 +7.5999992180857303e+00 +1.1076336497274580e-02 -1.0322698930584384e+00 -5.9572256705153724e-02
7.7000000000000002e+00 +9.1445676607035296e+00 +0.0000000000000000e+00 +7.6999991868127999e+00 +1.1076250701642736e-02 -1.0322725790834046e+00 -5.9571525377572182e-02
7.7999999999999998e+00 +9.1444875415300100e+00 +0.0000000000000000e+00 +7.7999991547169403e+00 +1.1076164963002505e-02 -1.0322753119888410e+00 -5.9570725338178893e-02
7.9000000000000004e+00 +9.1444063885594495e+00 +0.0000000000000000e+00 +7.8999991217874603e+00 +1.1076078771701027e-02 -1.0322780861285716e+00 -5.9569855847611625e-02
8.0000000000000000e+00 +9.1443242017936104e+00 +0.0000000000000000e+00 +7.9999990880136904e+00 +1.1075991617695742e-02 -1.0322808958578706e+00 -5.9568916166435004e-02
8.0999999999999996e+00 +9.1442409812307197e+00 +0.0000000000000000e+00 +8.0999990533849306e+00 +1.1075902990543068e-02 -1.0322837355335004e+00 -5.9567905555139279e-02
8.1999999999999993e+00 +9.1441567268743391e+00 +0.0000000000000000e+00 +8.1999990178904891e+00 +1.1075812379386566e-02 -1.0322865995137207e+00 -5.9566823274137468e-02
8.3000000000000007e+00 +9.1440714387209105e+00 +0.0000000000000000e+00 +8.2999989815196997e+00 +1.1075719272945775e-02 -1.0322894821583366e+00 -5.9565668583764553e-02
8.4000000000000004e+00 +9.1439851167722104e+00 +0.0000000000000000e+00 +8.3999989442618492e+00 +1.1075623159504206e-02 -1.0322923778286990e+00 -5.9564440744274291e-02
8.5000000000000000e+00 +9.1438977610300203e+00 +0.0000000000000000e+00 +8.4999989061062706e+00 +1.1075523526897991e-02 -1.0322952808877361e+00 -5.9563139015837673e-02
8.5999999999999996e+00 +9.1438093714890005e+00 +0.0000000000000000e+00 +8.5999988670422596e+00 +1.1075420039407237e-02 -1.0322981860005143e+00 -5.9561762995442101e-02
8.6999999999999993e+00 +9.1437199481544802e+00 +0.0000000000000000e+00 +8.6999988270591402e+00 +1.1075313068733798e-02 -1.0323010890350677e+00 -5.9560313627714891e-02
8.8000000000000007e+00 +9.1436294910247007e+00 +0.0000000000000000e+00 +8.7999987861462294e+00 +1.1075203163733050e-02 -1.0323039861595535e+00 -5.9558792194347523e-02
8.9000000000000004e+00 +9.1435380000978608e+00 +0.0000000000000000e+00 +8.8999987442928301e+00 +1.1075090873573664e-02 -1.0323068735414762e+00 -5.9557199977197738e-02
9.0000000000000000e+00 +9.1434454753775292e+00 +0.0000000000000000e+00 +8.9999987014882503e+00 +1.1074976747748324e-02 -1.0323097473476326e+00 -5.9555538258294016e-02
9.0999999999999996e+00 +9.1433519168619295e+00 +0.0000000000000000e+00 +9.0999986577218195e+00 +1.1074861336084953e-02 -1.0323126037440968e+00 -5.9553808319841882e-02
9.1999999999999993e+00 +9.1432573245492801e+00 +0.0000000000000000e+00 +9.1999986129828297e+00 +1.1074745188757416e-02 -1.0323154388961659e+00 -5.9552011444228371e-02
9.3000000000000007e+00 +9.1431616984413608e+00 +0.0000000000000000e+00 +9.2999985672606194e+00 +1.1074628856296266e-02 -1.0323182489683138e+00 -5.9550148914026893e-02
9.4000000000000004e+00 +9.1430650385381700e+00 +0.0000000000000000e+00 +9.3999985205444805e+00 +1.1074512889599812e-02 -1.0323210301241597e+00 -5.9548222012002716e-02
9.5000000000000000e+00 +9.1429673448397004e+00 +0.0000000000000000e+00 +9.4999984728237195e+00 +1.1074397839944936e-02 -1.0323237785264252e+00 -5.9546232021118042e-02
9.5999999999999996e+00 +9.1428686173459699e+00 +0.0000000000000000e+00 +9.5999984240876799e+00 +1.1074284258997978e-02 -1.0323264903368929e+00 -5.9544180224537030e-02
9.6999999999999993e+00 +9.1427688560551807e+00 +0.0000000000000000e+00 +9.6999983743256504e+00 +1.1074172698825680e-02 -1.0323291617163697e+00 -5.9542067905631074e-02
9.8000000000000007e+00 +9.1426680609726798e+00 +0.0000000000000000e+00 +9.7999983235269408e+00 +1.1074063711905783e-02 -1.0323317888246268e+00 -5.9539896347983047e-02
9.9000000000000004e+00 +9.1425662320913492e+00 +0.0000000000000000e+00 +9.8999982716808805e+00 +1.1073957851138544e-02 -1.0323343678204029e+00 -5.9537666835394451e-02
1.0000000000000000e+01 +9.1424633694165305e+00 +0.0000000000000000e+00 +9.9999982187767706e+00 +1.1073855669856809e-02 -1.0323368948613076e+00 -5.9535380651887772e-02
1.0100000000000000e+01 +9.1423594729446602e+00 +0.0000000000000000e+00 +1.0099998164803900e+01 +1.1073757721837630e-02 -1.0323393661038269e+00 -5.9533039081714069e-02
1.0199999999999999e+01 +9.1422545426793000e+00 +0.0000000000000000e+00 +1.0199998109751700e+01 +1.1073664561312585e-02 -1.0323417777032513e+00 -5.9530643409356127e-02
1.0300000000000001e+01 +9.1421485786168795e+00 +0.0000000000000000e+00 +1.0299998053609301e+01 +1.1073576742979194e-02 -1.0323441258136623e+00 -5.9528194919535260e-02
1.0400000000000000e+01 +9.1420415807609707e+00 +0.0000000000000000e+00 +1.0399997996366100e+01 +1.1073494822011306e-02 -1.0323464065878638e+00 -5.9525694897214869e-02
1.0500000000000000e+01 +9.1419335491080194e+00 +0.0000000000000000e+00 +1.0499997938011500e+01 +1.1073419354070474e-02 -1.0323486161773696e+00 -5.9523144627606973e-02
1.0600000000000000e+01 +9.1418244836597893e+00 +0.0000000000000000e+00 +1.0599997878534600e+01 +1.1073350722286461e-02 -1.0323507517209523e+00 -5.9520545330140777e-02
1.0699999999999999e+01 +9.1417143844180693e+00 +0.0000000000000000e+00 +1.0699997817925000e+01 +1.1073288617846495e-02 -1.0323528143112046e+00 -5.9517897960282812e-02
1.0800000000000001e+01 +9.1416032513792906e+00 +0.0000000000000000e+00 +1.0799997756171701e+01 +1.1073232558602836e-02 -1.0323548060294592e+00 -5.9515203407544078e-02
1.0900000000000000e+01 +9.1414910845470292e+00 +0.0000000000000000e+00 +1.0899997693264300e+01 +1.1073182062042993e-02 -1.0323567289571460e+00 -5.9512462561507141e-02
1.1000000000000000e+01 +9.1413778839177091e+00 +0.0000000000000000e+00 +1.0999997629191901e+01 +1.1073136645280693e-02 -1.0323585851758199e+00 -5.9509676311828442e-02
1.1100000000000000e+01 +9.1412636494931299e+00 +0.0000000000000000e+00 +1.1099997563943900e+01 +1.1073095825045913e-02 -1.0323603767671250e+00 -5.9506845548237521e-02
1.1199999999999999e+01 +9.1411483812750394e+00 +0.0000000000000000e+00 +1.1199997497509599e+01 +1.1073059117675563e-02 -1.0323621058128034e+00 -5.9503971160538092e-02
1.1300000000000001e+01 +9.1410320792599205e+00 +0.0000000000000000e+00 +1.1299997429878401e+01 +1.1073026039104103e-02 -1.0323637743947018e+00 -5.9501054038609419e-02
1.1400000000000000e+01 +9.1409147434512903e+00 +0.0000000000000000e+00 +1.1399997361039500e+01 +1.1072996104853615e-02 -1.0323653845947367e+00 -5.9498095072405527e-02
1.1500000000000000e+01 +9.1407963738456193e+00 +0.0000000000000000e+00 +1.1499997290982201e+01 +1.1072968830024732e-02 -1.0323669384949212e+00 -5.9495095151957257e-02
1.1600000000000000e+01 +9.1406769704464494e+00 +0.0000000000000000e+00 +1.1599997219695799e+01 +1.1072943729286615e-02 -1.0323684381773295e+00 -5.9492055167371501e-02
1.1699999999999999e+01 +9.1405565332520098e+00 +0.0000000000000000e+00 +1.1699997147169800e+01 +1.1072920316867865e-02 -1.0323698857241179e+00 -5.9488976008833051e-02
1.1800000000000001e+01 +9.1404350622623003e+00 +0.0000000000000000e+00 +1.1799997073393300e+01 +1.1072898106546707e-02 -1.0323712832175016e+00 -5.9485858566604467e-02
