# multipoles
# s[mm] polynom_b[n=0][T/m^n] polynom_b[n=1][T/m^n] polynom_b[n=2][T/m^n] polynom_b[n=3][T/m^n] polynom_b[n=4][T/m^n] polynom_b[n=5][T/m^n] polynom_b[n=6][T/m^n] 
-0.0000000000000000e+00 -1.0335289217136474e+00 +2.2699157534573260e+00 +2.0259868435417573e+01 +5.5234178241737436e+02 +6.7596312449990746e+03 -2.7343309013347849e+06 +1.0251518735983968e+07 
-1.0005104645227200e-01 -1.0335288875387740e+00 +2.2692220699995680e+00 +2.0259554854297345e+01 +5.6994244418007781e+02 +6.4135252116724369e+03 -2.8319968606466674e+06 +1.3612076536437877e+07 
-2.0010209290454301e-01 -1.0335287947491938e+00 +2.2685090227295017e+00 +2.0255289626981675e+01 +5.8825022675074206e+02 +6.1138235896958004e+03 -2.9340026245506629e+06 +1.6852857108024824e+07 
-3.0015313935681498e-01 -1.0335286358072362e+00 +2.2677793689600079e+00 +2.0246879542682958e+01 +6.0717131004921623e+02 +5.8652851981678523e+03 -3.0398050321052666e+06 +1.9945852032702081e+07 
-4.0020418580908601e-01 -1.0335284031751162e+00 +2.2670358660865486e+00 +2.0234131372166885e+01 +6.2661187141463631e+02 +5.6726692019337415e+03 -3.1488609068252193e+06 +2.2863051348691452e+07 
-5.0025523226135804e-01 -1.0335280893149337e+00 +2.2662812715937100e+00 +2.0216851868351419e+01 +6.4647808541437064e+02 +5.5407351180101432e+03 -3.2606270554692503e+06 +2.5576443449789245e+07 
-6.0030627871362996e-01 -1.0335276866886822e+00 +2.2655183430320838e+00 +2.0194847769720809e+01 +6.6667612456970414e+02 +5.4742427555746408e+03 -3.3745602723272252e+06 +2.8058015336784914e+07 
-7.0035732516590099e-01 -1.0335271877584000e+00 +2.2647498380286155e+00 +2.0167925817916732e+01 +6.8711215903677714e+02 +5.4779518830228590e+03 -3.4901173372700550e+06 +3.0279754174000241e+07 
-8.0040837161817302e-01 -1.0335265849861288e+00 +2.2639785142781959e+00 +2.0135892751736929e+01 +7.0769235690244579e+02 +5.5566223607504608e+03 -3.6067550175432176e+06 +3.2213646586223088e+07 
-9.0045941807044405e-01 -1.0335258708339774e+00 +2.2632071295279319e+00 +2.0098555318212355e+01 +7.2832288465186400e+02 +5.7150139350007476e+03 -3.7239300704148584e+06 +3.3831679604739211e+07 
-1.0005104645227201e+00 -1.0335250377642105e+00 +2.2624384415871197e+00 +2.0055720282680763e+01 +7.4890990689639432e+02 +5.9578860545046000e+03 -3.8410992415871909e+06 +3.5105841493246131e+07 
-1.1005615109749900e+00 -1.0335240782392268e+00 +2.2616752083181408e+00 +2.0007194427490166e+01 +7.6935958666467195e+02 +6.2899978985376656e+03 -3.9577192668880741e+06 +3.6008121587528378e+07 
-1.2006125574272599e+00 -1.0335229847216802e+00 +2.2609201876266241e+00 +1.9952784564005498e+01 +7.8957808570496252e+02 +6.7161081703015561e+03 -4.0732468740320718e+06 +3.6510511194156565e+07 
-1.3006636038795301e+00 -1.0335217496744238e+00 +2.2601761374560652e+00 +1.9892297531449024e+01 +8.0947156467047705e+02 +7.2409751137569756e+03 -4.1871387836502218e+06 +3.6585003502720617e+07 
-1.4007146503318000e+00 -1.0335203655607113e+00 +2.2594458157921542e+00 +1.9825540217293753e+01 +8.2894618300151114e+02 +7.8693561428493904e+03 -4.2988517086152304e+06 +3.6203595282954916e+07 
-1.5007656967840699e+00 -1.0335188248440439e+00 +2.2587319806520583e+00 +1.9752319542083018e+01 +8.4790809924959899e+02 +8.6060081365570677e+03 -4.4078423558339141e+06 +3.5338285443077542e+07 
-1.6008167432363500e+00 -1.0335171231157989e+00 +2.2580366815951884e+00 +1.9672537620771937e+01 +8.6628370608477235e+02 +9.4539863566810945e+03 -4.5136729274592698e+06 +3.3969366832140826e+07 
-1.7008677896886200e+00 -1.0335152681479076e+00 +2.2573592146308004e+00 +1.9586474870731863e+01 +8.8407922402809322e+02 +1.0409459355295201e+04 -4.6163233090796936e+06 +3.2110820064666439e+07 
-1.8009188361408901e+00 -1.0335132706771624e+00 +2.2566982064680032e+00 +1.9494505671565435e+01 +9.0132057208212768e+02 +1.1466854120555277e+04 -4.7158768061973723e+06 +2.9785174914175682e+07 
-1.9009698825931600e+00 -1.0335111414404272e+00 +2.2560522838034358e+00 +1.9397004419551173e+01 +9.1803366967298859e+02 +1.2620597280194410e+04 -4.8124167269244213e+06 +2.7014962878158465e+07 
-2.0010209290454299e+00 -1.0335088911745864e+00 +2.2554200733068548e+00 +1.9294345523219956e+01 +9.3424443711059678e+02 +1.3865115168703971e+04 -4.9060263848563004e+06 +2.3822716903607439e+07 
-2.1010719754977001e+00 -1.0335065306166713e+00 +2.2548002016130879e+00 +1.9186903418521517e+01 +9.4997879580095969e+02 +1.5194833524905631e+04 -4.9967891003286652e+06 +2.0230972858070496e+07 
-2.2011230219499698e+00 -1.0335040705036518e+00 +2.2541912953152790e+00 +1.9075052545818167e+01 +9.6526266848668160e+02 +1.6604177923279149e+04 -5.0847882019740073e+06 +1.6262267488274677e+07 
-2.3011740684022501e+00 -1.0335015215725578e+00 +2.2535919809522569e+00 +1.8959167365546932e+01 +9.8012197961171216e+02 +1.8087573456745245e+04 -5.1701070289266622e+06 +1.1939139978858305e+07 
-2.4012251148545198e+00 -1.0334988945604253e+00 +2.2530008850094414e+00 +1.8839622350971364e+01 +9.9458265531546556e+02 +1.9639444866843012e+04 -5.2528289309164891e+06 +7.2841313464342169e+06 
-2.5012761613067900e+00 -1.0334962002043162e+00 +2.2524166338994704e+00 +1.8716791993430231e+01 +1.0086706240058576e+03 +2.1254216421439647e+04 -5.3330372716937950e+06 +2.3197850816035876e+06 
-2.6013272077590601e+00 -1.0334934492412615e+00 +2.2518378539557866e+00 +1.8591050797311897e+01 +1.0224118165727790e+03 +2.2926312007935860e+04 -5.4108154303942099e+06 -2.9313532986068195e+06 
-2.7013782542113298e+00 -1.0334906524082310e+00 +2.2512631714315603e+00 +1.8462773274163311e+01 +1.0358321664111538e+03 +2.4650155226612434e+04 -5.4862468017519964e+06 -8.4467366444077194e+06 
-2.8014293006636000e+00 -1.0334878204422482e+00 +2.2506912124839462e+00 +1.8332333961011550e+01 +1.0489576099150365e+03 +2.6420169027788052e+04 -5.5594147991213491e+06 -1.4203814414570976e+07 
-2.9014803471158799e+00 -1.0334849640801995e+00 +2.2501206031659899e+00 +1.8200107395821540e+01 +1.0618140867151974e+03 +2.8230776171966518e+04 -5.6304028559399331e+06 -2.0180034853251528e+07 
-3.0015313935681500e+00 -1.0334820940589422e+00 +2.2495499694233310e+00 +1.8066468132862880e+01 +1.0744275397870106e+03 +3.0076398919148767e+04 -5.6992944264510954e+06 -2.6352843465070389e+07 
-3.1015824400204202e+00 -1.0334792211152737e+00 +2.2489779370787280e+00 +1.7931790740972300e+01 +1.0868239159337390e+03 +3.1951459046252701e+04 -5.7661729886849588e+06 -3.2699683062202260e+07 
-3.2016334864726899e+00 -1.0334763559859150e+00 +2.2484031318265023e+00 +1.7796449799718516e+01 +1.0990291659341694e+03 +3.3850377914297009e+04 -5.8311220453502154e+06 -3.9197994071735427e+07 
-3.3016845329249600e+00 -1.0334735094074490e+00 +2.2478241792285991e+00 +1.7660819894898225e+01 +1.1110692446866640e+03 +3.5767576535745873e+04 -5.8942251248176629e+06 -4.5825214812191889e+07 
-3.4017355793772301e+00 -1.0334706921163885e+00 +2.2472397046979911e+00 +1.7525275628572384e+01 +1.1229701117137399e+03 +3.7697475376480324e+04 -5.9555657841623435e+06 -5.2558780537257932e+07 
-3.5017866258295101e+00 -1.0334679148490726e+00 +2.2466483334951470e+00 +1.7390191608792360e+01 +1.1347577317800985e+03 +3.9634494573579192e+04 -6.0152276143155396e+06 -5.9376124597829655e+07 
-3.6018376722817802e+00 -1.0334651866135838e+00 +2.2460494543814762e+00 +1.7255870074853430e+01 +1.1464452039578046e+03 +4.1574504436637348e+04 -6.0732498096404355e+06 -6.6261893471121997e+07 
-3.7018887187340499e+00 -1.0334625100427184e+00 +2.2454453586894285e+00 +1.7122332601279020e+01 +1.1579951410853305e+03 +4.3518904393531935e+04 -6.1294929360061735e+06 -7.3227458863588467e+07 
-3.8019397651863200e+00 -1.0334598862996107e+00 +2.2448390273237657e+00 +1.6989532589954660e+01 +1.1693578296375090e+03 +4.5470418497784667e+04 -6.1837732436748305e+06 -8.0290415639929101e+07 
-3.9019908116385902e+00 -1.0334573165479504e+00 +2.2442334410988023e+00 +1.6857423488541297e+01 +1.1804835580788845e+03 +4.7431770111600803e+04 -6.2359069915196644e+06 -8.7468355764175326e+07 
-4.0020418580908599e+00 -1.0334548019520158e+00 +2.2436315807462242e+00 +1.6725958795446267e+01 +1.1913226165788210e+03 +4.9405681824045627e+04 -6.2857104449777044e+06 -9.4778867936828315e+07 
-4.1020929045431300e+00 -1.0334523436767389e+00 +2.2430364269039367e+00 +1.6595092063657987e+01 +1.2018252972809062e+03 +5.1394875404144514e+04 -6.3329998773942804e+06 -1.0223953743097740e+08 
-4.2021439509954099e+00 -1.0334499428876556e+00 +2.2424509601257618e+00 +1.6464776891984126e+01 +1.2119418939759271e+03 +5.3402071977315070e+04 -6.3775915679047685e+06 -1.0986794694343889e+08 
-4.3021949974476801e+00 -1.0334476007510136e+00 +2.2418781608654634e+00 +1.6334966937747744e+01 +1.2216227025126793e+03 +5.5429991803670069e+04 -6.4193018035642458e+06 -1.1768167558131731e+08 
-4.4022460438999502e+00 -1.0334453184337919e+00 +2.2413210094822666e+00 +1.6205615915986730e+01 +1.2308180205923713e+03 +5.7481354311232892e+04 -6.4579468779353462e+06 -1.2569829905487600e+08 
-4.5022970903522204e+00 -1.0334430971037334e+00 +2.2407824862398042e+00 +1.6076677603730644e+01 +1.2394781477696979e+03 +5.9558878031525652e+04 -6.4933430908941645e+06 -1.3393538940314461e+08 
-4.6023481368044896e+00 -1.0334409379293066e+00 +2.2402655713005144e+00 +1.5948105828117869e+01 +1.2475533855156091e+03 +6.1665280843929591e+04 -6.5253067486716760e+06 -1.4241051619346404e+08 
-4.7023991832567598e+00 -1.0334388420798974e+00 +2.2397732447279517e+00 +1.5819854494070830e+01 +1.2549940371591599e+03 +6.3803279461578968e+04 -6.5536541633854723e+06 -1.5114124409421203e+08 
-4.8024502297090397e+00 -1.0334368107256726e+00 +2.2393084864749326e+00 +1.5691877560529006e+01 +1.2617504081398008e+03 +6.5975589908001042e+04 -6.5782016541906558e+06 -1.6014513519795802e+08 
-4.9025012761613098e+00 -1.0334348450377269e+00 +2.2388742763966132e+00 +1.5564129058545923e+01 +1.2677728056095191e+03 +6.8184927183027758e+04 -6.5987655448134970e+06 -1.6943974744298938e+08 
-5.0025523226135800e+00 -1.0334329461880460e+00 +2.2384735942323508e+00 +1.5436563085907993e+01 +1.2730115388888314e+03 +7.0434005388059857e+04 -6.6151621658810377e+06 -1.7904263526012492e+08 
-5.1026033690658501e+00 -1.0334311153495801e+00 +2.2381094196191582e+00 +1.5309133810858413e+01 +1.2774169190349023e+03 +7.2725537670124904e+04 -6.6272078522389894e+06 -1.8897134933275682e+08 
-5.2026544155181202e+00 -1.0334293536962855e+00 +2.2377847320708892e+00 +1.5181795478266526e+01 +1.2809392594073925e+03 +7.5062236120510061e+04 -6.6347189460068727e+06 -1.9924343614387527e+08 
-5.3027054619703904e+00 -1.0334276624031249e+00 +2.2375025109979463e+00 +1.5054502404333762e+01 +1.2835288750171892e+03 +7.7446811896183586e+04 -6.6375117925010957e+06 -2.0987643859907186e+08 
-5.4027565084226703e+00 -1.0334260426461088e+00 +2.2372657356889283e+00 +1.4927208983974861e+01 +1.2851360830561143e+03 +7.9881975089273677e+04 -6.6354027431744449e+06 -2.2088789541263241e+08 
-5.5028075548749404e+00 -1.0334244956024621e+00 +2.2370773854196426e+00 +1.4799869716746437e+01 +1.2857111984308474e+03 +8.2370434042745415e+04 -6.6282081229015607e+06 -2.3229533692501956e+08 
-5.6028586013272097e+00 -1.0334230217350389e+00 +2.2369398023892688e+00 +1.4672576110597642e+01 +1.2852148317214851e+03 +8.4911522229805472e+04 -6.6157763135894174e+06 -2.4409851066138822e+08 
-5.7029096477794798e+00 -1.0334216184723439e+00 +2.2368526535818289e+00 +1.4545908720979373e+01 +1.2836543718637515e+03 +8.7492601563356948e+04 -6.5981249942911267e+06 -2.5623504473669377e+08 
-5.8029606942317500e+00 -1.0334202824569823e+00 +2.2368149153473600e+00 +1.4420559034297039e+01 +1.2810499022485171e+03 +9.0098337702846562e+04 -6.5753215085585117e+06 -2.6862879693271965e+08 
-5.9030117406840201e+00 -1.0334190103317935e+00 +2.2368255638772689e+00 +1.4297218574000343e+01 +1.2774215126243937e+03 +9.2713395435572020e+04 -6.5474332422040226e+06 -2.8120362039658892e+08 
-6.0030627871363000e+00 -1.0334177987398723e+00 +2.2368835752013272e+00 +1.4176578902291038e+01 +1.2727892993080195e+03 +9.5322438639282715e+04 -6.5145276250536023e+06 -2.9388336344250441e+08 
-6.1031138335885702e+00 -1.0334166443245185e+00 +2.2369879251824214e+00 +1.4059331616628297e+01 +1.2671733654239310e+03 +9.7910130332223212e+04 -6.4766721326415390e+06 -3.0659186974254000e+08 
-6.2031648800408403e+00 -1.0334155437292367e+00 +2.2371375895207986e+00 +1.3946168349523283e+01 +1.2605938208744119e+03 +1.0046113266732919e+05 -6.4339342863524277e+06 -3.1925297827312213e+08 
-6.3032159264931096e+00 -1.0334144935977718e+00 +2.2373315437392263e+00 +1.3837780774299738e+01 +1.2530707828670629e+03 +1.0296010681235018e+05 -6.3863816568180574e+06 -3.3179052271729201e+08 
-6.4032669729453797e+00 -1.0334134905740300e+00 +2.2375687631899916e+00 +1.3734860596402537e+01 +1.2446243758022861e+03 +1.0539171310067682e+05 -6.3340818635799987e+06 -3.4412833214113343e+08 
-6.5033180193976499e+00 -1.0334125313021416e+00 +2.2378482230421457e+00 +1.3638099559786218e+01 +1.2352747317345204e+03 +1.0774061090356631e+05 -6.2771025780989816e+06 -3.5619023037035549e+08 
-6.6033690658499298e+00 -1.0334116124264141e+00 +2.2381688982855641e+00 +1.3548189446487060e+01 +1.2250419903560446e+03 +1.0999145861740288e+05 -6.2155115239709504e+06 -3.6790003587214899e+08 
-6.7034201123021999e+00 -1.0334107305913285e+00 +2.2385297637267545e+00 +1.3465822072152452e+01 +1.2139462992025922e+03 +1.1212891375359443e+05 -6.1493764784479206e+06 -3.7918156219741762e+08 
-6.8034711587544701e+00 -1.0334098824415241e+00 +2.2389297939801347e+00 +1.3391689287059885e+01 +1.2020078139991597e+03 +1.1413763289008467e+05 -6.0787652747712806e+06 -3.8995861766893661e+08 
-6.9035222052067402e+00 -1.0334090646218292e+00 +2.2393679634680819e+00 +1.3326482982560034e+01 +1.1892466987693870e+03 +1.1600227154726480e+05 -6.0037458031377066e+06 -4.0015500478732854e+08 
-7.0035732516590103e+00 -1.0334082737771890e+00 +2.2398432464202975e+00 +1.3270895079322047e+01 +1.1756831259297569e+03 +1.1770748440222823e+05 -5.9243860115737207e+06 -4.0969452122684205e+08 
-7.1036242981112796e+00 -1.0334075065527519e+00 +2.2403546168629966e+00 +1.3225617542097151e+01 +1.1613372766985526e+03 +1.1923792498739954e+05 -5.8407539085958684e+06 -4.1850095834332365e+08 
-7.2036753445635497e+00 -1.0334067595937189e+00 +2.2409010486246901e+00 +1.3191342360615787e+01 +1.1462293410328571e+03 +1.2057824605072799e+05 -5.7529175632167356e+06 -4.2649810288018453e+08 
-7.3037263910158297e+00 -1.0334060295455010e+00 +2.2414815153249728e+00 +1.3168761568321708e+01 +1.1303795180312677e+03 +1.2171309918674792e+05 -5.6609451075763702e+06 -4.3360973517883962e+08 
-7.4037774374680998e+00 -1.0334053130535914e+00 +2.2420949903754201e+00 +1.3158567231835839e+01 +1.1138080160253214e+03 +1.2262713501898850e+05 -5.5649047378248982e+06 -4.3975962999849516e+08 
-7.5038284839203699e+00 -1.0334046067632265e+00 +2.2427404465181433e+00 +1.3161451326446945e+01 +1.0965350636796011e+03 +1.2330500569797869e+05 -5.4648647940825699e+06 -4.4487157037642115e+08 
-7.6038795303726401e+00 -1.0334039068807908e+00 +2.2434164248214867e+00 +1.3177765671517010e+01 +1.0785910317465832e+03 +1.2373754533509190e+05 -5.3609624499397483e+06 -4.4889784306824571e+08 
-7.7039305768249102e+00 -1.0334032082837665e+00 +2.2441204849485223e+00 +1.3206710641022871e+01 +1.0600336479185939e+03 +1.2393624326726650e+05 -5.2535359521329971e+06 -4.5188399864647400e+08 
-7.8039816232771804e+00 -1.0334025055858465e+00 +2.2448500851308024e+00 +1.3247238365379131e+01 +1.0409250845369420e+03 +1.2391697579588041e+05 -5.1429611673142174e+06 -4.5389495146081078e+08 
-7.9040326697294496e+00 -1.0334017933994837e+00 +2.2456026840571419e+00 +1.3298300818059031e+01 +1.0213275019543086e+03 +1.2369562235712130e+05 -5.0296138959790943e+06 -4.5499563113003194e+08 
-8.0040837161817304e+00 -1.0334010663359094e+00 +2.2463757408853589e+00 +1.3358849821169958e+01 +1.0013030481352449e+03 +1.2328806542325177e+05 -4.9138698697496383e+06 -4.5525098211586058e+08 
-8.1041347626340006e+00 -1.0334003190050365e+00 +2.2471667152591195e+00 +1.3427837031299889e+01 +9.8091385818630920e+02 +1.2271019078151819e+05 -4.7961047487142263e+06 -4.5472596508118552e+08 
-8.2041858090862707e+00 -1.0333995460153915e+00 +2.2479730673274285e+00 +1.3504213932498971e+01 +9.6022205381193669e+02 +1.2197788766954503e+05 -4.6766941182986293e+06 -4.5348555753418499e+08 
-8.3042368555385409e+00 -1.0333987419741737e+00 +2.2487922577645612e+00 +1.3586931843472655e+01 +9.3928974273537597e+02 +1.2110704864798834e+05 -4.5560134859043583e+06 -4.5159475325218815e+08 
-8.4042879019908092e+00 -1.0333979014870429e+00 +2.2496217477845066e+00 +1.3674941890690112e+01 +9.1817901832294262e+02 +1.2011357011630015e+05 -4.4344382788380599e+06 -4.4911856474599129e+08 
-8.5043389484430794e+00 -1.0333970191582234e+00 +2.2504589991581234e+00 +1.3767195023293494e+01 +8.9695195907984134e+02 +1.1901335203183359e+05 -4.3123438413462304e+06 -4.4612202193126148e+08 
-8.6043899948953602e+00 -1.0333960895904009e+00 +2.2513014742316217e+00 +1.3862641995624406e+01 +8.7567062813404425e+02 +1.1782229825536604e+05 -4.1901054317160891e+06 -4.4267017380927438e+08 
-8.7044410413476303e+00 -1.0333951073846175e+00 +2.2521466359531028e+00 +1.3960233361206697e+01 +8.5439707248289403e+02 +1.1655631665814460e+05 -4.0680982178671015e+06 -4.3882808895622194e+08 
-8.8044920877999004e+00 -1.0333940671403274e+00 +2.2529919478729732e+00 +1.4058919473048519e+01 +8.3319332301346674e+02 +1.1523131913850042e+05 -3.9466972776134890e+06 -4.3466085566144633e+08 
-8.9045431342521706e+00 -1.0333929634552679e+00 +2.2538348741772540e+00 +1.4157650472028982e+01 +8.1212139352348640e+02 +1.1386322183536540e+05 -3.8262775929013593e+06 -4.3023358292775834e+08 
-9.0045941807044407e+00 -1.0333917909254688e+00 +2.2546728797016353e+00 +1.4255376286611918e+01 +7.9124328034798430e+02 +1.1246794514389781e+05 -3.7072140477398671e+06 -4.2561140057010412e+08 
-9.1046452271567109e+00 -1.0333905441451572e+00 +2.2555034299435932e+00 +1.4351046621392483e+01 +7.7062096202294003e+02 +1.1106141394111671e+05 -3.5898814262772333e+06 -4.2085946031108618e+08 
-9.2046962736089899e+00 -1.0333892177066961e+00 +2.2563239910865183e+00 +1.4443610947871047e+01 +7.5031639859504776e+02 +1.0965955776800842e+05 -3.4746544088227693e+06 -4.1604293666775471e+08 
-9.3047473200612600e+00 -1.0333878062006363e+00 +2.2571320300147439e+00 +1.4532018514822509e+01 +7.3039153119831087e+02 +1.0827831062483067e+05 -3.3619075694037345e+06 -4.1122702595565408e+08 
-9.4047983665135302e+00 -1.0333863042155693e+00 +2.2579250143331584e+00 +1.4615218325425595e+01 +7.1090828151170876e+02 +1.0693361143289632e+05 -3.2520153726928146e+06 -4.0647694856094021e+08 
-9.5048494129658003e+00 -1.0333847063383585e+00 +2.2587004126015024e+00 +1.4692159226642040e+01 +6.9192855455461279e+02 +1.0564140337346691e+05 -3.1453521632763082e+06 -4.0185794501180017e+08 
-9.6049004594180705e+00 -1.0333830089208442e+00 +2.2594562641773441e+00 +1.4762047617349115e+01 +6.7350490851010102e+02 +1.0441425040922340e+05 -3.0422384842899977e+06 -3.9742213242406398e+08 
-9.7049515058703406e+00 -1.0333812148675052e+00 +2.2601924146768200e+00 +1.4824989333733155e+01 +6.5565296624722998e+02 +1.0325276088755501e+05 -2.9427824714559456e+06 -3.9317571670789737e+08 
-9.8050025523226108e+00 -1.0333793286243600e+00 +2.2609090648835810e+00 +1.4881291348493527e+01 +6.3837932571534338e+02 +1.0215484941016503e+05 -2.8470397079077931e+06 -3.8911464609238207e+08 
-9.9050535987748898e+00 -1.0333773546374299e+00 +2.2616064154084099e+00 +1.4931260619719028e+01 +6.2169058691627606e+02 +1.0111843073077970e+05 -2.7550657820346956e+06 -3.8523486841512090e+08 
-1.0005104645227201e+01 -1.0333752973526384e+00 +2.2622846666905811e+00 +1.4975204081326025e+01 +6.0559335177668277e+02 +1.0014141993138907e+05 -2.6669162858071807e+06 -3.8153233198485106e+08 
-1.0105155691679400e+01 -1.0333731612159385e+00 +2.2629440189943564e+00 +1.5013428655776808e+01 +5.9009422412354422e+02 +9.9221732174800622e+04 -2.5826468143437807e+06 -3.7800298437606555e+08 
