# multipoles
# s[mm] polynom_b[n=0][T/m^n] polynom_b[n=1][T/m^n] polynom_b[n=2][T/m^n] polynom_b[n=3][T/m^n] polynom_b[n=4][T/m^n] polynom_b[n=5][T/m^n] polynom_b[n=6][T/m^n] 
-0.0000000000000000e+00 -1.0309441974506861e+00 +2.3106624429522458e+00 +1.7015513324835588e+01 -5.3177259265778321e+02 +6.1480568361199679e+04 +3.5973205755825238e+06 -2.5932836998262906e+08 
-1.0000000000000001e-01 -1.0309422456331301e+00 +2.3104596734030860e+00 +1.6608872860312648e+01 -5.2815642331144704e+02 +6.8282172893397073e+04 +3.5821999236940849e+06 -2.8775047350673461e+08 
-2.0000000000000001e-01 -1.0309401678288783e+00 +2.3102486011214971e+00 +1.6200639736398387e+01 -5.2434840796186802e+02 +7.5078373570127646e+04 +3.5657693004996493e+06 -3.1612349962890756e+08 
-2.9999999999999999e-01 -1.0309379811350847e+00 +2.3100308792019564e+00 +1.5791716460118003e+01 -5.2037491989043997e+02 +8.1857702558635559e+04 +3.5481158953184285e+06 -3.4441034240685815e+08 
-4.0000000000000002e-01 -1.0309357026487616e+00 +2.3098081607214400e+00 +1.5383005513369502e+01 -5.1626233111939098e+02 +8.8608692634300227e+04 +3.5293268889758643e+06 -3.7257389929402697e+08 
-5.0000000000000000e-01 -1.0309333494667388e+00 +2.3095820987221711e+00 +1.4975409348117262e+01 -5.1203701199673048e+02 +9.5319877289678232e+04 +3.5094894519464215e+06 -4.0057707172097051e+08 
-5.9999999999999998e-01 -1.0309309386856831e+00 +2.3093543461931239e+00 +1.4569830383642392e+01 -5.0772533073314275e+02 +1.0197979082453896e+05 +3.4886907421300537e+06 -4.2838276565099859e+08 
-6.9999999999999996e-01 -1.0309284874021281e+00 +2.3091265560491250e+00 +1.4167171009419484e+01 -5.0335365287648381e+02 +1.0857696830566128e+05 +3.4670179023251799e+06 -4.5595389144636887e+08 
-8.0000000000000004e-01 -1.0309260127124733e+00 +2.3089003811170299e+00 +1.3768333583766259e+01 -4.9894834097819063e+02 +1.1509994562451770e+05 +3.4445580587765086e+06 -4.8325336425207853e+08 
-9.0000000000000002e-01 -1.0309235317129146e+00 +2.3086774741183032e+00 +1.3374220423014908e+01 -4.9453575416341596e+02 +1.2153725972687214e+05 +3.4213983191863527e+06 -5.1024410517293394e+08 
-1.0000000000000000e+00 -1.0309210614995752e+00 +2.3084594876448268e+00 +1.2985733812836358e+01 -4.9014224751133423e+02 +1.2787744842441007e+05 +3.3976257695925031e+06 -5.3688904046932745e+08 
-1.1000000000000001e+00 -1.0309186191684045e+00 +2.3082480741482740e+00 +1.2603775997778131e+01 -4.8579417181083414e+02 +1.3410905061541649e+05 +3.3733274734695861e+06 -5.6315110268914330e+08 
-1.2000000000000000e+00 -1.0309162218151700e+00 +2.3080448859178739e+00 +1.2229249174049553e+01 -4.8151787300656969e+02 +1.4022060645651768e+05 +3.3485904690173473e+06 -5.8899323159820068e+08 
-1.3000000000000000e+00 -1.0309138865356038e+00 +2.3078515750637405e+00 +1.1863055509615872e+01 -4.7733969178320797e+02 +1.4620065699425573e+05 +3.3235017672544448e+06 -6.1437837248547542e+08 
-1.3999999999999999e+00 -1.0309116304252375e+00 +2.3076697934959935e+00 +1.1506097118352958e+01 -4.7328596301569866e+02 +1.5203774469325287e+05 +3.2981483492459944e+06 -6.3926947879493010e+08 
-1.5000000000000000e+00 -1.0309094705794890e+00 +2.3075011929107885e+00 +1.1159276069753355e+01 -4.6938301549409476e+02 +1.5772041326869471e+05 +3.2726171652368517e+06 -6.6362951139161086e+08 
-1.6000000000000001e+00 -1.0309074221180665e+00 +2.3073470120484694e+00 +1.0823384296131396e+01 -4.6565071296725580e+02 +1.6323835504713611e+05 +3.2469768088226533e+06 -6.8742256558682978e+08 
-1.7000000000000000e+00 -1.0309054923250376e+00 +2.3072068066029576e+00 +1.0498790562337831e+01 -4.6208135732380197e+02 +1.6858553626566860e+05 +3.2212062080823099e+06 -7.1061591838519585e+08 
-1.8000000000000000e+00 -1.0309036865418442e+00 +2.3070797031021830e+00 +1.0185762122569033e+01 -4.5865992166404817e+02 +1.7375691194023448e+05 +3.1952577664382914e+06 -7.3317729764300549e+08 
-1.8999999999999999e+00 -1.0309020101097972e+00 +2.3069648279244035e+00 +9.8845662074166345e+00 -4.5537137462681898e+02 +1.7874743764002522e+05 +3.1690838601999134e+06 -7.5507443415894830e+08 
-2.0000000000000000e+00 -1.0309004683701919e+00 +2.3068613073069342e+00 +9.5954700390629615e+00 -4.5220068067345397e+02 +1.8355206916938614e+05 +3.1426368398463279e+06 -7.7627506005561757e+08 
-2.1000000000000001e+00 -1.0308990666642490e+00 +2.3067682673425542e+00 +9.3187408264051879e+00 -4.4913280000934515e+02 +1.8816576264082518e+05 +3.1158690291968808e+06 -7.9674690904007065e+08 
-2.2000000000000002e+00 -1.0308978103331852e+00 +2.3066848339737716e+00 +9.0546457751264420e+00 -4.4615268841583060e+02 +1.9258347425075120e+05 +3.0887327239326593e+06 -8.1645771521372271e+08 
-2.2999999999999998e+00 -1.0308967047181639e+00 +2.3066101330084239e+00 +8.8034520827641405e+00 -4.4324529771521804e+02 +1.9680016035469808e+05 +3.0611801938581425e+06 -8.3537521335247779e+08 
-2.3999999999999999e+00 -1.0308957551603126e+00 +2.3065432900998055e+00 +8.5654269435657451e+00 -4.4039557522481920e+02 +2.0081077734767285e+05 +3.0331636793594551e+06 -8.5346713822466433e+08 
-2.5000000000000000e+00 -1.0308949670008107e+00 +2.3064834307638442e+00 +8.3408375606570235e+00 -4.3758846424946177e+02 +2.0461028140445458e+05 +3.0046353937634663e+06 -8.7070122325282812e+08 
-2.6000000000000001e+00 -1.0308943455807638e+00 +2.3064296803615232e+00 +8.1299511318034501e+00 -4.3480890359566627e+02 +2.0819362872529880e+05 +2.9755475200953744e+06 -8.8704520157582593e+08 
-2.7000000000000002e+00 -1.0308938962413265e+00 +2.3063811641219853e+00 +7.9330348676129558e+00 -4.3204182826669751e+02 +2.1155577516802755e+05 +2.9458522147479770e+06 -9.0246680421386921e+08 
-2.7999999999999998e+00 -1.0308936243236513e+00 +2.3063370071183127e+00 +7.7503559859999287e+00 -4.2927216874436681e+02 +2.1469167632344482e+05 +2.9155016027607229e+06 -9.1693376030763912e+08 
-2.8999999999999999e+00 -1.0308935351689561e+00 +2.3062963342820955e+00 +7.5821817203836179e+00 -4.2648485145741404e+02 +2.1759628733695560e+05 +2.8844477801826638e+06 -9.3041379617980468e+08 
-3.0000000000000000e+00 -1.0308936341184314e+00 +2.3062582704009684e+00 +7.4287793142103284e+00 -4.2366479870223742e+02 +2.2026456298633554e+05 +2.8526428131654756e+06 -9.4287463560056889e+08 
-3.1000000000000001e+00 -1.0308939265133665e+00 +2.3062219401120068e+00 +7.2904160351160225e+00 -4.2079692847689125e+02 +2.2269145738671150e+05 +2.8200387365556401e+06 -9.5428399828149867e+08 
-3.2000000000000002e+00 -1.0308944176950769e+00 +2.3061864679122941e+00 +7.1673591682490558e+00 -4.1786615479757518e+02 +2.2487192408816965e+05 +2.7865875552919577e+06 -9.6460960022722173e+08 
-3.2999999999999998e+00 -1.0308951130049593e+00 +2.3061509781478295e+00 +7.0598760254634501e+00 -4.1485738738322846e+02 +2.2680091588647006e+05 +2.7522412421336058e+06 -9.7381915276615191e+08 
-3.3999999999999999e+00 -1.0308960177844739e+00 +2.3061145950218647e+00 +6.9682339446775243e+00 -4.1175553192342215e+02 +2.2847338479376232e+05 +2.7169517387952805e+06 -9.8188036226087749e+08 
-3.5000000000000000e+00 -1.0308971373751448e+00 +2.3060764425881608e+00 +6.8927002898797909e+00 -4.0854548981584873e+02 +2.2988428204017394e+05 +2.6806709533099448e+06 -9.8876093014304948e+08 
-3.6000000000000001e+00 -1.0308984740629101e+00 +2.3060357868471737e+00 +6.8333357469404659e+00 -4.0521540431361376e+02 +2.3103200720624943e+05 +2.6433682369599449e+06 -9.9444569020129764e+08 
-3.7000000000000002e+00 -1.0309000179627521e+00 +2.3059925266449279e+00 +6.7893749808584696e+00 -4.0176941097553396e+02 +2.3192876575607064e+05 +2.6051111495370530e+06 -9.9898820828249657e+08 
-3.7999999999999998e+00 -1.0309017561596323e+00 +2.3059467356140395e+00 +6.7598461542103676e+00 -3.9821641334424601e+02 +2.3259022543179747e+05 +2.5659990403537303e+06 -1.0024593566420147e+09 
-3.8999999999999999e+00 -1.0309036757386321e+00 +2.3058984874666075e+00 +6.7437774578177656e+00 -3.9456531718808515e+02 +2.3303205326355458e+05 +2.5261312731665396e+06 -1.0049300036491562e+09 
-4.0000000000000000e+00 -1.0309057637850707e+00 +2.3058478560069720e+00 +6.7401971224678627e+00 -3.9082503078526088e+02 +2.3326991532931663e+05 +2.4856072271306980e+06 -1.0064710125373237e+09 
-4.0999999999999996e+00 -1.0309080073843875e+00 +2.3057949151382928e+00 +6.7481334113804712e+00 -3.8700446507284323e+02 +2.3331947687744905e+05 +2.4445262978411047e+06 -1.0071532419270344e+09 
-4.2000000000000002e+00 -1.0309103936222705e+00 +2.3057397388867988e+00 +6.7666146308183999e+00 -3.8311253436737053e+02 +2.3319640211834040e+05 +2.4029879017428174e+06 -1.0070475448171116e+09 
-4.2999999999999998e+00 -1.0309129095845901e+00 +2.3056824014040016e+00 +6.7946691264545223e+00 -3.7915815640596935e+02 +2.3291635428467038e+05 +2.3610914765980565e+06 -1.0062247688502624e+09 
-4.4000000000000004e+00 -1.0309155423574461e+00 +2.3056229769866707e+00 +6.8313252890368537e+00 -3.7515025292347894e+02 +2.3249499550168889e+05 +2.3189364850214794e+06 -1.0047557556372150e+09 
-4.5000000000000000e+00 -1.0309182790272156e+00 +2.3055615400933327e+00 +6.8756115618829190e+00 -3.7109775012116847e+02 +2.3194798664277315e+05 +2.2766224174607988e+06 -1.0027113400603521e+09 
-4.5999999999999996e+00 -1.0309211066804664e+00 +2.3054981653501847e+00 +6.9265564288676593e+00 -3.6700957883265733e+02 +2.3129098754100621e+05 +2.2342487933291919e+06 -1.0001623512418656e+09 
-4.7000000000000002e+00 -1.0309240124040766e+00 +2.3054329275713896e+00 +6.9831884316218744e+00 -3.6289467511051043e+02 +2.3053965665595143e+05 +2.1919151646904899e+06 -9.9717961093633962e+08 
-4.7999999999999998e+00 -1.0309269832851677e+00 +2.3053659017720647e+00 +7.0445361639225128e+00 -3.5876198057360011e+02 +2.2970965116121247e+05 +2.1497211184153310e+06 -9.9383393390134418e+08 
-4.9000000000000004e+00 -1.0309300064111466e+00 +2.3052971631773627e+00 +7.1096282729116647e+00 -3.5462044268441548e+02 +2.2881662691423774e+05 +2.1077662780490774e+06 -9.9019612772960854e+08 
-5.0000000000000000e+00 -1.0309330688697425e+00 +2.3052267872404446e+00 +7.1774934695613446e+00 -3.5047901525308663e+02 +2.2787623824447222e+05 +2.0661503069594400e+06 -9.8633699181298375e+08 
-5.0999999999999996e+00 -1.0309361577489748e+00 +2.3051548496604197e+00 +7.2471605221595761e+00 -3.4634665894948455e+02 +2.2690413806803510e+05 +2.0249729115073003e+06 -9.8232731785886300e+08 
-5.2000000000000002e+00 -1.0309392601372174e+00 +2.3050814263823582e+00 +7.3176582665572978e+00 -3.4223234130166583e+02 +2.2591597767279216e+05 +1.9843338412633149e+06 -9.7823788881580138e+08 
-5.2999999999999998e+00 -1.0309423631231296e+00 +2.3050065936273869e+00 +7.3880155986442091e+00 -3.3814503754414648e+02 +2.2492740686183219e+05 +1.9443328941301939e+06 -9.7413947955952299e+08 
-5.4000000000000004e+00 -1.0309454537957501e+00 +2.3049304278944631e+00 +7.4572614850763221e+00 -3.3409373068468977e+02 +2.2395407373208227e+05 +1.9050699169752877e+06 -9.7010285578994405e+08 
-5.5000000000000000e+00 -1.0309485192444994e+00 +2.3048530059881700e+00 +7.5244249697817187e+00 -3.3008741215620029e+02 +2.2301162453620182e+05 +1.8666448092042496e+06 -9.6619877335568726e+08 
-5.5999999999999996e+00 -1.0309515482886682e+00 +2.3047744010828835e+00 +7.5886975602017142e+00 -3.2613279211566163e+02 +2.2211314519915127e+05 +1.8291337178740210e+06 -9.6248684429121685e+08 
-5.7000000000000002e+00 -1.0309545363083794e+00 +2.3046945928050824e+00 +7.6498706704071688e+00 -3.2222633180289080e+02 +2.2126234655532223e+05 +1.7925100899036911e+06 -9.5898552743550241e+08 
-5.7999999999999998e+00 -1.0309574802371080e+00 +2.3046135200222491e+00 +7.7078739149338444e+00 -3.1836167369739434e+02 +2.2046079949131500e+05 +1.7567195831442822e+06 -9.5570377441439176e+08 
-5.9000000000000004e+00 -1.0309603770081204e+00 +2.3045311216260123e+00 +7.7626368751274590e+00 -3.1453246098595696e+02 +2.1971007561265348e+05 +1.7217078601510169e+06 -9.5265054051457405e+08 
-6.0000000000000000e+00 -1.0309632235545829e+00 +2.3044473365465445e+00 +7.8140891121836207e+00 -3.1073233813833332e+02 +2.1901174700100714e+05 +1.6874205935949290e+06 -9.4983478369782579e+08 
-6.0999999999999996e+00 -1.0309660168094801e+00 +2.3043621037442814e+00 +7.8621601528707608e+00 -3.0695495065717444e+02 +2.1836738650540667e+05 +1.6538034648535629e+06 -9.4726546605158031e+08 
-6.2000000000000002e+00 -1.0309687537056171e+00 +2.3042753622180236e+00 +7.9067794956272666e+00 -3.0319394533945461e+02 +2.1777856762589395e+05 +1.6208021657287315e+06 -9.4495155324156725e+08 
-6.2999999999999998e+00 -1.0309714311756488e+00 +2.3041870510021685e+00 +7.9478766074214358e+00 -2.9944297019704510e+02 +2.1724686458915294e+05 +1.5883623980300087e+06 -9.4290201492695117e+08 
-6.4000000000000004e+00 -1.0309740461520329e+00 +2.3040971091602067e+00 +7.9853809196465351e+00 -2.9569567429761247e+02 +2.1677385243676123e+05 +1.5564298728301183e+06 -9.4112582521858585e+08 
-6.5000000000000000e+00 -1.0309765955670016e+00 +2.3040054757979873e+00 +8.0192218248296800e+00 -2.9194570813977725e+02 +2.1636110709054221e+05 +1.5249503127137835e+06 -9.3963196300269151e+08 
-6.5999999999999996e+00 -1.0309790763525652e+00 +2.3039120900551735e+00 +8.0493286745440500e+00 -2.8818672343937811e+02 +2.1601020541015046e+05 +1.4938694506991440e+06 -9.3842941228127754e+08 
-6.7000000000000002e+00 -1.0309814854405723e+00 +2.3038168911089394e+00 +8.0756307876511322e+00 -2.8441237321922790e+02 +2.1572272503918011e+05 +1.4631330308097864e+06 -9.3752716144863784e+08 
-6.7999999999999998e+00 -1.0309838197625356e+00 +2.3037198181772798e+00 +8.0980574275451929e+00 -2.8061631195217421e+02 +2.1550024485298866e+05 +1.4326868091119807e+06 -9.3693420548082507e+08 
-6.9000000000000004e+00 -1.0309860762498535e+00 +2.3036208105140221e+00 +8.1165378273784210e+00 -2.7679219541050566e+02 +2.1534434448159061e+05 +1.4024765528978906e+06 -9.3665954367612112e+08 
-7.0000000000000000e+00 -1.0309882518335562e+00 +2.3035198074097010e+00 +8.1310011611559379e+00 -2.7293368069943102e+02 +2.1525660487270539e+05 +1.3724480410052990e+06 -9.3671218238593256e+08 
-7.0999999999999996e+00 -1.0309903434444709e+00 +2.3034167481986607e+00 +8.1413765600880197e+00 -2.6903442648189565e+02 +2.1523860799384757e+05 +1.3425470652566215e+06 -9.3710113363729584e+08 
-7.2000000000000002e+00 -1.0309923480131149e+00 +2.3033115722494824e+00 +8.1475931000280575e+00 -2.6508809271970409e+02 +2.1529193707464691e+05 +1.3127194290732455e+06 -9.3783541631041253e+08 
-7.2999999999999998e+00 -1.0309942624697404e+00 +2.3032042189776063e+00 +8.1495798095191994e+00 -2.6108834103281919e+02 +2.1541817646341500e+05 +1.2829109496788438e+06 -9.3892405548708928e+08 
-7.4000000000000004e+00 -1.0309960837442937e+00 +2.3030946278375310e+00 +8.1472656567556339e+00 -2.5702883450509620e+02 +2.1561891189094842e+05 +1.2530674570710242e+06 -9.4037608376178205e+08 
-7.5000000000000000e+00 -1.0309978087664300e+00 +2.3029827383425832e+00 +8.1405795596056496e+00 -2.5290323879402297e+02 +2.1589573019829163e+05 +1.2231348008675668e+06 -9.4220053978512084e+08 
-7.5999999999999996e+00 -1.0309994365126731e+00 +2.3028685272014893e+00 +8.1295553628435915e+00 -2.4870824644761413e+02 +2.1624838157202827e+05 +1.1930770087014656e+06 -9.4439766673001909e+08 
-7.7000000000000002e+00 -1.0310009742393158e+00 +2.3027520955102498e+00 +8.1146566053584905e+00 -2.4444940562671485e+02 +2.1666924418944077e+05 +1.1629066093641431e+06 -9.4693259683995378e+08 
-7.7999999999999998e+00 -1.0310024312989270e+00 +2.3026335694152564e+00 +8.0964573189171425e+00 -2.4013370099222271e+02 +2.1714882055519760e+05 +1.1326422636693562e+06 -9.4976152650822067e+08 
-7.9000000000000004e+00 -1.0310038170441140e+00 +2.3025130748573099e+00 +8.0755315424194301e+00 -2.3576811128819460e+02 +2.1767761307409167e+05 +1.1023025944039717e+06 -9.5284065155070090e+08 
-8.0000000000000000e+00 -1.0310051408275300e+00 +2.3023907375961938e+00 +8.0524533230372999e+00 -2.3135961048339260e+02 +2.1824612409461726e+05 +1.0719061951818196e+06 -9.5612616772789741e+08 
-8.0999999999999996e+00 -1.0310064120018101e+00 +2.3022666831961169e+00 +8.0277967056576092e+00 -2.2691516734314430e+02 +2.1884485611458551e+05 +1.0414716277899968e+06 -9.5957427173334408e+08 
-8.1999999999999993e+00 -1.0310076399196257e+00 +2.3021410370231248e+00 +8.0021357432288607e+00 -2.2244174537066223e+02 +2.1946431157958330e+05 +1.0110174218066328e+06 -9.6314116021848762e+08 
-8.3000000000000007e+00 -1.0310088339336290e+00 +2.3020139242361060e+00 +7.9760444849275016e+00 -2.1794630256950052e+02 +2.2009499312524992e+05 +9.8056207313124486e+05 -9.6678303099128509e+08 
-8.4000000000000004e+00 -1.0310100033965293e+00 +2.3018854697839179e+00 +7.9500969902937042e+00 -2.1343579137338895e+02 +2.2072740330052475e+05 +9.5012404352922284e+05 -9.7045608167213452e+08 
-8.5000000000000000e+00 -1.0310111576610212e+00 +2.3017557983898316e+00 +7.9248673183988236e+00 -2.0891715818607469e+02 +2.2135204478315543e+05 +9.1972175780313648e+05 -9.7411651074544930e+08 
-8.5999999999999996e+00 -1.0310123060798531e+00 +2.3016250345594096e+00 +7.9009295336267815e+00 -2.0439734366700901e+02 +2.2195942027598558e+05 +8.8937360546373331e+05 -9.7772051707798517e+08 
-8.6999999999999993e+00 -1.0310134580057422e+00 +2.3014933025640936e+00 +7.8788577021443587e+00 -1.9988328222836736e+02 +2.2254003256816408e+05 +8.5909793768452329e+05 -9.8122430019339621e+08 
-8.8000000000000007e+00 -1.0310146227914707e+00 +2.3013607264364757e+00 +7.8592258966204085e+00 -1.9538190192884653e+02 +2.2308438445972762e+05 +8.2891306657894538e+05 -9.8458405994648027e+08 
-8.9000000000000004e+00 -1.0310158097898114e+00 +2.3012274299618709e+00 +7.8426081904358895e+00 -1.9090012424644692e+02 +2.2358297886902429e+05 +7.9883726384675980e+05 -9.8775599702675116e+08 
-9.0000000000000000e+00 -1.0310170283535669e+00 +2.3010935366774636e+00 +7.8295786634914339e+00 -1.8644486406226164e+02 +2.2402631872905494e+05 +7.6888876059633750e+05 -9.9069631248080993e+08 
-9.0999999999999996e+00 -1.0310182878355518e+00 +2.3009591698634391e+00 +7.8207113968570088e+00 -1.8202302942439860e+02 +2.2440490709538088e+05 +7.3908574588337971e+05 -9.9336120823934746e+08 
-9.1999999999999993e+00 -1.0310195975886010e+00 +2.3008244525316339e+00 +7.8165804762412847e+00 -1.7764152122331228e+02 +2.2470924707309532e+05 +7.0944636472613004e+05 -9.9570688674594772e+08 
-9.3000000000000007e+00 -1.0310209669656052e+00 +2.3006895074257963e+00 +7.8177599964164370e+00 -1.7330723321618862e+02 +2.2492984175091874e+05 +6.7998871820384800e+05 -9.9768955069433522e+08 
-9.4000000000000004e+00 -1.0310224053194481e+00 +2.3005544570140271e+00 +7.8248240519831906e+00 -1.6902705182463362e+02 +2.2505719437254278e+05 +6.5073086217715580e+05 -9.9926540382406700e+08 
-9.5000000000000000e+00 -1.0310239220029520e+00 +2.3004194234444997e+00 +7.8383467274748222e+00 -1.6480785472840017e+02 +2.2508180859220892e+05 +6.2169080155550083e+05 -1.0003906520904422e+09 
-9.5999999999999996e+00 -1.0310255234102901e+00 +2.3002846420933456e+00 +7.8587116356872091e+00 -1.6065821541188441e+02 +2.2499711738307643e+05 +5.9290012564473157e+05 -1.0010341427515409e+09 
-9.6999999999999993e+00 -1.0310272044023325e+00 +2.3001508413752183e+00 +7.8855692326678408e+00 -1.5659483505693049e+02 +2.2480762705812723e+05 +5.6445650295526790e+05 -1.0012127838074098e+09 
-9.8000000000000007e+00 -1.0310289570242983e+00 +2.3000188810718556e+00 +7.9183925431199436e+00 -1.5263672451482446e+02 +2.2452048142205735e+05 +5.3647756479623623e+05 -1.0009550672051351e+09 
-9.9000000000000004e+00 -1.0310307733221433e+00 +2.2998896212547479e+00 +7.9566546759560435e+00 -1.4880290154791047e+02 +2.2414282263026226e+05 +5.0908098666292190e+05 -1.0002894776612844e+09 
-1.0000000000000000e+01 -1.0310326453424286e+00 +2.2997639222677999e+00 +7.9998288165751301e+00 -1.4511238973104258e+02 +2.2368179129616823e+05 +4.8238447215553676e+05 -9.9924449230061829e+08 
-1.0100000000000000e+01 -1.0310345651324080e+00 +2.2996426447441509e+00 +8.0473882305971607e+00 -1.4158421895262018e+02 +2.2314452642337666e+05 +4.5650575587524392e+05 -9.9784858034469295e+08 
