# field on trajectory
# s[mm] rx[mm] ry[mm] rz[mm] bx[T] by[T] bz[T]
0.0000000000000000e+00 +9.1312999999999995e+00 +0.0000000000000000e+00 +0.0000000000000000e+00 +1.1372822841316702e-02 -1.0336742698793830e+00 -5.8861286876571141e-02
1.0000000000000001e-01 +9.1312994835201167e+00 +0.0000000000000000e+00 +9.9999999998221664e-02 +1.1372686541077148e-02 -1.0336759639271993e+00 -5.8861234784358764e-02
2.0000000000000001e-01 +9.1312979340793490e+00 +0.0000000000000000e+00 +1.9999999998577322e-01 +1.1372552959715060e-02 -1.0336775974537686e+00 -5.8861182926075679e-02
3.0000000000000004e-01 +9.1312953516760658e+00 +0.0000000000000000e+00 +2.9999999995198456e-01 +1.1372422783430454e-02 -1.0336791597726178e+00 -5.8861131232750441e-02
4.0000000000000002e-01 +9.1312917363087056e+00 +0.0000000000000000e+00 +3.9999999988618556e-01 +1.1372296698397609e-02 -1.0336806401968015e+00 -5.8861079635386143e-02
5.0000000000000000e-01 +9.1312870879757906e+00 +0.0000000000000000e+00 +4.9999999977770598e-01 +1.1372175390758493e-02 -1.0336820280389070e+00 -5.8861028064954996e-02
5.9999999999999998e-01 +9.1312814066759351e+00 +0.0000000000000000e+00 +5.9999999961587558e-01 +1.1372059360387925e-02 -1.0336833145665303e+00 -5.8860976509427065e-02
6.9999999999999996e-01 +9.1312746924078549e+00 +0.0000000000000000e+00 +6.9999999939002400e-01 +1.1371948362211209e-02 -1.0336844988687763e+00 -5.8860925184874055e-02
7.9999999999999993e-01 +9.1312669451703670e+00 +0.0000000000000000e+00 +7.9999999908948094e-01 +1.1371841964903677e-02 -1.0336855819899611e+00 -5.8860874364374031e-02
8.9999999999999991e-01 +9.1312581649623894e+00 +0.0000000000000000e+00 +8.9999999870357605e-01 +1.1371739737124978e-02 -1.0336865649742182e+00 -5.8860824320979506e-02
9.9999999999999989e-01 +9.1312483517829417e+00 +0.0000000000000000e+00 +9.9999999822163899e-01 +1.1371641247523247e-02 -1.0336874488655734e+00 -5.8860775327719009e-02
1.0999999999999999e+00 +9.1312375056311410e+00 +0.0000000000000000e+00 +1.0999999976329993e+00 +1.1371546064739243e-02 -1.0336882347080127e+00 -5.8860727657598248e-02
1.2000000000000000e+00 +9.1312256265062022e+00 +0.0000000000000000e+00 +1.1999999969269866e+00 +1.1371453757410513e-02 -1.0336889235455577e+00 -5.8860681583601651e-02
1.3000000000000000e+00 +9.1312127144074378e+00 +0.0000000000000000e+00 +1.2999999960929305e+00 +1.1371363894175531e-02 -1.0336895164223361e+00 -5.8860637378693598e-02
1.4000000000000001e+00 +9.1311987693342580e+00 +0.0000000000000000e+00 +1.3999999951201605e+00 +1.1371276043677851e-02 -1.0336900143826511e+00 -5.8860595315819865e-02
1.5000000000000002e+00 +9.1311837912861673e+00 +0.0000000000000000e+00 +1.4999999939980062e+00 +1.1371189774570278e-02 -1.0336904184710591e+00 -5.8860555667908931e-02
1.6000000000000003e+00 +9.1311677802627607e+00 +0.0000000000000000e+00 +1.5999999927157973e+00 +1.1371104655518997e-02 -1.0336907297324349e+00 -5.8860518707873448e-02
1.7000000000000004e+00 +9.1311507362637307e+00 +0.0000000000000000e+00 +1.6999999912628632e+00 +1.1371020255207741e-02 -1.0336909492120501e+00 -5.8860484708611487e-02
1.8000000000000005e+00 +9.1311326592888591e+00 +0.0000000000000000e+00 +1.7999999896285335e+00 +1.1370936142341930e-02 -1.0336910779556383e+00 -5.8860453943007970e-02
1.9000000000000006e+00 +9.1311135493380196e+00 +0.0000000000000000e+00 +1.8999999878021376e+00 +1.1370851885652830e-02 -1.0336911170094725e+00 -5.8860426683936012e-02
2.0000000000000004e+00 +9.1310934064111748e+00 +0.0000000000000000e+00 +1.9999999857730055e+00 +1.1370767053901719e-02 -1.0336910674204356e+00 -5.8860403204258331e-02
2.1000000000000005e+00 +9.1310722305083765e+00 +0.0000000000000000e+00 +2.0999999835304668e+00 +1.1370681215883997e-02 -1.0336909302360886e+00 -5.8860383776828541e-02
2.2000000000000006e+00 +9.1310500216297630e+00 +0.0000000000000000e+00 +2.1999999810638506e+00 +1.1370593940433400e-02 -1.0336907065047489e+00 -5.8860368674492576e-02
2.3000000000000007e+00 +9.1310267797755618e+00 +0.0000000000000000e+00 +2.2999999783624872e+00 +1.1370504796426092e-02 -1.0336903972755564e+00 -5.8860358170090027e-02
2.4000000000000008e+00 +9.1310025049460837e+00 +0.0000000000000000e+00 +2.3999999754157058e+00 +1.1370413352784855e-02 -1.0336900035985492e+00 -5.8860352536455531e-02
2.5000000000000009e+00 +9.1309771971417248e+00 +0.0000000000000000e+00 +2.4999999722128363e+00 +1.1370319178483230e-02 -1.0336895265247328e+00 -5.8860352046420102e-02
2.6000000000000010e+00 +9.1309508563629631e+00 +0.0000000000000000e+00 +2.5999999687432087e+00 +1.1370221932027713e-02 -1.0336889681093722e+00 -5.8860356944981429e-02
2.7000000000000011e+00 +9.1309234826103598e+00 +0.0000000000000000e+00 +2.6999999649961524e+00 +1.1370121629872507e-02 -1.0336883344211383e+00 -5.8860367365808117e-02
2.8000000000000012e+00 +9.1308950758845508e+00 +0.0000000000000000e+00 +2.7999999609609971e+00 +1.1370018377944607e-02 -1.0336876325314353e+00 -5.8860383414726873e-02
2.9000000000000012e+00 +9.1308656361862397e+00 +0.0000000000000000e+00 +2.8999999566270733e+00 +1.1369912282157356e-02 -1.0336868695109545e+00 -5.8860405197553062e-02
3.0000000000000013e+00 +9.1308351635161920e+00 +0.0000000000000000e+00 +2.9999999519837104e+00 +1.1369803448407885e-02 -1.0336860524295790e+00 -5.8860432820090881e-02
3.1000000000000014e+00 +9.1308036578752247e+00 +0.0000000000000000e+00 +3.0999999470202386e+00 +1.1369691982574490e-02 -1.0336851883562952e+00 -5.8860466388133609e-02
3.2000000000000015e+00 +9.1307711192642067e+00 +0.0000000000000000e+00 +3.1999999417259879e+00 +1.1369577990514032e-02 -1.0336842843590952e+00 -5.8860506007463911e-02
3.3000000000000016e+00 +9.1307375476840438e+00 +0.0000000000000000e+00 +3.2999999360902881e+00 +1.1369461578059358e-02 -1.0336833475048903e+00 -5.8860551783854118e-02
3.4000000000000017e+00 +9.1307029431356739e+00 +0.0000000000000000e+00 +3.3999999301024695e+00 +1.1369342851016704e-02 -1.0336823848594152e+00 -5.8860603823066418e-02
3.5000000000000018e+00 +9.1306673056200633e+00 +0.0000000000000000e+00 +3.4999999237518620e+00 +1.1369221915163078e-02 -1.0336814034871353e+00 -5.8860662230853213e-02
3.6000000000000019e+00 +9.1306306351381945e+00 +0.0000000000000000e+00 +3.5999999170277959e+00 +1.1369098876243671e-02 -1.0336804104511563e+00 -5.8860727112957194e-02
3.7000000000000020e+00 +9.1305929316910639e+00 +0.0000000000000000e+00 +3.6999999099196015e+00 +1.1368973839969283e-02 -1.0336794128131324e+00 -5.8860798575111846e-02
3.8000000000000020e+00 +9.1305541952796734e+00 +0.0000000000000000e+00 +3.7999999024166087e+00 +1.1368846912013699e-02 -1.0336784176331697e+00 -5.8860876723041536e-02
3.9000000000000021e+00 +9.1305144259050195e+00 +0.0000000000000000e+00 +3.8999998945081478e+00 +1.1368718198011109e-02 -1.0336774319697384e+00 -5.8860961662461790e-02
4.0000000000000018e+00 +9.1304736235680899e+00 +0.0000000000000000e+00 +3.9999998861835495e+00 +1.1368587803553494e-02 -1.0336764628795794e+00 -5.8861053499079580e-02
4.1000000000000014e+00 +9.1304317882698580e+00 +0.0000000000000000e+00 +4.0999998774321433e+00 +1.1368455834188062e-02 -1.0336755174176100e+00 -5.8861152338593660e-02
4.2000000000000011e+00 +9.1303889200112724e+00 +0.0000000000000000e+00 +4.1999998682432604e+00 +1.1368322395414630e-02 -1.0336746026368342e+00 -5.8861258286694640e-02
4.3000000000000007e+00 +9.1303450187932516e+00 +0.0000000000000000e+00 +4.2999998586062302e+00 +1.1368187592683023e-02 -1.0336737255882484e+00 -5.8861371449065406e-02
4.4000000000000004e+00 +9.1303000846166764e+00 +0.0000000000000000e+00 +4.3999998485103839e+00 +1.1368051531390491e-02 -1.0336728933207491e+00 -5.8861491931381300e-02
4.5000000000000000e+00 +9.1302541174823819e+00 +0.0000000000000000e+00 +4.4999998379450519e+00 +1.1367914316879134e-02 -1.0336721128810431e+00 -5.8861619839310396e-02
4.5999999999999996e+00 +9.1302071173911532e+00 +0.0000000000000000e+00 +4.5999998268995634e+00 +1.1367776028566031e-02 -1.0336713896014509e+00 -5.8861755276521065e-02
4.6999999999999993e+00 +9.1301590843437168e+00 +0.0000000000000000e+00 +4.6999998153632498e+00 +1.1367636642358209e-02 -1.0336707219645769e+00 -5.8861898338755075e-02
4.7999999999999989e+00 +9.1301100183407460e+00 +0.0000000000000000e+00 +4.7999998033254414e+00 +1.1367496108287758e-02 -1.0336701067415219e+00 -5.8862049119898986e-02
4.8999999999999986e+00 +9.1300599193828607e+00 +0.0000000000000000e+00 +4.8999997907754684e+00 +1.1367354376384652e-02 -1.0336695407043457e+00 -5.8862207713997791e-02
4.9999999999999982e+00 +9.1300087874706328e+00 +0.0000000000000000e+00 +4.9999997777026604e+00 +1.1367211396677315e-02 -1.0336690206261518e+00 -5.8862374215263226e-02
5.0999999999999979e+00 +9.1299566226045883e+00 +0.0000000000000000e+00 +5.0999997640963484e+00 +1.1367067119193207e-02 -1.0336685432811734e+00 -5.8862548718082462e-02
5.1999999999999975e+00 +9.1299034247852084e+00 +0.0000000000000000e+00 +5.1999997499458628e+00 +1.1366921493959405e-02 -1.0336681054448529e+00 -5.8862731317026393e-02
5.2999999999999972e+00 +9.1298491940129392e+00 +0.0000000000000000e+00 +5.2999997352405339e+00 +1.1366774471003175e-02 -1.0336677038939295e+00 -5.8862922106858354e-02
5.3999999999999968e+00 +9.1297939302881854e+00 +0.0000000000000000e+00 +5.3999997199696921e+00 +1.1366626000352554e-02 -1.0336673354065220e+00 -5.8863121182542374e-02
5.4999999999999964e+00 +9.1297376336113221e+00 +0.0000000000000000e+00 +5.4999997041226667e+00 +1.1366476032036920e-02 -1.0336669967622121e+00 -5.8863328639251838e-02
5.5999999999999961e+00 +9.1296803039826955e+00 +0.0000000000000000e+00 +5.5999996876887890e+00 +1.1366324516087588e-02 -1.0336666847421285e+00 -5.8863544572377906e-02
5.6999999999999957e+00 +9.1296219414026218e+00 +0.0000000000000000e+00 +5.6999996706573892e+00 +1.1366171402538363e-02 -1.0336663961290316e+00 -5.8863769077538014e-02
5.7999999999999954e+00 +9.1295625458713960e+00 +0.0000000000000000e+00 +5.7999996530177977e+00 +1.1366016641426155e-02 -1.0336661277073962e+00 -5.8864002250584330e-02
5.8999999999999950e+00 +9.1295021173892952e+00 +0.0000000000000000e+00 +5.8999996347593440e+00 +1.1365860182791527e-02 -1.0336658762634967e+00 -5.8864244187612325e-02
5.9999999999999947e+00 +9.1294406559565751e+00 +0.0000000000000000e+00 +5.9999996158713591e+00 +1.1365701976679287e-02 -1.0336656385854899e+00 -5.8864494984969234e-02
6.0999999999999943e+00 +9.1293781615734808e+00 +0.0000000000000000e+00 +6.0999995963431726e+00 +1.1365541973139074e-02 -1.0336654114635007e+00 -5.8864754739262462e-02
6.1999999999999940e+00 +9.1293146342402469e+00 +0.0000000000000000e+00 +6.1999995761641156e+00 +1.1365380122225932e-02 -1.0336651916897044e+00 -5.8865023547368195e-02
6.2999999999999936e+00 +9.1292500739570990e+00 +0.0000000000000000e+00 +6.2999995553235184e+00 +1.1365216374000892e-02 -1.0336649760584109e+00 -5.8865301506439836e-02
6.3999999999999932e+00 +9.1291844807242590e+00 +0.0000000000000000e+00 +6.3999995338107105e+00 +1.1365050678531557e-02 -1.0336647613661507e+00 -5.8865588713916506e-02
6.4999999999999929e+00 +9.1291178545419509e+00 +0.0000000000000000e+00 +6.4999995116150222e+00 +1.1364882985892673e-02 -1.0336645444117567e+00 -5.8865885267531538e-02
6.5999999999999925e+00 +9.1290501954103966e+00 +0.0000000000000000e+00 +6.5999994887257847e+00 +1.1364713299569345e-02 -1.0336643221640394e+00 -5.8866191244115337e-02
6.6999999999999922e+00 +9.1289815033298272e+00 +0.0000000000000000e+00 +6.6999994651323274e+00 +1.1364541836684415e-02 -1.0336640922640172e+00 -5.8866506635817717e-02
6.7999999999999918e+00 +9.1289117783004787e+00 +0.0000000000000000e+00 +6.7999994408239814e+00 +1.1364368867818138e-02 -1.0336638525210777e+00 -5.8866831413431277e-02
6.8999999999999915e+00 +9.1288410203226000e+00 +0.0000000000000000e+00 +6.8999994157900764e+00 +1.1364194663610255e-02 -1.0336636007452424e+00 -5.8867165547546188e-02
6.9999999999999911e+00 +9.1287692293964486e+00 +0.0000000000000000e+00 +6.9999993900199433e+00 +1.1364019494762305e-02 -1.0336633347471758e+00 -5.8867509008539765e-02
7.0999999999999908e+00 +9.1286964055222999e+00 +0.0000000000000000e+00 +7.0999993635029117e+00 +1.1363843632040002e-02 -1.0336630523382002e+00 -5.8867861766565791e-02
7.1999999999999904e+00 +9.1286225487004433e+00 +0.0000000000000000e+00 +7.1999993362283128e+00 +1.1363667346275606e-02 -1.0336627513303067e+00 -5.8868223791544314e-02
7.2999999999999901e+00 +9.1285476589311880e+00 +0.0000000000000000e+00 +7.2999993081854768e+00 +1.1363490908370228e-02 -1.0336624295361672e+00 -5.8868595053150938e-02
7.3999999999999897e+00 +9.1284717362148626e+00 +0.0000000000000000e+00 +7.3999992793637341e+00 +1.1363314589296224e-02 -1.0336620847691471e+00 -5.8868975520806444e-02
7.4999999999999893e+00 +9.1283947805518206e+00 +0.0000000000000000e+00 +7.4999992497524151e+00 +1.1363138660099520e-02 -1.0336617148433183e+00 -5.8869365163666393e-02
7.5999999999999890e+00 +9.1283167919424404e+00 +0.0000000000000000e+00 +7.5999992193408499e+00 +1.1362963391901971e-02 -1.0336613175734692e+00 -5.8869763950610429e-02
7.6999999999999886e+00 +9.1282377703871269e+00 +0.0000000000000000e+00 +7.6999991881183698e+00 +1.1362789055903705e-02 -1.0336608907751188e+00 -5.8870171850232002e-02
7.7999999999999883e+00 +9.1281577158863154e+00 +0.0000000000000000e+00 +7.7999991560743043e+00 +1.1362615923385465e-02 -1.0336604322645293e+00 -5.8870588830827776e-02
7.8999999999999879e+00 +9.1280766284404731e+00 +0.0000000000000000e+00 +7.8999991231979854e+00 +1.1362444265710972e-02 -1.0336599398587165e+00 -5.8871014860387184e-02
7.9999999999999876e+00 +9.1279945080501008e+00 +0.0000000000000000e+00 +7.9999990894787425e+00 +1.1362274354329240e-02 -1.0336594113754622e+00 -5.8871449906581906e-02
8.0999999999999872e+00 +9.1279113547157351e+00 +0.0000000000000000e+00 +8.0999990549059060e+00 +1.1362106460776959e-02 -1.0336588446333290e+00 -5.8871893936755432e-02
8.1999999999999869e+00 +9.1278271684379533e+00 +0.0000000000000000e+00 +8.1999990194688088e+00 +1.1361940856680795e-02 -1.0336582374516692e+00 -5.8872346917912530e-02
8.2999999999999865e+00 +9.1277419492173699e+00 +0.0000000000000000e+00 +8.2999989831567795e+00 +1.1361777813759757e-02 -1.0336575876506382e+00 -5.8872808816708755e-02
8.3999999999999861e+00 +9.1276556970546423e+00 +0.0000000000000000e+00 +8.3999989459591493e+00 +1.1361617603827541e-02 -1.0336568930512082e+00 -5.8873279599440019e-02
8.4999999999999858e+00 +9.1275684119504756e+00 +0.0000000000000000e+00 +8.4999989078652511e+00 +1.1361460498794848e-02 -1.0336561514751788e+00 -5.8873759232032030e-02
8.5999999999999854e+00 +9.1274800939056195e+00 +0.0000000000000000e+00 +8.5999988688644144e+00 +1.1361306684649290e-02 -1.0336553623566536e+00 -5.8874247561229581e-02
8.6999999999999851e+00 +9.1273907429208716e+00 +0.0000000000000000e+00 +8.6999988289459687e+00 +1.1361156003308554e-02 -1.0336545315758980e+00 -5.8874743958278207e-02
8.7999999999999847e+00 +9.1273003589970720e+00 +0.0000000000000000e+00 +8.7999987880992467e+00 +1.1361008210569254e-02 -1.0336536666234635e+00 -5.8875247675514907e-02
8.8999999999999844e+00 +9.1272089421350930e+00 +0.0000000000000000e+00 +8.8999987463135799e+00 +1.1360863062113926e-02 -1.0336527749883786e+00 -5.8875757965201655e-02
8.9999999999999840e+00 +9.1271164923358352e+00 +0.0000000000000000e+00 +8.9999987035782993e+00 +1.1360720313507249e-02 -1.0336518641580918e+00 -5.8876274079524220e-02
9.0999999999999837e+00 +9.1270230096002170e+00 +0.0000000000000000e+00 +9.0999986598827363e+00 +1.1360579720192289e-02 -1.0336509416184145e+00 -5.8876795270591163e-02
9.1999999999999833e+00 +9.1269284939291708e+00 +0.0000000000000000e+00 +9.1999986152162219e+00 +1.1360441037486742e-02 -1.0336500148534689e+00 -5.8877320790432681e-02
9.2999999999999829e+00 +9.1268329453236330e+00 +0.0000000000000000e+00 +9.2999985695680873e+00 +1.1360304020579194e-02 -1.0336490913456313e+00 -5.8877849890999638e-02
9.3999999999999826e+00 +9.1267363637845342e+00 +0.0000000000000000e+00 +9.3999985229276639e+00 +1.1360168424525328e-02 -1.0336481785754761e+00 -5.8878381824162329e-02
9.4999999999999822e+00 +9.1266387493127965e+00 +0.0000000000000000e+00 +9.4999984752842828e+00 +1.1360034004244200e-02 -1.0336472840217221e+00 -5.8878915841709574e-02
9.5999999999999819e+00 +9.1265401019093240e+00 +0.0000000000000000e+00 +9.5999984266272751e+00 +1.1359900514514475e-02 -1.0336464151611773e+00 -5.8879451195347515e-02
9.6999999999999815e+00 +9.1264404215749959e+00 +0.0000000000000000e+00 +9.6999983769459721e+00 +1.1359767709970671e-02 -1.0336455794686807e+00 -5.8879987136698592e-02
9.7999999999999812e+00 +9.1263397083106561e+00 +0.0000000000000000e+00 +9.7999983262297068e+00 +1.1359635345099400e-02 -1.0336447844170511e+00 -5.8880522917300483e-02
9.8999999999999808e+00 +9.1262379621171092e+00 +0.0000000000000000e+00 +9.8999982744678086e+00 +1.1359503174235635e-02 -1.0336440374770270e+00 -5.8881057788604994e-02
9.9999999999999805e+00 +9.1261351829951121e+00 +0.0000000000000000e+00 +9.9999982216496104e+00 +1.1359370951558942e-02 -1.0336433461172163e+00 -5.8881591001977089e-02
1.0099999999999980e+01 +9.1260313709453662e+00 +0.0000000000000000e+00 +1.0099998167764443e+01 +1.1359238431089739e-02 -1.0336427178040359e+00 -5.8882121808693684e-02
1.0199999999999980e+01 +9.1259265259685094e+00 +0.0000000000000000e+00 +1.0199998112801637e+01 +1.1359105366685536e-02 -1.0336421600016590e+00 -5.8882649459942683e-02
1.0299999999999979e+01 +9.1258206480651101e+00 +0.0000000000000000e+00 +1.0299998056750525e+01 +1.1358971512037207e-02 -1.0336416801719579e+00 -5.8883173206821932e-02
1.0399999999999979e+01 +9.1257137372356585e+00 +0.0000000000000000e+00 +1.0399997999600437e+01 +1.1358836620665223e-02 -1.0336412857744506e+00 -5.8883692300338117e-02
1.0499999999999979e+01 +9.1256057934805597e+00 +0.0000000000000000e+00 +1.0499997941340704e+01 +1.1358700445915906e-02 -1.0336409842662411e+00 -5.8884205991405689e-02
1.0599999999999978e+01 +9.1254968168001263e+00 +0.0000000000000000e+00 +1.0599997881960658e+01 +1.1358562820995082e-02 -1.0336407809000188e+00 -5.8884713599574687e-02
1.0699999999999978e+01 +9.1253868071945732e+00 +0.0000000000000000e+00 +1.0699997821449628e+01 +1.1358423899193776e-02 -1.0336406721192442e+00 -5.8885214719341293e-02
1.0799999999999978e+01 +9.1252757646640195e+00 +0.0000000000000000e+00 +1.0799997759796947e+01 +1.1358283913936359e-02 -1.0336406521671295e+00 -5.8885709014144437e-02
1.0899999999999977e+01 +9.1251636892085006e+00 +0.0000000000000000e+00 +1.0899997696991944e+01 +1.1358143098760392e-02 -1.0336407152893223e+00 -5.8886196147661662e-02
1.0999999999999977e+01 +9.1250505808279634e+00 +0.0000000000000000e+00 +1.0999997633023950e+01 +1.1358001687319760e-02 -1.0336408557339687e+00 -5.8886675783815630e-02
1.1099999999999977e+01 +9.1249364395222816e+00 +0.0000000000000000e+00 +1.1099997567882296e+01 +1.1357859913387763e-02 -1.0336410677517718e+00 -5.8887147586780764e-02
1.1199999999999976e+01 +9.1248212652912546e+00 +0.0000000000000000e+00 +1.1199997501556313e+01 +1.1357718010860192e-02 -1.0336413455960540e+00 -5.8887611220989726e-02
1.1299999999999976e+01 +9.1247050581346176e+00 +0.0000000000000000e+00 +1.1299997434035330e+01 +1.1357576213758437e-02 -1.0336416835228177e+00 -5.8888066351139814e-02
1.1399999999999975e+01 +9.1245878180520474e+00 +0.0000000000000000e+00 +1.1399997365308677e+01 +1.1357434756232583e-02 -1.0336420757908078e+00 -5.8888512642199839e-02
1.1499999999999975e+01 +9.1244695450431639e+00 +0.0000000000000000e+00 +1.1499997295365684e+01 +1.1357293872564483e-02 -1.0336425166615699e+00 -5.8888949759416269e-02
1.1599999999999975e+01 +9.1243502391075406e+00 +0.0000000000000000e+00 +1.1599997224195683e+01 +1.1357153797170880e-02 -1.0336430003995134e+00 -5.8889377368320103e-02
1.1699999999999974e+01 +9.1242299002447051e+00 +0.0000000000000000e+00 +1.1699997151788002e+01 +1.1357014764606460e-02 -1.0336435212719721e+00 -5.8889795134733150e-02
1.1799999999999974e+01 +9.1241085284541530e+00 +0.0000000000000000e+00 +1.1799997078131973e+01 +1.1356877009566980e-02 -1.0336440735492671e+00 -5.8890202724774847e-02
