# field on trajectory
# s[mm] rx[mm] ry[mm] rz[mm] bx[T] by[T] bz[T]
0.0000000000000000e+00 +9.1381999999999994e+00 +0.0000000000000000e+00 +0.0000000000000000e+00 +1.1125385130488379e-02 -1.0319318458895588e+00 -5.8948550134351213e-02
-1.0000000000000001e-01 +9.1381994843917305e+00 +0.0000000000000000e+00 -9.9999999998227673e-02 +1.1125429801310505e-02 -1.0319275394150473e+00 -5.8947908659509420e-02
-2.0000000000000001e-01 +9.1381979375697799e+00 +0.0000000000000000e+00 -1.9999999998582130e-01 +1.1125477717248948e-02 -1.0319233134000814e+00 -5.8947259160680152e-02
-3.0000000000000004e-01 +9.1381953595383703e+00 +0.0000000000000000e+00 -2.9999999995214699e-01 +1.1125527706253562e-02 -1.0319191740305318e+00 -5.8946602452829955e-02
-4.0000000000000002e-01 +9.1381917503016385e+00 +0.0000000000000000e+00 -3.9999999988657098e-01 +1.1125578596273616e-02 -1.0319151274915626e+00 -5.8945939350926450e-02
-5.0000000000000000e-01 +9.1381871098636278e+00 +0.0000000000000000e+00 -4.9999999977845955e-01 +1.1125629215251209e-02 -1.0319111799676266e+00 -5.8945270669938932e-02
-5.9999999999999998e-01 +9.1381814382282833e+00 +0.0000000000000000e+00 -5.9999999961717920e-01 +1.1125678391114599e-02 -1.0319073376424603e+00 -5.8944597224839052e-02
-6.9999999999999996e-01 +9.1381747353994438e+00 +0.0000000000000000e+00 -6.9999999939209656e-01 +1.1125724951771625e-02 -1.0319036066990788e+00 -5.8943919830601633e-02
-7.9999999999999993e-01 +9.1381670013808378e+00 +0.0000000000000000e+00 -7.9999999909257824e-01 +1.1125767725103024e-02 -1.0318999933197679e+00 -5.8943239302205040e-02
-8.9999999999999991e-01 +9.1381582361760767e+00 +0.0000000000000000e+00 -8.9999999870799108e-01 +1.1125805538955858e-02 -1.0318965036860852e+00 -5.8942556454632200e-02
-9.9999999999999989e-01 +9.1381484397886492e+00 +0.0000000000000000e+00 -9.9999999822770202e-01 +1.1125837221136836e-02 -1.0318931439788463e+00 -5.8941872102870940e-02
-1.0999999999999999e+00 +9.1381376122219127e+00 +0.0000000000000000e+00 -1.0999999976410779e+00 +1.1125861599405708e-02 -1.0318899203781271e+00 -5.8941187061914910e-02
-1.2000000000000000e+00 +9.1381257534790894e+00 +0.0000000000000000e+00 -1.1999999969374859e+00 +1.1125877501468658e-02 -1.0318868390632532e+00 -5.8940502146764058e-02
-1.3000000000000000e+00 +9.1381128635632578e+00 +0.0000000000000000e+00 -1.2999999961062931e+00 +1.1125883754971644e-02 -1.0318839062127996e+00 -5.8939818172425516e-02
-1.4000000000000001e+00 +9.1380989424773507e+00 +0.0000000000000000e+00 -1.3999999951368669e+00 +1.1125879187493784e-02 -1.0318811280045808e+00 -5.8939135953914021e-02
-1.5000000000000002e+00 +9.1380839902241462e+00 +0.0000000000000000e+00 -1.4999999940185744e+00 +1.1125862626540734e-02 -1.0318785106156467e+00 -5.8938456306252704e-02
-1.6000000000000003e+00 +9.1380680068062592e+00 +0.0000000000000000e+00 -1.5999999927407831e+00 +1.1125833272550239e-02 -1.0318760583636648e+00 -5.8937779914465117e-02
-1.7000000000000004e+00 +9.1380509922261446e+00 +0.0000000000000000e+00 -1.6999999912928603e+00 +1.1125791817957430e-02 -1.0318737681310757e+00 -5.8937106943545647e-02
-1.8000000000000005e+00 +9.1380329464860903e+00 +0.0000000000000000e+00 -1.7999999896641736e+00 +1.1125739328220172e-02 -1.0318716349409578e+00 -5.8936437428478143e-02
-1.9000000000000006e+00 +9.1380138695882334e+00 +0.0000000000000000e+00 -1.8999999878440903e+00 +1.1125676868824094e-02 -1.0318696538156436e+00 -5.8935771404242443e-02
-2.0000000000000004e+00 +9.1379937615345543e+00 +0.0000000000000000e+00 -1.9999999858219781e+00 +1.1125605505291918e-02 -1.0318678197767190e+00 -5.8935108905813230e-02
-2.1000000000000005e+00 +9.1379726223268882e+00 +0.0000000000000000e+00 -2.0999999835872045e+00 +1.1125526303192797e-02 -1.0318661278450267e+00 -5.8934449968158761e-02
-2.2000000000000006e+00 +9.1379504519669297e+00 +0.0000000000000000e+00 -2.1999999811291371e+00 +1.1125440328151661e-02 -1.0318645730406608e+00 -5.8933794626239697e-02
-2.3000000000000007e+00 +9.1379272504562348e+00 +0.0000000000000000e+00 -2.2999999784371434e+00 +1.1125348645858535e-02 -1.0318631503829696e+00 -5.8933142915007848e-02
-2.4000000000000008e+00 +9.1379030177962264e+00 +0.0000000000000000e+00 -2.3999999755005912e+00 +1.1125252322077924e-02 -1.0318618548905556e+00 -5.8932494869404974e-02
-2.5000000000000009e+00 +9.1378777539882048e+00 +0.0000000000000000e+00 -2.4999999723088480e+00 +1.1125152422658104e-02 -1.0318606815812723e+00 -5.8931850524361604e-02
-2.6000000000000010e+00 +9.1378514590333442e+00 +0.0000000000000000e+00 -2.5999999688512818e+00 +1.1125050013540484e-02 -1.0318596254722268e+00 -5.8931209914795821e-02
-2.7000000000000011e+00 +9.1378241329327032e+00 +0.0000000000000000e+00 -2.6999999651172599e+00 +1.1124946160768947e-02 -1.0318586815797792e+00 -5.8930573075611954e-02
-2.8000000000000012e+00 +9.1377957756872288e+00 +0.0000000000000000e+00 -2.7999999610961499e+00 +1.1124841930499167e-02 -1.0318578449195392e+00 -5.8929940041699484e-02
-2.9000000000000012e+00 +9.1377663872977593e+00 +0.0000000000000000e+00 -2.8999999567773198e+00 +1.1124738389007989e-02 -1.0318571105063703e+00 -5.8929310847931779e-02
-3.0000000000000013e+00 +9.1377359677650336e+00 +0.0000000000000000e+00 -2.9999999521501368e+00 +1.1124636602702718e-02 -1.0318564733543858e+00 -5.8928685529164880e-02
-3.1000000000000014e+00 +9.1377045170896913e+00 +0.0000000000000000e+00 -3.0999999472039690e+00 +1.1124537638130490e-02 -1.0318559284769506e+00 -5.8928064120236309e-02
-3.2000000000000015e+00 +9.1376720352722813e+00 +0.0000000000000000e+00 -3.1999999419281835e+00 +1.1124442561987604e-02 -1.0318554708866805e+00 -5.8927446655963812e-02
-3.3000000000000016e+00 +9.1376385223132637e+00 +0.0000000000000000e+00 -3.2999999363121484e+00 +1.1124352441128853e-02 -1.0318550955954409e+00 -5.8926833171144236e-02
-3.4000000000000017e+00 +9.1376039782130185e+00 +0.0000000000000000e+00 -3.3999999303452308e+00 +1.1124268342576864e-02 -1.0318547976143477e+00 -5.8926223700552206e-02
-3.5000000000000018e+00 +9.1375684029718460e+00 +0.0000000000000000e+00 -3.4999999240167989e+00 +1.1124191333531439e-02 -1.0318545719537660e+00 -5.8925618278939017e-02
-3.6000000000000019e+00 +9.1375317965899772e+00 +0.0000000000000000e+00 -3.5999999173162198e+00 +1.1124122199182093e-02 -1.0318544142874118e+00 -5.8925016835774544e-02
-3.7000000000000020e+00 +9.1374941590675736e+00 +0.0000000000000000e+00 -3.6999999102328611e+00 +1.1124060596028083e-02 -1.0318543229447799e+00 -5.8924418879488745e-02
-3.8000000000000020e+00 +9.1374554904047312e+00 +0.0000000000000000e+00 -3.7999999027560905e+00 +1.1124005898301731e-02 -1.0318542969190700e+00 -5.8923823813266510e-02
-3.9000000000000021e+00 +9.1374157906014783e+00 +0.0000000000000000e+00 -3.8999998948752754e+00 +1.1123957480132946e-02 -1.0318543352031366e+00 -5.8923231040309797e-02
-4.0000000000000018e+00 +9.1373750596577832e+00 +0.0000000000000000e+00 -3.9999998865797832e+00 +1.1123914715538729e-02 -1.0318544367895144e+00 -5.8922639963839445e-02
-4.1000000000000014e+00 +9.1373332975735480e+00 +0.0000000000000000e+00 -4.0999998778589815e+00 +1.1123876978412724e-02 -1.0318546006704448e+00 -5.8922049987096575e-02
-4.2000000000000011e+00 +9.1372905043486128e+00 +0.0000000000000000e+00 -4.1999998687022373e+00 +1.1123843642514713e-02 -1.0318548258378992e+00 -5.8921460513344348e-02
-4.3000000000000007e+00 +9.1372466799827574e+00 +0.0000000000000000e+00 -4.2999998590989188e+00 +1.1123814081460150e-02 -1.0318551112836043e+00 -5.8920870945869591e-02
-4.4000000000000004e+00 +9.1372018244757012e+00 +0.0000000000000000e+00 -4.3999998490383927e+00 +1.1123787668709709e-02 -1.0318554559990696e+00 -5.8920280687984376e-02
-4.5000000000000000e+00 +9.1371559378271048e+00 +0.0000000000000000e+00 -4.4999998385100266e+00 +1.1123763777558771e-02 -1.0318558589756082e+00 -5.8919689143027656e-02
-4.5999999999999996e+00 +9.1371090200365703e+00 +0.0000000000000000e+00 -4.5999998275031873e+00 +1.1123741781126965e-02 -1.0318563192043659e+00 -5.8919095714366911e-02
-4.6999999999999993e+00 +9.1370610711036431e+00 +0.0000000000000000e+00 -4.6999998160072431e+00 +1.1123721052347700e-02 -1.0318568356763431e+00 -5.8918499805399788e-02
-4.7999999999999989e+00 +9.1370120910278132e+00 +0.0000000000000000e+00 -4.7999998040115601e+00 +1.1123700963957664e-02 -1.0318574073824227e+00 -5.8917900819555703e-02
-4.8999999999999986e+00 +9.1369620798085123e+00 +0.0000000000000000e+00 -4.8999997915055058e+00 +1.1123680888486360e-02 -1.0318580333133918e+00 -5.8917298160297456e-02
-4.9999999999999982e+00 +9.1369110374451221e+00 +0.0000000000000000e+00 -4.9999997784784478e+00 +1.1123660198245632e-02 -1.0318587124599703e+00 -5.8916691231122954e-02
-5.0999999999999979e+00 +9.1368589639369695e+00 +0.0000000000000000e+00 -5.0999997649197528e+00 +1.1123638265319164e-02 -1.0318594438128335e+00 -5.8916079435566725e-02
-5.1999999999999975e+00 +9.1368058592833279e+00 +0.0000000000000000e+00 -5.1999997508187876e+00 +1.1123614461552014e-02 -1.0318602263626382e+00 -5.8915462177201575e-02
-5.2999999999999972e+00 +9.1367517234834228e+00 +0.0000000000000000e+00 -5.2999997361649189e+00 +1.1123588158540145e-02 -1.0318610591000468e+00 -5.8914838859640377e-02
-5.3999999999999968e+00 +9.1366965565364264e+00 +0.0000000000000000e+00 -5.3999997209475143e+00 +1.1123558727619904e-02 -1.0318619410157519e+00 -5.8914208886537416e-02
-5.4999999999999964e+00 +9.1366403584414648e+00 +0.0000000000000000e+00 -5.4999997051559406e+00 +1.1123525539857583e-02 -1.0318628711005049e+00 -5.8913571661590287e-02
-5.5999999999999961e+00 +9.1365831291976125e+00 +0.0000000000000000e+00 -5.5999996887795644e+00 +1.1123488133174242e-02 -1.0318638494912578e+00 -5.8912926810669355e-02
-5.6999999999999957e+00 +9.1365248688038996e+00 +0.0000000000000000e+00 -5.6999996718077526e+00 +1.1123446713899586e-02 -1.0318648809092634e+00 -5.8912274848238889e-02
-5.7999999999999954e+00 +9.1364655772592993e+00 +0.0000000000000000e+00 -5.7999996542298717e+00 +1.1123401655628359e-02 -1.0318659712211078e+00 -5.8911616511020802e-02
-5.8999999999999950e+00 +9.1364052545627281e+00 +0.0000000000000000e+00 -5.8999996360352887e+00 +1.1123353332128910e-02 -1.0318671262924628e+00 -5.8910952535874667e-02
-5.9999999999999947e+00 +9.1363439007130385e+00 +0.0000000000000000e+00 -5.9999996172133692e+00 +1.1123302117352941e-02 -1.0318683519880674e+00 -5.8910283659803088e-02
-6.0999999999999943e+00 +9.1362815157090118e+00 +0.0000000000000000e+00 -6.0999995977534809e+00 +1.1123248385445308e-02 -1.0318696541717101e+00 -5.8909610619956990e-02
-6.1999999999999940e+00 +9.1362180995493532e+00 +0.0000000000000000e+00 -6.1999995776449897e+00 +1.1123192510753757e-02 -1.0318710387062067e+00 -5.8908934153640902e-02
-6.2999999999999936e+00 +9.1361536522326841e+00 +0.0000000000000000e+00 -6.2999995568772613e+00 +1.1123134867838716e-02 -1.0318725114533833e+00 -5.8908254998318275e-02
-6.3999999999999932e+00 +9.1360881737575390e+00 +0.0000000000000000e+00 -6.3999995354396626e+00 +1.1123075831483061e-02 -1.0318740782740563e+00 -5.8907573891616737e-02
-6.4999999999999929e+00 +9.1360216641223602e+00 +0.0000000000000000e+00 -6.4999995133215593e+00 +1.1123015776701890e-02 -1.0318757450280092e+00 -5.8906891571333476e-02
-6.5999999999999925e+00 +9.1359541233254866e+00 +0.0000000000000000e+00 -6.5999994905123174e+00 +1.1122955078752293e-02 -1.0318775175739787e+00 -5.8906208775440456e-02
-6.6999999999999922e+00 +9.1358855513651562e+00 +0.0000000000000000e+00 -6.6999994670013026e+00 +1.1122894113143128e-02 -1.0318794017696300e+00 -5.8905526242089667e-02
-6.7999999999999918e+00 +9.1358159482394914e+00 +0.0000000000000000e+00 -6.7999994427778807e+00 +1.1122833255644806e-02 -1.0318814034715411e+00 -5.8904844709618674e-02
-6.8999999999999915e+00 +9.1357453139464990e+00 +0.0000000000000000e+00 -6.8999994178314177e+00 +1.1122772882299063e-02 -1.0318835285351806e+00 -5.8904164916555569e-02
-6.9999999999999911e+00 +9.1356736484840617e+00 +0.0000000000000000e+00 -6.9999993921512784e+00 +1.1122713369428737e-02 -1.0318857828148884e+00 -5.8903487601624560e-02
-7.0999999999999908e+00 +9.1356009518499341e+00 +0.0000000000000000e+00 -7.0999993657268288e+00 +1.1122655093647562e-02 -1.0318881721638573e+00 -5.8902813503751095e-02
-7.1999999999999904e+00 +9.1355272240417360e+00 +0.0000000000000000e+00 -7.1999993385474337e+00 +1.1122598431869926e-02 -1.0318907024341122e+00 -5.8902143362067241e-02
-7.2999999999999901e+00 +9.1354524650569466e+00 +0.0000000000000000e+00 -7.2999993106024581e+00 +1.1122543761320693e-02 -1.0318933794764917e+00 -5.8901477915917010e-02
-7.3999999999999897e+00 +9.1353766748928980e+00 +0.0000000000000000e+00 -7.3999992818812661e+00 +1.1122491459544954e-02 -1.0318962091406259e+00 -5.8900817904861492e-02
-7.4999999999999893e+00 +9.1352998535467709e+00 +0.0000000000000000e+00 -7.4999992523732226e+00 +1.1122441904417833e-02 -1.0318991972749199e+00 -5.8900164068684431e-02
-7.5999999999999890e+00 +9.1352220010155865e+00 +0.0000000000000000e+00 -7.5999992220676917e+00 +1.1122395368823961e-02 -1.0319023459702381e+00 -5.8899517062264047e-02
-7.6999999999999886e+00 +9.1351431172962059e+00 +0.0000000000000000e+00 -7.6999991909540375e+00 +1.1122351704451725e-02 -1.0319056422914241e+00 -5.8898877200055683e-02
-7.7999999999999883e+00 +9.1350632023853464e+00 +0.0000000000000000e+00 -7.7999991590216240e+00 +1.1122310657412709e-02 -1.0319090695476798e+00 -5.8898244711293117e-02
-7.8999999999999879e+00 +9.1349822562795939e+00 +0.0000000000000000e+00 -7.8999991262598153e+00 +1.1122271973512654e-02 -1.0319126110492671e+00 -5.8897619825091195e-02
-7.9999999999999876e+00 +9.1349002789754188e+00 +0.0000000000000000e+00 -7.9999990926579745e+00 +1.1122235398240119e-02 -1.0319162501075640e+00 -5.8897002770439827e-02
-8.0999999999999872e+00 +9.1348172704691937e+00 +0.0000000000000000e+00 -8.0999990582054657e+00 +1.1122200676755126e-02 -1.0319199700351185e+00 -5.8896393776197917e-02
-8.1999999999999869e+00 +9.1347332307572131e+00 +0.0000000000000000e+00 -8.1999990228916513e+00 +1.1122167553877840e-02 -1.0319237541457020e+00 -5.8895793071087228e-02
-8.2999999999999865e+00 +9.1346481598357041e+00 +0.0000000000000000e+00 -8.2999989867058925e+00 +1.1122135774077193e-02 -1.0319275857543668e+00 -5.8895200883686424e-02
-8.3999999999999861e+00 +9.1345620577008493e+00 +0.0000000000000000e+00 -8.3999989496375544e+00 +1.1122105081459558e-02 -1.0319314481775002e+00 -5.8894617442424968e-02
-8.4999999999999858e+00 +9.1344749243487993e+00 +0.0000000000000000e+00 -8.4999989116759984e+00 +1.1122075219757391e-02 -1.0319353247328773e+00 -5.8894042975576981e-02
-8.5999999999999854e+00 +9.1343867597756905e+00 +0.0000000000000000e+00 -8.5999988728105876e+00 +1.1122045932317883e-02 -1.0319391987397200e+00 -5.8893477711255290e-02
-8.6999999999999851e+00 +9.1342975639776629e+00 +0.0000000000000000e+00 -8.6999988330306852e+00 +1.1122016962091613e-02 -1.0319430535187490e+00 -5.8892921877405323e-02
-8.7999999999999847e+00 +9.1342073369508743e+00 +0.0000000000000000e+00 -8.7999987923256526e+00 +1.1121988051621170e-02 -1.0319468723922385e+00 -5.8892375701798935e-02
-8.8999999999999844e+00 +9.1341160786915196e+00 +0.0000000000000000e+00 -8.8999987506848512e+00 +1.1121958943029829e-02 -1.0319506386840742e+00 -5.8891839412028468e-02
-8.9999999999999840e+00 +9.1340237891958473e+00 +0.0000000000000000e+00 -8.9999987080976442e+00 +1.1121929378010178e-02 -1.0319543357198064e+00 -5.8891313235500647e-02
-9.0999999999999837e+00 +9.1339304684601732e+00 +0.0000000000000000e+00 -9.0999986645533930e+00 +1.1121899097812757e-02 -1.0319579468267068e+00 -5.8890797399430428e-02
-9.1999999999999833e+00 +9.1338361164809001e+00 +0.0000000000000000e+00 -9.1999986200414607e+00 +1.1121867843234703e-02 -1.0319614553338203e+00 -5.8890292130835013e-02
-9.2999999999999829e+00 +9.1337407332545340e+00 +0.0000000000000000e+00 -9.2999985745512070e+00 +1.1121835354608383e-02 -1.0319648445720253e+00 -5.8889797656527645e-02
-9.3999999999999826e+00 +9.1336443187776997e+00 +0.0000000000000000e+00 -9.3999985280719969e+00 +1.1121801371790039e-02 -1.0319680978740857e+00 -5.8889314203111692e-02
-9.4999999999999822e+00 +9.1335468730471572e+00 +0.0000000000000000e+00 -9.4999984805931899e+00 +1.1121765634148413e-02 -1.0319711985747071e+00 -5.8888841996974396e-02
-9.5999999999999819e+00 +9.1334483960598192e+00 +0.0000000000000000e+00 -9.5999984321041492e+00 +1.1121727984640130e-02 -1.0319741343275861e+00 -5.8888381165846583e-02
-9.6999999999999815e+00 +9.1333488878127618e+00 +0.0000000000000000e+00 -9.6999983825942380e+00 +1.1121688682376034e-02 -1.0319769100570113e+00 -5.8887931443567632e-02
-9.7999999999999812e+00 +9.1332483483032210e+00 +0.0000000000000000e+00 -9.7999983320528177e+00 +1.1121648090872778e-02 -1.0319795350061498e+00 -5.8887492465555087e-02
-9.8999999999999808e+00 +9.1331467775285837e+00 +0.0000000000000000e+00 -9.8999982804692497e+00 +1.1121606574041891e-02 -1.0319820184196391e+00 -5.8887063867271501e-02
-9.9999999999999805e+00 +9.1330441754863791e+00 +0.0000000000000000e+00 -9.9999982278328972e+00 +1.1121564496201662e-02 -1.0319843695436270e+00 -5.8886645284225665e-02
-1.0099999999999980e+01 +9.1329405421742678e+00 +0.0000000000000000e+00 -1.0099998174133123e+01 +1.1121522222088979e-02 -1.0319865976258074e+00 -5.8886236351973750e-02
-1.0199999999999980e+01 +9.1328358775900327e+00 +0.0000000000000000e+00 -1.0199998119359289e+01 +1.1121480116871221e-02 -1.0319887119154585e+00 -5.8885836706120367e-02
-1.0299999999999979e+01 +9.1327301817315707e+00 +0.0000000000000000e+00 -1.0299998063500759e+01 +1.1121438546158106e-02 -1.0319907216634772e+00 -5.8885445982319713e-02
-1.0399999999999979e+01 +9.1326234545968852e+00 +0.0000000000000000e+00 -1.0399998006546893e+01 +1.1121397876013565e-02 -1.0319926361224192e+00 -5.8885063816276756e-02
-1.0499999999999979e+01 +9.1325156961840737e+00 +0.0000000000000000e+00 -1.0499997948487055e+01 +1.1121358472967606e-02 -1.0319944645465344e+00 -5.8884689843748346e-02
-1.0599999999999978e+01 +9.1324069064913189e+00 +0.0000000000000000e+00 -1.0599997889310607e+01 +1.1121320704028182e-02 -1.0319962161918041e+00 -5.8884323700544389e-02
-1.0699999999999978e+01 +9.1322970855168819e+00 +0.0000000000000000e+00 -1.0699997829006914e+01 +1.1121284936693064e-02 -1.0319979003159763e+00 -5.8883965022528871e-02
-1.0799999999999978e+01 +9.1321862332590911e+00 +0.0000000000000000e+00 -1.0799997767565337e+01 +1.1121251538961693e-02 -1.0319995261786055e+00 -5.8883613445621243e-02
-1.0899999999999977e+01 +9.1320743497163317e+00 +0.0000000000000000e+00 -1.0899997704975238e+01 +1.1121220879347082e-02 -1.0320011030410881e+00 -5.8883268605797283e-02
-1.0999999999999977e+01 +9.1319614348870388e+00 +0.0000000000000000e+00 -1.0999997641225981e+01 +1.1121193326887654e-02 -1.0320026401666975e+00 -5.8882930139090482e-02
-1.1099999999999977e+01 +9.1318474887696883e+00 +0.0000000000000000e+00 -1.1099997576306929e+01 +1.1121169251159123e-02 -1.0320041468206247e+00 -5.8882597681593117e-02
-1.1199999999999976e+01 +9.1317325113627863e+00 +0.0000000000000000e+00 -1.1199997510207444e+01 +1.1121149022286369e-02 -1.0320056322700111e+00 -5.8882270869457402e-02
-1.1299999999999976e+01 +9.1316165026648584e+00 +0.0000000000000000e+00 -1.1299997442916888e+01 +1.1121133010955304e-02 -1.0320071057839870e+00 -5.8881949338896657e-02
-1.1399999999999975e+01 +9.1314994626744443e+00 +0.0000000000000000e+00 -1.1399997374424625e+01 +1.1121121588424741e-02 -1.0320085766337082e+00 -5.8881632726186461e-02
-1.1499999999999975e+01 +9.1313813913900859e+00 +0.0000000000000000e+00 -1.1499997304720017e+01 +1.1121115126538277e-02 -1.0320100540923924e+00 -5.8881320667665896e-02
-1.1599999999999975e+01 +9.1312622888103192e+00 +0.0000000000000000e+00 -1.1599997233792426e+01 +1.1121113866132012e-02 -1.0320115457734818e+00 -5.8881012878790114e-02
-1.1699999999999974e+01 +9.1311421549336664e+00 +0.0000000000000000e+00 -1.1699997161631215e+01 +1.1121117521833198e-02 -1.0320130526430988e+00 -5.8880709391337979e-02
