# multipoles
# s[mm] polynom_b[n=0][T/m^n] polynom_b[n=1][T/m^n] polynom_b[n=2][T/m^n] polynom_b[n=3][T/m^n] polynom_b[n=4][T/m^n] polynom_b[n=5][T/m^n] polynom_b[n=6][T/m^n] 
-0.0000000000000000e+00 -1.0338039632427145e+00 +2.2939696056161356e+00 +2.7140656670905233e+01 -1.5815100567754024e+02 -1.3495887859932694e+05 +1.1932495275072898e+06 +6.9349284946319222e+08 
-1.0005104645227200e-01 -1.0338010760688436e+00 +2.2938891064458771e+00 +2.7239214420726441e+01 -1.6186544934782171e+02 -1.3753441545913185e+05 +1.2170447674561460e+06 +7.0664156029414749e+08 
-2.0010209290454301e-01 -1.0337980395446902e+00 +2.2938017247546534e+00 +2.7328928101134906e+01 -1.6541621987710857e+02 -1.3997236783898418e+05 +1.2400905680684429e+06 +7.1918955399307787e+08 
-3.0015313935681498e-01 -1.0337948636732528e+00 +2.2937074275119977e+00 +2.7410363894510038e+01 -1.6879937128605937e+02 -1.4228163435977272e+05 +1.2623359809531427e+06 +7.3117785298817742e+08 
-4.0020418580908601e-01 -1.0337915584574138e+00 +2.2936061817476459e+00 +2.7484087968080914e+01 -1.7201095917316039e+02 -1.4447111336467983e+05 +1.2837300667557812e+06 +7.4264747840370321e+08 
-5.0025523226135804e-01 -1.0337881339000654e+00 +2.2934979545507690e+00 +2.7550666491056393e+01 -1.7504704074876730e+02 -1.4654970324060420e+05 +1.3042218954516798e+06 +7.5363945157712495e+08 
-6.0030627871362996e-01 -1.0337846000038944e+00 +2.2933827130618796e+00 +2.7610665607833642e+01 -1.7790367464042097e+02 -1.4852630189623308e+05 +1.3237605452750667e+06 +7.6419479154745901e+08 
-7.0035732516590099e-01 -1.0337809667716291e+00 +2.2932604244753407e+00 +2.7664651467750954e+01 -1.8057692105594424e+02 -1.5040980733652940e+05 +1.3422951038072063e+06 +7.7435451781525064e+08 
-8.0040837161817302e-01 -1.0337772442058677e+00 +2.2931310560237792e+00 +2.7713190201337419e+01 -1.8306284137336874e+02 -1.5220911718826587e+05 +1.3597746656389304e+06 +7.8415964802467704e+08 
-9.0045941807044405e-01 -1.0337734423090617e+00 +2.2929945749862179e+00 +2.7756847921942512e+01 -1.8535749842611150e+02 -1.5393312874089534e+05 +1.3761483341246140e+06 +7.9365119819030952e+08 
-1.0005104645227201e+00 -1.0337695710836730e+00 +2.2928509486754818e+00 +2.7796190742204427e+01 -1.8745695620789499e+02 -1.5559073924498912e+05 +1.3913652197577218e+06 +8.0287018407821918e+08 
-1.1005615109749900e+00 -1.0337656405319511e+00 +2.2927001444381254e+00 +2.7831784747135426e+01 -1.8935727992543568e+02 -1.5719084539985986e+05 +1.4053744405748083e+06 +8.1185761877117491e+08 
-1.2006125574272599e+00 -1.0337616606561113e+00 +2.2925421296481634e+00 +2.7864196013455334e+01 -1.9105453587868470e+02 -1.5874234371048553e+05 +1.4181251215241482e+06 +8.2065451434064209e+08 
-1.3006636038795301e+00 -1.0337576414582326e+00 +2.2923768717053861e+00 +2.7893990601197171e+01 -1.9254479146332113e+02 -1.6025413033046611e+05 +1.4295663946024308e+06 +8.2930188110875607e+08 
-1.4007146503318000e+00 -1.0337535929402579e+00 +2.2922043380265080e+00 +2.7921734548100915e+01 -1.9382411498206076e+02 -1.6173510094269938e+05 +1.4396473978180049e+06 +8.3784072705044472e+08 
-1.5007656967840699e+00 -1.0337495251040487e+00 +2.2920244960479401e+00 +2.7947993880517618e+01 -1.9488857576386474e+02 -1.6319415096119445e+05 +1.4483172760231027e+06 +8.4631205874439442e+08 
-1.6008167432363500e+00 -1.0337454465325562e+00 +2.2918374460728375e+00 +2.7973257763325424e+01 -1.9573751251449983e+02 -1.6463878164636102e+05 +1.4555523912990501e+06 +8.5474980656265390e+08 
-1.7008677896886200e+00 -1.0337413602896945e+00 +2.2916438160928450e+00 +2.7997716410396073e+01 -1.9638371943473081e+02 -1.6607106326408705e+05 +1.4614409944574086e+06 +8.6316012754386306e+08 
-1.8009188361408901e+00 -1.0337372680979771e+00 +2.2914443651305114e+00 +2.8021487387821349e+01 -1.9684344798287955e+02 -1.6749174367793891e+05 +1.4661000746952016e+06 +8.7154236269837332e+08 
-1.9009698825931600e+00 -1.0337331716799552e+00 +2.2912398521945563e+00 +2.8044688263814241e+01 -1.9713294950590191e+02 -1.6890157078350734e+05 +1.4696466213173550e+06 +8.7989585310998762e+08 
-2.0010209290454299e+00 -1.0337290727581354e+00 +2.2910310362822561e+00 +2.8067436597457696e+01 -1.9726847531319513e+02 -1.7030129228905195e+05 +1.4721976241964344e+06 +8.8821993887187696e+08 
-2.1010719754977001e+00 -1.0337249730551139e+00 +2.2908186763665590e+00 +2.8089849954607278e+01 -1.9726627630656984e+02 -1.7169165602265636e+05 +1.4738700716163816e+06 +8.9651396054709983e+08 
-2.2011230219499698e+00 -1.0337208742935113e+00 +2.2906035313964135e+00 +2.8112045902167448e+01 -1.9714260299586758e+02 -1.7307340983175510e+05 +1.4747809504377462e+06 +9.0477725871336472e+08 
-2.3011740684022501e+00 -1.0337167781959724e+00 +2.2903863602873011e+00 +2.8134142005730379e+01 -1.9691370523501789e+02 -1.7444730152803625e+05 +1.4750472445897781e+06 +9.1300917365839207e+08 
-2.4012251148545198e+00 -1.0337126864852115e+00 +2.2901679219210314e+00 +2.8156255835017237e+01 -1.9659583221882488e+02 -1.7581407900214341e+05 +1.4747859350554266e+06 +9.2120904595067620e+08 
-2.5012761613067900e+00 -1.0337086008840881e+00 +2.2899489751379876e+00 +2.8178504973433984e+01 -1.9620523227080611e+02 -1.7717449040515732e+05 +1.4741139987053815e+06 +9.2937621729570353e+08 
-2.6013272077590601e+00 -1.0337045231154656e+00 +2.2897302787257496e+00 +2.8201007002378084e+01 -1.9575815250538011e+02 -1.7852928384935448e+05 +1.4731484063477921e+06 +9.3751002909688699e+08 
-2.7013782542113298e+00 -1.0337004549023856e+00 +2.2895125914250696e+00 +2.8223879519257157e+01 -1.9527083901831298e+02 -1.7987920775755367e+05 +1.4720061238506283e+06 +9.4560982413342988e+08 
-2.8014293006636000e+00 -1.0336963979679505e+00 +2.2892966719167873e+00 +2.8247240124854162e+01 -1.9475953652078715e+02 -1.8122501061975627e+05 +1.4708041101024423e+06 +9.5367494538355994e+08 
-2.9014803471158799e+00 -1.0336923540354732e+00 +2.2890832788173094e+00 +2.8271206441702162e+01 -1.9424048819542099e+02 -1.8256744134959360e+05 +1.4696593161463332e+06 +9.6170473772959960e+08 
-3.0015313935681500e+00 -1.0336883248283346e+00 +2.2888731706770842e+00 +2.8295896095362021e+01 -1.9372993567619110e+02 -1.8390724892571085e+05 +1.4686886851351617e+06 +9.6969854624099207e+08 
-3.1015824400204202e+00 -1.0336843120700940e+00 +2.2886671059687145e+00 +2.8321426729218302e+01 -1.9324411869255852e+02 -1.8524518267541309e+05 +1.4680091502680720e+06 +9.7765571751546609e+08 
-3.2016334864726899e+00 -1.0336803174845217e+00 +2.2884658430917098e+00 +2.8347916006812891e+01 -1.9279927523528647e+02 -1.8658199232879799e+05 +1.4677376358140942e+06 +9.8557559996288967e+08 
-3.3016845329249600e+00 -1.0336763427955034e+00 +2.2882701403549777e+00 +2.8375481600052133e+01 -1.9241164103656686e+02 -1.8791842778349089e+05 +1.4679910540933080e+06 +9.9345754264108562e+08 
-3.4017355793772301e+00 -1.0336723897272040e+00 +2.2880807559811203e+00 +2.8404241211901514e+01 -1.9209744971173879e+02 -1.8925523954826160e+05 +1.4688863063797373e+06 +1.0013008973943435e+09 
-3.5017866258295101e+00 -1.0336684600039479e+00 +2.2878984480886086e+00 +2.8434312556589774e+01 -1.9187293228056288e+02 -1.9059317837031063e+05 +1.4705402786956013e+06 +1.0091050169572241e+09 
-3.6018376722817802e+00 -1.0336645552328914e+00 +2.2877237631162837e+00 +2.8465781303703814e+01 -1.9174946561241649e+02 -1.9193268717443896e+05 +1.4730326771438539e+06 +1.0168683251936340e+09 
-3.7018887187340499e+00 -1.0336606765496421e+00 +2.2875564485888407e+00 +2.8498616425680240e+01 -1.9171925066332057e+02 -1.9327316690359166e+05 +1.4762979003037247e+06 +1.0245868844385018e+09 
-3.8019397651863200e+00 -1.0336568249702989e+00 +2.2873960626798526e+00 +2.8532760189062873e+01 -1.9176972432061916e+02 -1.9461379962314133e+05 +1.4802344955097744e+06 +1.0322564672672478e+09 
-3.9019908116385902e+00 -1.0336530015109102e+00 +2.2872421635498563e+00 +2.8568154849014451e+01 -1.9188832334934875e+02 -1.9595376715947682e+05 +1.4847410110018493e+06 +1.0398728451724035e+09 
-4.0020418580908599e+00 -1.0336492071874495e+00 +2.2870943093387783e+00 +2.8604742649087349e+01 -1.9206248415953317e+02 -1.9729225109702698e+05 +1.4897159946712493e+06 +1.0474317885612699e+09 
-4.1020929045431300e+00 -1.0336454430157769e+00 +2.2869520581784144e+00 +2.8642465814527412e+01 -1.9227964317583343e+02 -1.9862843264644456e+05 +1.4950579962842227e+06 +1.0549290661308568e+09 
-4.2021439509954099e+00 -1.0336417100117170e+00 +2.2868149681837613e+00 +2.8681266562339960e+01 -1.9252723656868301e+02 -1.9996149284028783e+05 +1.5006655659068404e+06 +1.0623604458195215e+09 
-4.3021949974476801e+00 -1.0336380091909094e+00 +2.2866825974596119e+00 +2.8721087082377768e+01 -1.9279270046448241e+02 -2.0129061216331538e+05 +1.5064372552681132e+06 +1.0697216930346655e+09 
-4.4022460438999502e+00 -1.0336343415690208e+00 +2.2865545040973676e+00 +2.8761869564576649e+01 -1.9306347083276489e+02 -2.0261497108344408e+05 +1.5122716170812682e+06 +1.0770085732293501e+09 
-4.5022970903522204e+00 -1.0336307081614324e+00 +2.2864302461834525e+00 +2.8803556160550077e+01 -1.9332698372301303e+02 -2.0393374930225304e+05 +1.5180672065084509e+06 +1.0842168482920623e+09 
-4.6023481368044896e+00 -1.0336271099835712e+00 +2.2863093817908355e+00 +2.8846089021783829e+01 -1.9357067503544843e+02 -2.0524612649712933e+05 +1.5237225798560702e+06 +1.0913422801364551e+09 
-4.7023991832567598e+00 -1.0336235480506051e+00 +2.2861914689845562e+00 +2.8889410265655101e+01 -1.9378198066039832e+02 -2.0655128166157473e+05 +1.5291362954642114e+06 +1.0983806275368216e+09 
-4.8024502297090397e+00 -1.0336200233776396e+00 +2.2860760658272969e+00 +2.8933461997025223e+01 -1.9394833663478960e+02 -2.0784839352335592e+05 +1.5342069146107484e+06 +1.1053276481519094e+09 
-4.9025012761613098e+00 -1.0336165369796162e+00 +2.2859627303668990e+00 +2.8978186296245426e+01 -1.9405717879826423e+02 -2.0913664030853979e+05 +1.5388329996427277e+06 +1.1121790973910666e+09 
-5.0025523226135800e+00 -1.0336130898713130e+00 +2.2858510206557443e+00 +2.9023525221295845e+01 -1.9409594332184651e+02 -2.1041519978747802e+05 +1.5429131170289747e+06 +1.1189307286627562e+09 
-5.1026033690658501e+00 -1.0336096830673756e+00 +2.2857404947346498e+00 +2.9069420808767227e+01 -1.9405206626069312e+02 -2.1168324928885791e+05 +1.5463458348467851e+06 +1.1255782934389994e+09 
-5.2026544155181202e+00 -1.0336063175822381e+00 +2.2856307106462692e+00 +2.9115815065587366e+01 -1.9391298392171254e+02 -2.1293996553965303e+05 +1.5490297249446239e+06 +1.1321175404998610e+09 
-5.3027054619703904e+00 -1.0336029944302116e+00 +2.2855212264263218e+00 +2.9162649978483405e+01 -1.9366613262866841e+02 -2.1418452484690247e+05 +1.5508633616626812e+06 +1.1385442168151410e+09 
-5.4027565084226703e+00 -1.0335997146253701e+00 +2.2854116001147475e+00 +2.9209867503055921e+01 -1.9329894901773361e+02 -2.1541610288850483e+05 +1.5517453235752778e+06 +1.1448540665588174e+09 
-5.5028075548749404e+00 -1.0335964791815875e+00 +2.2853013897625694e+00 +2.9257409565984474e+01 -1.9279887094767756e+02 -2.1663387482833504e+05 +1.5515742043003649e+06 +1.1510428322440727e+09 
-5.6028586013272097e+00 -1.0335932885152637e+00 +2.2851903598139627e+00 +2.9305141585169853e+01 -1.9215982170620225e+02 -2.1783569953786928e+05 +1.5502926646636683e+06 +1.1571010657436390e+09 
-5.7029096477794798e+00 -1.0335901408812753e+00 +2.2850790875862499e+00 +2.9352639347399965e+01 -1.9140025783045698e+02 -2.1901428834749694e+05 +1.5480027767973086e+06 +1.1629980227251391e+09 
-5.8029606942317500e+00 -1.0335870340429678e+00 +2.2849683521289466e+00 +2.9399409510402403e+01 -1.9054453658039893e+02 -2.2016108633439516e+05 +1.5448434558229258e+06 +1.1686975129432435e+09 
-5.9030117406840201e+00 -1.0335839657639947e+00 +2.2848589326183926e+00 +2.9444958768723641e+01 -1.8961701941112321e+02 -2.2126753923242333e+05 +1.5409536407045438e+06 +1.1741633491709929e+09 
-6.0030627871363000e+00 -1.0335809338083446e+00 +2.2847516083625412e+00 +2.9488793857075635e+01 -1.8864207211552431e+02 -2.2232509350327033e+05 +1.5364722949731187e+06 +1.1793593475553477e+09 
-6.1031138335885702e+00 -1.0335779359402886e+00 +2.2846471588082000e+00 +2.9530421544362735e+01 -1.8764406503519896e+02 -2.2332519621806388e+05 +1.5315384078577152e+06 +1.1842493270408771e+09 
-6.2031648800408403e+00 -1.0335749699244987e+00 +2.2845463635397114e+00 +2.9569348648406660e+01 -1.8664737304344311e+02 -2.2425929533638572e+05 +1.5262909941366254e+06 +1.1887971106903262e+09 
-6.3032159264931096e+00 -1.0335720335259453e+00 +2.2844500023000749e+00 +2.9605082023110008e+01 -1.8567637615574870e+02 -2.2511883946251773e+05 +1.5208690975605524e+06 +1.1929665245252855e+09 
-6.4032669729453797e+00 -1.0335691245099925e+00 +2.2843588549787945e+00 +2.9637128571530983e+01 -1.8475545919758866e+02 -2.2589527809486812e+05 +1.5154117888785659e+06 +1.1967213987119215e+09 
-6.5033180193976499e+00 -1.0335662406424055e+00 +2.2842737016313657e+00 +2.9664995244185736e+01 -1.8390901237182922e+02 -2.2658006158931748e+05 +1.5100581689955574e+06 +1.2000255673735204e+09 
-6.6033690658499298e+00 -1.0335633796893209e+00 +2.2841953224816258e+00 +2.9688189038927128e+01 -1.8316143134207130e+02 -2.2716464115701412e+05 +1.5049473694363474e+06 +1.2028428685786304e+09 
-6.7034201123021999e+00 -1.0335605394173026e+00 +2.2841244979219630e+00 +2.9706217005862921e+01 -1.8253711724440339e+02 -2.2764046896044578e+05 +1.5002185522839308e+06 +1.2051371448017483e+09 
-6.8034711587544701e+00 -1.0335577175933077e+00 +2.2840620085272927e+00 +2.9718586241711993e+01 -1.8206047711011814e+02 -2.2799899799635474e+05 +1.4960109125638860e+06 +1.2068722423385770e+09 
-6.9035222052067402e+00 -1.0335549119848142e+00 +2.2840086350597781e+00 +2.9724803911000450e+01 -1.8175592399990165e+02 -2.2823168251322384e+05 +1.4924636789478308e+06 +1.2080120133293321e+09 
-7.0035732516590103e+00 -1.0335521203596707e+00 +2.2839651584692295e+00 +2.9724377221837734e+01 -1.8164787703356532e+02 -2.2832997753368513e+05 +1.4897161138170757e+06 +1.2085203134376676e+09 
-7.1036242981112796e+00 -1.0335493404862324e+00 +2.2839323599052683e+00 +2.9716813445723460e+01 -1.8176076176187718e+02 -2.2828533923811131e+05 +1.4879075153932858e+06 +1.2083610036944320e+09 
-7.2036753445635497e+00 -1.0335465701333282e+00 +2.2839110207208315e+00 +2.9701619914078144e+01 -1.8211901025077665e+02 -2.2808922489912360e+05 +1.4871772180703001e+06 +1.2074979501835372e+09 
-7.3037263910158297e+00 -1.0335438070702803e+00 +2.2839019224767871e+00 +2.9678304018037093e+01 -1.8274706125694911e+02 -2.2773309287231442e+05 +1.4876645933977643e+06 +1.2058950239813180e+09 
-7.4037774374680998e+00 -1.0335410490669472e+00 +2.2839058469520426e+00 +2.9646373217721482e+01 -1.8366936050849776e+02 -2.2720840277514909e+05 +1.4895090516263472e+06 +1.2035161020145364e+09 
-7.5038284839203699e+00 -1.0335382938940434e+00 +2.2839235762078403e+00 +2.9605335086928843e+01 -1.8491036066336827e+02 -2.2650661616220829e+05 +1.4928500387833945e+06 +1.2003250698495448e+09 
-7.6038795303726401e+00 -1.0335355409539841e+00 +2.2839555680525594e+00 +2.9554916627385463e+01 -1.8648483741768064e+02 -2.2562293176309994e+05 +1.4977774059232532e+06 +1.1963018299262347e+09 
-7.7039305768249102e+00 -1.0335327952324704e+00 +2.2840009037433560e+00 +2.9495623354801225e+01 -1.8836967351469585e+02 -2.2456603639447255e+05 +1.5041958264067699e+06 +1.1914842367730150e+09 
-7.8039816232771804e+00 -1.0335300629151862e+00 +2.2840583055452739e+00 +2.9428135728982593e+01 -1.9053245608624650e+02 -2.2334770179033253e+05 +1.5119666758357491e+06 +1.1859234148675058e+09 
-7.9040326697294496e+00 -1.0335273501873317e+00 +2.2841264954884717e+00 +2.9353134155485886e+01 -1.9294076526782331e+02 -2.2197969881486794e+05 +1.5209512901607978e+06 +1.1796704846444347e+09 
-8.0040837161817304e+00 -1.0335246632336401e+00 +2.2842041953612382e+00 +2.9271298990045633e+01 -1.9556217391264201e+02 -2.2047379755229215e+05 +1.5310109632235719e+06 +1.1727765629864929e+09 
-8.1041347626340006e+00 -1.0335220082383125e+00 +2.2842901267010993e+00 +2.9183310529368335e+01 -1.9836424732069443e+02 -2.1884176714235893e+05 +1.5420069451884660e+06 +1.1652927624623661e+09 
-8.2041858090862707e+00 -1.0335193913850300e+00 +2.2843830107814904e+00 +2.9089849014097812e+01 -2.0131454283153252e+02 -2.1709537584242219e+05 +1.5538004401684583e+06 +1.1572701916273875e+09 
-8.3042368555385409e+00 -1.0335168188569228e+00 +2.2844815686115436e+00 +2.8991594624577257e+01 -2.0438060978835892e+02 -2.1524639094771672e+05 +1.5662526059830685e+06 +1.1487599546354041e+09 
-8.4042879019908092e+00 -1.0335142968365407e+00 +2.2845845209153954e+00 +2.8889227477773353e+01 -2.0752998892517445e+02 -2.1330657874417576e+05 +1.5792245506140094e+06 +1.1398131510358295e+09 
-8.5043389484430794e+00 -1.0335118315058704e+00 +2.2846905881334938e+00 +2.8783427630682596e+01 -2.1073021238128837e+02 -2.1128770457724988e+05 +1.5925773322691536e+06 +1.1304808761028762e+09 
-8.6043899948953602e+00 -1.0335094290462865e+00 +2.2847984904064078e+00 +2.8674875071368408e+01 -2.1394880321889059e+02 -2.0920153268983890e+05 +1.6061719565598441e+06 +1.1208142200748427e+09 
-8.7044410413476303e+00 -1.0335070956385264e+00 +2.2849069475727348e+00 +2.8564249720300875e+01 -2.1715327533181815e+02 -2.0705982624876662e+05 +1.6198693759902169e+06 +1.1108642682757075e+09 
-8.8044920877999004e+00 -1.0335048374626892e+00 +2.2850146791544814e+00 +2.8452231427063925e+01 -2.2031113301401649e+02 -2.0487434729024224e+05 +1.6335304874318459e+06 +1.1006821008647361e+09 
-8.9045431342521706e+00 -1.0335026606982010e+00 +2.2851204043507689e+00 +2.8339499968891296e+01 -2.2338987074080683e+02 -2.0265685670452937e+05 +1.6470161308127604e+06 +1.0903187927906303e+09 
-9.0045941807044407e+00 -1.0335005715238490e+00 +2.2852228420268812e+00 +2.8226735053586623e+01 -2.2635697284601324e+02 -2.0041911428680568e+05 +1.6601870872803458e+06 +1.0798254140083506e+09 
-9.1046452271567109e+00 -1.0334985761176629e+00 +2.2853207107036955e+00 +2.8114616306458696e+01 -2.2917991318135324e+02 -1.9817287850224326e+05 +1.6729040771709208e+06 +1.0692530283884422e+09 
-9.2046962736089899e+00 -1.0334966806569819e+00 +2.2854127285601020e+00 +2.8003823276583915e+01 -2.3182615518244540e+02 -1.9592990660568787e+05 +1.6850277604173713e+06 +1.0586526942797283e+09 
-9.3047473200612600e+00 -1.0334948913183861e+00 +2.2854976134099827e+00 +2.7895035431879887e+01 -2.3426315116870535e+02 -1.9370195456187252e+05 +1.6964187324561863e+06 +1.0480754641561936e+09 
-9.4047983665135302e+00 -1.0334932142777551e+00 +2.2855740826975355e+00 +2.7788932163297652e+01 -2.3645834218753453e+02 -1.9150077712244421e+05 +1.7069375232949124e+06 +1.0375723849669598e+09 
-9.5048494129658003e+00 -1.0334916557093179e+00 +2.2856408533627688e+00 +2.7686192672816329e+01 -2.3837915296577711e+02 -1.8933812561583405e+05 +1.7164445462768311e+06 +1.0271944855748850e+09 
-9.6049004594180705e+00 -1.0334902195569500e+00 +2.2856969302817274e+00 +2.7587315066730227e+01 -2.3999986172891920e+02 -1.8722278766137865e+05 +1.7248233590600952e+06 +1.0169796062434677e+09 
-9.7049515058703406e+00 -1.0334889023647609e+00 +2.2857424383000802e+00 +2.7492184755125287e+01 -2.4132132386503349e+02 -1.8515346666185398e+05 +1.7320522425176930e+06 +1.0069218518765292e+09 
-9.8050025523226108e+00 -1.0334876991350381e+00 +2.2857777711026284e+00 +2.7400555354144451e+01 -2.4235068864703817e+02 -1.8312667405171116e+05 +1.7381315728160588e+06 +9.9700606145968127e+08 
-9.9050535987748898e+00 -1.0334866048701101e+00 +2.2858033224766183e+00 +2.7312180474513656e+01 -2.4309510771884939e+02 -1.8113892105961248e+05 +1.7430617399757055e+06 +9.8721707322160685e+08 
-1.0005104645227201e+01 -1.0334856145724038e+00 +2.2858194863262882e+00 +2.7226813730449635e+01 -2.4356173569983437e+02 -1.7918671885029392e+05 +1.7468431534653408e+06 +9.7753972510634136e+08 
-1.0105155691679400e+01 -1.0334847232443785e+00 +2.2858266566782759e+00 +2.7144208728516233e+01 -2.4375773031341711e+02 -1.7726657830857599e+05 +1.7494762429070571e+06 +9.6795885374128175e+08 
