# field on trajectory
# s[mm] rx[mm] ry[mm] rz[mm] bx[T] by[T] bz[T]
0.0000000000000000e+00 +9.1312999999999995e+00 +0.0000000000000000e+00 +0.0000000000000000e+00 +1.0714133358223025e-02 -1.0341950919364822e+00 -5.8780197326781677e-02
1.0000000000000001e-01 +9.1312994832599994e+00 +0.0000000000000000e+00 +9.9999999998219846e-02 +1.0713844736542169e-02 -1.0341960983922938e+00 -5.8779536264350035e-02
2.0000000000000001e-01 +9.1312979330393418e+00 +0.0000000000000000e+00 +1.9999999998575890e-01 +1.0713564545487601e-02 -1.0341970196448942e+00 -5.8778876165805294e-02
3.0000000000000004e-01 +9.1312953493371065e+00 +0.0000000000000000e+00 +2.9999999995193627e-01 +1.0713294015535476e-02 -1.0341978451485285e+00 -5.8778216297140494e-02
4.0000000000000002e-01 +9.1312917321524711e+00 +0.0000000000000000e+00 +3.9999999988607110e-01 +1.0713034377063691e-02 -1.0341985643572809e+00 -5.8777555924373642e-02
5.0000000000000000e-01 +9.1312870814847180e+00 +0.0000000000000000e+00 +4.9999999977748250e-01 +1.0712786860341978e-02 -1.0341991667250012e+00 -5.8776894313558224e-02
5.9999999999999998e-01 +9.1312813973332450e+00 +0.0000000000000000e+00 +5.9999999961548955e-01 +1.0712552265542409e-02 -1.0341996443292216e+00 -5.8776231077526879e-02
6.9999999999999996e-01 +9.1312746796975759e+00 +0.0000000000000000e+00 +6.9999999938941138e-01 +1.0712329672815301e-02 -1.0341999997431399e+00 -5.8775567216083673e-02
7.9999999999999993e-01 +9.1312669285773556e+00 +0.0000000000000000e+00 +7.9999999908856700e-01 +1.0712117732273353e-02 -1.0342002381637201e+00 -5.8774904075771288e-02
8.9999999999999991e-01 +9.1312581439723477e+00 +0.0000000000000000e+00 +8.9999999870227554e-01 +1.0711915093994172e-02 -1.0342003647877203e+00 -5.8774243003122756e-02
9.9999999999999989e-01 +9.1312483258824244e+00 +0.0000000000000000e+00 +9.9999999821985597e-01 +1.0711720408038521e-02 -1.0342003848116972e+00 -5.8773585344650041e-02
1.0999999999999999e+00 +9.1312374743075679e+00 +0.0000000000000000e+00 +1.0999999976306276e+00 +1.0711532324468609e-02 -1.0342003034320144e+00 -5.8772932446832925e-02
1.2000000000000000e+00 +9.1312255892478582e+00 +0.0000000000000000e+00 +1.1999999969239092e+00 +1.0711349493366338e-02 -1.0342001258448497e+00 -5.8772285656107620e-02
1.3000000000000000e+00 +9.1312126707034746e+00 +0.0000000000000000e+00 +1.2999999960890203e+00 +1.0711170564851588e-02 -1.0341998572462010e+00 -5.8771646318855522e-02
1.4000000000000001e+00 +9.1311987186746872e+00 +0.0000000000000000e+00 +1.3999999951152797e+00 +1.0710994189100492e-02 -1.0341995028318958e+00 -5.8771015781391975e-02
1.5000000000000002e+00 +9.1311837331618513e+00 +0.0000000000000000e+00 +1.4999999939920068e+00 +1.0710819016363709e-02 -1.0341990677975961e+00 -5.8770395389954974e-02
1.6000000000000003e+00 +9.1311677141654020e+00 +0.0000000000000000e+00 +1.5999999927085204e+00 +1.0710643696984663e-02 -1.0341985573388068e+00 -5.8769786490693858e-02
1.7000000000000004e+00 +9.1311506616858509e+00 +0.0000000000000000e+00 +1.6999999912541401e+00 +1.0710466881417871e-02 -1.0341979766508824e+00 -5.8769190429658134e-02
1.8000000000000005e+00 +9.1311325757237789e+00 +0.0000000000000000e+00 +1.7999999896181849e+00 +1.0710287220247172e-02 -1.0341973309290344e+00 -5.8768608552786122e-02
1.9000000000000006e+00 +9.1311134562798344e+00 +0.0000000000000000e+00 +1.8999999877899740e+00 +1.0710103364204032e-02 -1.0341966253683379e+00 -5.8768042205893684e-02
2.0000000000000004e+00 +9.1310933033547226e+00 +0.0000000000000000e+00 +1.9999999857588271e+00 +1.0709913964185793e-02 -1.0341958651637406e+00 -5.8767492734663057e-02
2.1000000000000005e+00 +9.1310721169492055e+00 +0.0000000000000000e+00 +2.0999999835140630e+00 +1.0709717671273964e-02 -1.0341950555100659e+00 -5.8766961484631411e-02
2.2000000000000006e+00 +9.1310498970640932e+00 +0.0000000000000000e+00 +2.1999999810450013e+00 +1.0709513136752511e-02 -1.0341942016020251e+00 -5.8766449801179732e-02
2.3000000000000007e+00 +9.1310266437002419e+00 +0.0000000000000000e+00 +2.2999999783409617e+00 +1.0709299012126116e-02 -1.0341933086342210e+00 -5.8765959029521524e-02
2.4000000000000008e+00 +9.1310023568585468e+00 +0.0000000000000000e+00 +2.3999999753912631e+00 +1.0709073949138472e-02 -1.0341923818011565e+00 -5.8765490514691453e-02
2.5000000000000009e+00 +9.1309770365399352e+00 +0.0000000000000000e+00 +2.4999999721852255e+00 +1.0708836599790552e-02 -1.0341914262972400e+00 -5.8765045601534165e-02
2.6000000000000010e+00 +9.1309506827453646e+00 +0.0000000000000000e+00 +2.5999999687121678e+00 +1.0708586023680926e-02 -1.0341904466176506e+00 -5.8764625154241627e-02
2.7000000000000011e+00 +9.1309232954758155e+00 +0.0000000000000000e+00 +2.6999999649614099e+00 +1.0708322909905605e-02 -1.0341894444609303e+00 -5.8764228115053163e-02
2.8000000000000012e+00 +9.1308948747322933e+00 +0.0000000000000000e+00 +2.7999999609222717e+00 +1.0708048354948263e-02 -1.0341884208264664e+00 -5.8763852945724497e-02
2.9000000000000012e+00 +9.1308654205158231e+00 +0.0000000000000000e+00 +2.8999999565840722e+00 +1.0707763455331271e-02 -1.0341873767136596e+00 -5.8763498108003492e-02
3.0000000000000013e+00 +9.1308349328274527e+00 +0.0000000000000000e+00 +2.9999999519361311e+00 +1.0707469307609628e-02 -1.0341863131219329e+00 -5.8763162063637672e-02
3.1000000000000014e+00 +9.1308034116682482e+00 +0.0000000000000000e+00 +3.0999999469677686e+00 +1.0707167008364972e-02 -1.0341852310507491e+00 -5.8762843274381971e-02
3.2000000000000015e+00 +9.1307708570392929e+00 +0.0000000000000000e+00 +3.1999999416683043e+00 +1.0706857654199493e-02 -1.0341841314996225e+00 -5.8762540202006372e-02
3.3000000000000016e+00 +9.1307372689416884e+00 +0.0000000000000000e+00 +3.2999999360270573e+00 +1.0706542341729948e-02 -1.0341830154681309e+00 -5.8762251308303551e-02
3.4000000000000017e+00 +9.1307026473765553e+00 +0.0000000000000000e+00 +3.3999999300333483e+00 +1.0706222167581571e-02 -1.0341818839559331e+00 -5.8761975055096567e-02
3.5000000000000018e+00 +9.1306669923450272e+00 +0.0000000000000000e+00 +3.4999999236764969e+00 +1.0705898228382102e-02 -1.0341807379627774e+00 -5.8761709904246472e-02
3.6000000000000019e+00 +9.1306303038482532e+00 +0.0000000000000000e+00 +3.5999999169458228e+00 +1.0705571620755673e-02 -1.0341795784885184e+00 -5.8761454317660035e-02
3.7000000000000020e+00 +9.1305925818873952e+00 +0.0000000000000000e+00 +3.6999999098306460e+00 +1.0705243441316835e-02 -1.0341784065331290e+00 -5.8761206757297388e-02
3.8000000000000020e+00 +9.1305538264636290e+00 +0.0000000000000000e+00 +3.7999999023202862e+00 +1.0704914786664464e-02 -1.0341772230967159e+00 -5.8760965685179634e-02
3.9000000000000021e+00 +9.1305140375781413e+00 +0.0000000000000000e+00 +3.8999998944040639e+00 +1.0704586753375765e-02 -1.0341760291795283e+00 -5.8760729563396535e-02
4.0000000000000018e+00 +9.1304732152321293e+00 +0.0000000000000000e+00 +3.9999998860712989e+00 +1.0704260438000195e-02 -1.0341748257819783e+00 -5.8760496854114275e-02
4.1000000000000014e+00 +9.1304313594267992e+00 +0.0000000000000000e+00 +4.0999998773113111e+00 +1.0703936937053436e-02 -1.0341736139046462e+00 -5.8760266019582903e-02
4.2000000000000011e+00 +9.1303884701633660e+00 +0.0000000000000000e+00 +4.1999998681134212e+00 +1.0703617347011340e-02 -1.0341723945483019e+00 -5.8760035522144184e-02
4.3000000000000007e+00 +9.1303445474430536e+00 +0.0000000000000000e+00 +4.2999998584669488e+00 +1.0703302764303894e-02 -1.0341711687139126e+00 -5.8759803824239204e-02
4.4000000000000004e+00 +9.1302995912670912e+00 +0.0000000000000000e+00 +4.3999998483612144e+00 +1.0702994285309155e-02 -1.0341699374026576e+00 -5.8759569388415957e-02
4.5000000000000000e+00 +9.1302536016367153e+00 +0.0000000000000000e+00 +4.4999998377855386e+00 +1.0702693006347210e-02 -1.0341687016159447e+00 -5.8759330677337164e-02
4.5999999999999996e+00 +9.1302065785531639e+00 +0.0000000000000000e+00 +4.5999998267292410e+00 +1.0702399945868569e-02 -1.0341674620187766e+00 -5.8759086558159646e-02
4.6999999999999993e+00 +9.1301585220176822e+00 +0.0000000000000000e+00 +4.6999998151816422e+00 +1.0702115810971654e-02 -1.0341662179295086e+00 -5.8758837515661161e-02
4.7999999999999989e+00 +9.1301094320315173e+00 +0.0000000000000000e+00 +4.7999998031320628e+00 +1.0701841230708118e-02 -1.0341649683291936e+00 -5.8758584439119570e-02
4.8999999999999986e+00 +9.1300593085959250e+00 +0.0000000000000000e+00 +4.8999997905698232e+00 +1.0701576833859576e-02 -1.0341637121981111e+00 -5.8758328217942815e-02
4.9999999999999982e+00 +9.1300081517121647e+00 +0.0000000000000000e+00 +4.9999997774842431e+00 +1.0701323248922177e-02 -1.0341624485157273e+00 -5.8758069741675682e-02
5.0999999999999979e+00 +9.1299559613815049e+00 +0.0000000000000000e+00 +5.0999997638646439e+00 +1.0701081104091133e-02 -1.0341611762606542e+00 -5.8757809900006813e-02
5.1999999999999975e+00 +9.1299027376052226e+00 +0.0000000000000000e+00 +5.1999997497003463e+00 +1.0700851027245276e-02 -1.0341598944106127e+00 -5.8757549582775577e-02
5.2999999999999972e+00 +9.1298484803846058e+00 +0.0000000000000000e+00 +5.2999997349806698e+00 +1.0700633645931587e-02 -1.0341586019423934e+00 -5.8757289679978938e-02
5.3999999999999968e+00 +9.1297931897209494e+00 +0.0000000000000000e+00 +5.3999997196949359e+00 +1.0700429587349710e-02 -1.0341572978318148e+00 -5.8757031081778321e-02
5.4999999999999964e+00 +9.1297368656155644e+00 +0.0000000000000000e+00 +5.4999997038324651e+00 +1.0700239478336525e-02 -1.0341559810536853e+00 -5.8756774678506644e-02
5.5999999999999961e+00 +9.1296795080697724e+00 +0.0000000000000000e+00 +5.5999996873825788e+00 +1.0700063945350639e-02 -1.0341546505817649e+00 -5.8756521360675010e-02
5.6999999999999957e+00 +9.1296211170849091e+00 +0.0000000000000000e+00 +5.6999996703345968e+00 +1.0699903614456925e-02 -1.0341533053887240e+00 -5.8756272018979754e-02
5.7999999999999954e+00 +9.1295616926623264e+00 +0.0000000000000000e+00 +5.7999996526778403e+00 +1.0699759111311052e-02 -1.0341519444461058e+00 -5.8756027544309294e-02
5.8999999999999950e+00 +9.1295012348033886e+00 +0.0000000000000000e+00 +5.8999996344016301e+00 +1.0699631061143992e-02 -1.0341505667242854e+00 -5.8755788827750968e-02
5.9999999999999947e+00 +9.1294397435094812e+00 +0.0000000000000000e+00 +5.9999996154952875e+00 +1.0699520088746556e-02 -1.0341491711924322e+00 -5.8755556760598036e-02
6.0999999999999943e+00 +9.1293772187820039e+00 +0.0000000000000000e+00 +6.0999995959481330e+00 +1.0699426818453879e-02 -1.0341477568184694e+00 -5.8755332234356451e-02
6.1999999999999940e+00 +9.1293136606223761e+00 +0.0000000000000000e+00 +6.1999995757494872e+00 +1.0699351874129941e-02 -1.0341463225690333e+00 -5.8755116140751816e-02
6.2999999999999936e+00 +9.1292490690320403e+00 +0.0000000000000000e+00 +6.2999995548886725e+00 +1.0699295879152089e-02 -1.0341448674094389e+00 -5.8754909371736309e-02
6.3999999999999932e+00 +9.1291834440124546e+00 +0.0000000000000000e+00 +6.3999995333550093e+00 +1.0699259456395518e-02 -1.0341433903036343e+00 -5.8754712819495465e-02
6.4999999999999929e+00 +9.1291167855651043e+00 +0.0000000000000000e+00 +6.4999995111378190e+00 +1.0699243228217775e-02 -1.0341418902141648e+00 -5.8754527376455146e-02
6.5999999999999925e+00 +9.1290490936914956e+00 +0.0000000000000000e+00 +6.5999994882264224e+00 +1.0699247322971315e-02 -1.0341403666857274e+00 -5.8754353903239943e-02
6.6999999999999922e+00 +9.1289803683931581e+00 +0.0000000000000000e+00 +6.6999994646101415e+00 +1.0699269894807423e-02 -1.0341388215968543e+00 -5.8754193132473938e-02
6.7999999999999918e+00 +9.1289106096716424e+00 +0.0000000000000000e+00 +6.7999994402782971e+00 +1.0699308604566844e-02 -1.0341372574107108e+00 -5.8754045764827845e-02
6.8999999999999915e+00 +9.1288398175285188e+00 +0.0000000000000000e+00 +6.8999994152202113e+00 +1.0699361113345155e-02 -1.0341356765917733e+00 -5.8753912501054266e-02
6.9999999999999911e+00 +9.1287679919653737e+00 +0.0000000000000000e+00 +6.9999993894252057e+00 +1.0699425082507185e-02 -1.0341340816058893e+00 -5.8753794041987946e-02
7.0999999999999908e+00 +9.1286951329838093e+00 +0.0000000000000000e+00 +7.0999993628826008e+00 +1.0699498173701423e-02 -1.0341324749203422e+00 -5.8753691088546042e-02
7.1999999999999904e+00 +9.1286212405854386e+00 +0.0000000000000000e+00 +7.1999993355817189e+00 +1.0699578048874435e-02 -1.0341308590039149e+00 -5.8753604341728362e-02
7.2999999999999901e+00 +9.1285463147718851e+00 +0.0000000000000000e+00 +7.2999993075118823e+00 +1.0699662370285294e-02 -1.0341292363269519e+00 -5.8753534502617596e-02
7.3999999999999897e+00 +9.1284703555447777e+00 +0.0000000000000000e+00 +7.3999992786624125e+00 +1.0699748800520017e-02 -1.0341276093614225e+00 -5.8753482272379684e-02
7.4999999999999893e+00 +9.1283933629057490e+00 +0.0000000000000000e+00 +7.4999992490226308e+00 +1.0699835002506002e-02 -1.0341259805809864e+00 -5.8753448352263919e-02
7.5999999999999890e+00 +9.1283153368564349e+00 +0.0000000000000000e+00 +7.5999992185818597e+00 +1.0699918639526483e-02 -1.0341243524610546e+00 -5.8753433443603315e-02
7.6999999999999886e+00 +9.1282362773984715e+00 +0.0000000000000000e+00 +7.6999991873294205e+00 +1.0699997375234978e-02 -1.0341227274788527e+00 -5.8753438247814857e-02
7.7999999999999883e+00 +9.1281561845334895e+00 +0.0000000000000000e+00 +7.7999991552546355e+00 +1.0700068873669769e-02 -1.0341211081134856e+00 -5.8753463466399689e-02
7.8999999999999879e+00 +9.1280750582631178e+00 +0.0000000000000000e+00 +7.8999991223468262e+00 +1.0700130799268348e-02 -1.0341194968459990e+00 -5.8753509800943446e-02
7.9999999999999876e+00 +9.1279928985889729e+00 +0.0000000000000000e+00 +7.9999990885953149e+00 +1.0700180816881932e-02 -1.0341178961594459e+00 -5.8753577953116504e-02
8.0999999999999872e+00 +9.1279097055126641e+00 +0.0000000000000000e+00 +8.0999990539894249e+00 +1.0700216591789923e-02 -1.0341163085389460e+00 -5.8753668624674182e-02
8.1999999999999869e+00 +9.1278254790357849e+00 +0.0000000000000000e+00 +8.1999990185184757e+00 +1.0700235789714418e-02 -1.0341147364717513e+00 -5.8753782517457061e-02
8.2999999999999865e+00 +9.1277402191599180e+00 +0.0000000000000000e+00 +8.2999989821717914e+00 +1.0700236076834716e-02 -1.0341131824473082e+00 -5.8753920333391253e-02
8.3999999999999861e+00 +9.1276539258866229e+00 +0.0000000000000000e+00 +8.3999989449386945e+00 +1.0700215119801839e-02 -1.0341116489573237e+00 -5.8754082774488625e-02
8.4999999999999858e+00 +9.1275665992174417e+00 +0.0000000000000000e+00 +8.4999989068085071e+00 +1.0700170585753038e-02 -1.0341101384958242e+00 -5.8754270542847042e-02
8.5999999999999854e+00 +9.1274782391538931e+00 +0.0000000000000000e+00 +8.5999988677705499e+00 +1.0700100848328127e-02 -1.0341086526512391e+00 -5.8754484083765379e-02
8.6999999999999851e+00 +9.1273888456974710e+00 +0.0000000000000000e+00 +8.6999988278141469e+00 +1.0700007105642541e-02 -1.0341071893810028e+00 -5.8754722814893051e-02
8.7999999999999847e+00 +9.1272984188496480e+00 +0.0000000000000000e+00 +8.7999987869286187e+00 +1.0699891262000669e-02 -1.0341057457331431e+00 -5.8754985896615090e-02
8.8999999999999844e+00 +9.1272069586118771e+00 +0.0000000000000000e+00 +8.8999987451032894e+00 +1.0699755221815798e-02 -1.0341043187539254e+00 -5.8755272488900903e-02
8.9999999999999840e+00 +9.1271144649855938e+00 +0.0000000000000000e+00 +8.9999987023274812e+00 +1.0699600889612327e-02 -1.0341029054877957e+00 -5.8755581751290753e-02
9.0999999999999837e+00 +9.1270209379722189e+00 +0.0000000000000000e+00 +9.0999986585905148e+00 +1.0699430170028007e-02 -1.0341015029773222e+00 -5.8755912842881855e-02
9.1999999999999833e+00 +9.1269263775731666e+00 +0.0000000000000000e+00 +9.1999986138817142e+00 +1.0699244967816207e-02 -1.0341001082631396e+00 -5.8756264922314734e-02
9.2999999999999829e+00 +9.1268307837898401e+00 +0.0000000000000000e+00 +9.2999985681904018e+00 +1.0699047187848094e-02 -1.0340987183838917e+00 -5.8756637147759583e-02
9.3999999999999826e+00 +9.1267341566236393e+00 +0.0000000000000000e+00 +9.3999985215058999e+00 +1.0698838735114914e-02 -1.0340973303761727e+00 -5.8757028676902322e-02
9.4999999999999822e+00 +9.1266364960759603e+00 +0.0000000000000000e+00 +9.4999984738175307e+00 +1.0698621514730156e-02 -1.0340959412744732e+00 -5.8757438666931179e-02
9.5999999999999819e+00 +9.1265378021482029e+00 +0.0000000000000000e+00 +9.5999984251146167e+00 +1.0698397431931798e-02 -1.0340945481111181e+00 -5.8757866274522695e-02
9.6999999999999815e+00 +9.1264380748417704e+00 +0.0000000000000000e+00 +9.6999983753864818e+00 +1.0698168392084494e-02 -1.0340931479162150e+00 -5.8758310655828129e-02
9.7999999999999812e+00 +9.1263373141580715e+00 +0.0000000000000000e+00 +9.7999983246224467e+00 +1.0697936300681792e-02 -1.0340917377175920e+00 -5.8758770966459754e-02
9.8999999999999808e+00 +9.1262355200985290e+00 +0.0000000000000000e+00 +9.8999982728118354e+00 +1.0697703063348305e-02 -1.0340903145407445e+00 -5.8759246361477051e-02
9.9999999999999805e+00 +9.1261326926645747e+00 +0.0000000000000000e+00 +9.9999982199439703e+00 +1.0697470585841922e-02 -1.0340888754087760e+00 -5.8759735995373062e-02
1.0099999999999980e+01 +9.1260288318576581e+00 +0.0000000000000000e+00 +1.0099998166008175e+01 +1.0697240774055971e-02 -1.0340874173423411e+00 -5.8760239022060602e-02
1.0199999999999980e+01 +9.1259239376792465e+00 +0.0000000000000000e+00 +1.0199998110993771e+01 +1.0697015534021396e-02 -1.0340859373595885e+00 -5.8760754594858564e-02
1.0299999999999979e+01 +9.1258180101308319e+00 +0.0000000000000000e+00 +1.0299998054890082e+01 +1.0696796771908936e-02 -1.0340844324761032e+00 -5.8761281866478193e-02
1.0399999999999979e+01 +9.1257110492139280e+00 +0.0000000000000000e+00 +1.0399997997686432e+01 +1.0696586394031274e-02 -1.0340828997048519e+00 -5.8761819989009312e-02
1.0499999999999979e+01 +9.1256030549300799e+00 +0.0000000000000000e+00 +1.0499997939372143e+01 +1.0696386306845199e-02 -1.0340813360561225e+00 -5.8762368113906706e-02
1.0599999999999978e+01 +9.1254940272808618e+00 +0.0000000000000000e+00 +1.0599997879936540e+01 +1.0696197942966447e-02 -1.0340797396247987e+00 -5.8762925353390665e-02
1.0699999999999978e+01 +9.1253839662678793e+00 +0.0000000000000000e+00 +1.0699997819368944e+01 +1.0696020839020616e-02 -1.0340781128541590e+00 -5.8763490664981051e-02
1.0799999999999978e+01 +9.1252728718927703e+00 +0.0000000000000000e+00 +1.0799997757658678e+01 +1.0695854057537344e-02 -1.0340764592765352e+00 -5.8764062967803857e-02
1.0899999999999977e+01 +9.1251607441571991e+00 +0.0000000000000000e+00 +1.0899997694795069e+01 +1.0695696660975591e-02 -1.0340747824262964e+00 -5.8764641181267119e-02
1.0999999999999977e+01 +9.1250475830628517e+00 +0.0000000000000000e+00 +1.0999997630767437e+01 +1.0695547711720954e-02 -1.0340730858399045e+00 -5.8765224225069586e-02
1.1099999999999977e+01 +9.1249333886114368e+00 +0.0000000000000000e+00 +1.1099997565565108e+01 +1.0695406272082821e-02 -1.0340713730559687e+00 -5.8765811019208906e-02
1.1199999999999976e+01 +9.1248181608046774e+00 +0.0000000000000000e+00 +1.1199997499177403e+01 +1.0695271404291648e-02 -1.0340696476152991e+00 -5.8766400483990199e-02
1.1299999999999976e+01 +9.1247018996443092e+00 +0.0000000000000000e+00 +1.1299997431593649e+01 +1.0695142170496210e-02 -1.0340679130609640e+00 -5.8766991540034473e-02
1.1399999999999975e+01 +9.1245846051320783e+00 +0.0000000000000000e+00 +1.1399997362803168e+01 +1.0695017632760803e-02 -1.0340661729383440e+00 -5.8767583108286982e-02
1.1499999999999975e+01 +9.1244662772697360e+00 +0.0000000000000000e+00 +1.1499997292795284e+01 +1.0694896853062527e-02 -1.0340644307951861e+00 -5.8768174110025759e-02
1.1599999999999975e+01 +9.1243469160590340e+00 +0.0000000000000000e+00 +1.1599997221559320e+01 +1.0694778893288513e-02 -1.0340626901816592e+00 -5.8768763466869975e-02
1.1699999999999974e+01 +9.1242265215017255e+00 +0.0000000000000000e+00 +1.1699997149084602e+01 +1.0694662815233170e-02 -1.0340609546504087e+00 -5.8769350100788403e-02
1.1799999999999974e+01 +9.1241050935995585e+00 +0.0000000000000000e+00 +1.1799997075360453e+01 +1.0694547680595480e-02 -1.0340592277566127e+00 -5.8769932934107934e-02
