# trajectory
# s[mm] rx[mm] ry[mm] rz[mm] px[rad] py[rad] pz[rad]
0.0000000000000000e+00 +9.1312999999999995e+00 +0.0000000000000000e+00 +0.0000000000000000e+00 +0.0000000000000000e+00 +0.0000000000000000e+00 +1.0000000000000000e+00
1.0000000000000001e-01 +9.1312994834746171e+00 +0.0000000000000000e+00 +9.9999999998221331e-02 -1.0330510822857393e-05 +0.0000000000000000e+00 +9.9999999994664024e-01
2.0000000000000001e-01 +9.1312979338972387e+00 +0.0000000000000000e+00 +1.9999999998577073e-01 -2.0661039535301733e-05 +0.0000000000000000e+00 +9.9999999978656073e-01
3.0000000000000004e-01 +9.1312953512661927e+00 +0.0000000000000000e+00 +2.9999999995197613e-01 -3.0991583763211783e-05 +0.0000000000000000e+00 +9.9999999951976093e-01
4.0000000000000002e-01 +9.1312917355800529e+00 +0.0000000000000000e+00 +3.9999999988616552e-01 -4.1322140960641626e-05 +0.0000000000000000e+00 +9.9999999914624038e-01
5.0000000000000000e-01 +9.1312870868376574e+00 +0.0000000000000000e+00 +4.9999999977766685e-01 -5.1652708409827191e-05 +0.0000000000000000e+00 +9.9999999866599887e-01
5.9999999999999998e-01 +9.1312814050381235e+00 +0.0000000000000000e+00 +5.9999999961580797e-01 -6.1983283243773399e-05 +0.0000000000000000e+00 +9.9999999807903628e-01
6.9999999999999996e-01 +9.1312746901808541e+00 +0.0000000000000000e+00 +6.9999999938991675e-01 -7.2313862694636509e-05 +0.0000000000000000e+00 +9.9999999738535261e-01
7.9999999999999993e-01 +9.1312669422655119e+00 +0.0000000000000000e+00 +7.9999999908932107e-01 -8.2644444342102707e-05 +0.0000000000000000e+00 +9.9999999658494787e-01
8.9999999999999991e-01 +9.1312581612919814e+00 +0.0000000000000000e+00 +8.9999999870334890e-01 -9.2975026135967925e-05 +0.0000000000000000e+00 +9.9999999567782216e-01
9.9999999999999989e-01 +9.1312483472603354e+00 +0.0000000000000000e+00 +9.9999999822132812e-01 -1.0330560639613608e-04 +0.0000000000000000e+00 +9.9999999466397571e-01
1.0999999999999999e+00 +9.1312375001707977e+00 +0.0000000000000000e+00 +1.0999999976325867e+00 -1.1363618381261536e-04 +0.0000000000000000e+00 +9.9999999354340874e-01
1.2000000000000000e+00 +9.1312256200237005e+00 +0.0000000000000000e+00 +1.1999999969264525e+00 -1.2396675744551257e-04 +0.0000000000000000e+00 +9.9999999231612136e-01
1.3000000000000000e+00 +9.1312127068194542e+00 +0.0000000000000000e+00 +1.2999999960922537e+00 -1.3429732672502542e-04 +0.0000000000000000e+00 +9.9999999098211378e-01
1.4000000000000001e+00 +9.1311987605585081e+00 +0.0000000000000000e+00 +1.3999999951193181e+00 -1.4462789145143295e-04 +0.0000000000000000e+00 +9.9999998954138625e-01
1.5000000000000002e+00 +9.1311837812413117e+00 +0.0000000000000000e+00 +1.4999999939969737e+00 -1.5495845179508400e-04 +0.0000000000000000e+00 +9.9999998799393885e-01
1.6000000000000003e+00 +9.1311677688682789e+00 +0.0000000000000000e+00 +1.5999999927145485e+00 -1.6528900829638365e-04 +0.0000000000000000e+00 +9.9999998633977161e-01
1.7000000000000004e+00 +9.1311507234397506e+00 +0.0000000000000000e+00 +1.6999999912613706e+00 -1.7561956186577771e-04 +0.0000000000000000e+00 +9.9999998457888450e-01
1.8000000000000005e+00 +9.1311326449559616e+00 +0.0000000000000000e+00 +1.7999999896267680e+00 -1.8595011378373528e-04 +0.0000000000000000e+00 +9.9999998271127732e-01
1.9000000000000006e+00 +9.1311135334169951e+00 +0.0000000000000000e+00 +1.8999999878000686e+00 -1.9628066570072931e-04 +0.0000000000000000e+00 +9.9999998073694985e-01
2.0000000000000004e+00 +9.1310933888227552e+00 +0.0000000000000000e+00 +1.9999999857706006e+00 -2.0661121963721531e-04 +0.0000000000000000e+00 +9.9999997865590162e-01
2.1000000000000005e+00 +9.1310722111729223e+00 +0.0000000000000000e+00 +2.0999999835276917e+00 -2.1694177798360786e-04 +0.0000000000000000e+00 +9.9999997646813210e-01
2.2000000000000006e+00 +9.1310500004669208e+00 +0.0000000000000000e+00 +2.1999999810606696e+00 -2.2727234350025541e-04 +0.0000000000000000e+00 +9.9999997417364050e-01
2.3000000000000007e+00 +9.1310267567038803e+00 +0.0000000000000000e+00 +2.2999999783588625e+00 -2.3760291931741300e-04 +0.0000000000000000e+00 +9.9999997177242583e-01
2.4000000000000008e+00 +9.1310024798825982e+00 +0.0000000000000000e+00 +2.3999999754115975e+00 -2.4793350893521297e-04 +0.0000000000000000e+00 +9.9999996926448698e-01
2.5000000000000009e+00 +9.1309771700015041e+00 +0.0000000000000000e+00 +2.4999999722082022e+00 -2.5826411622363387e-04 +0.0000000000000000e+00 +9.9999996664982249e-01
2.6000000000000010e+00 +9.1309508270586228e+00 +0.0000000000000000e+00 +2.5999999687380044e+00 -2.6859474539337922e-04 +0.0000000000000000e+00 +9.9999996392843060e-01
2.7000000000000011e+00 +9.1309234510515545e+00 +0.0000000000000000e+00 +2.6999999649903308e+00 -2.7892540067587997e-04 +0.0000000000000000e+00 +9.9999996110030953e-01
2.8000000000000012e+00 +9.1308950419774870e+00 +0.0000000000000000e+00 +2.7999999609545085e+00 -2.8925608600331411e-04 +0.0000000000000000e+00 +9.9999995816545739e-01
2.9000000000000012e+00 +9.1308655998332320e+00 +0.0000000000000000e+00 +2.8999999566198644e+00 -2.9958680497951687e-04 +0.0000000000000000e+00 +9.9999995512387208e-01
3.0000000000000013e+00 +9.1308351246152597e+00 +0.0000000000000000e+00 +2.9999999519757252e+00 -3.0991756087998058e-04 +0.0000000000000000e+00 +9.9999995197555147e-01
3.1000000000000014e+00 +9.1308036163197261e+00 +0.0000000000000000e+00 +3.0999999470114168e+00 -3.2024835665185603e-04 +0.0000000000000000e+00 +9.9999994872049358e-01
3.2000000000000015e+00 +9.1307710749425119e+00 +0.0000000000000000e+00 +3.1999999417162659e+00 -3.3057919491395488e-04 +0.0000000000000000e+00 +9.9999994535869630e-01
3.3000000000000016e+00 +9.1307375004792508e+00 +0.0000000000000000e+00 +3.2999999360795980e+00 -3.4091007795675367e-04 +0.0000000000000000e+00 +9.9999994189015751e-01
3.4000000000000017e+00 +9.1307028929253633e+00 +0.0000000000000000e+00 +3.3999999300907393e+00 -3.5124100774239892e-04 +0.0000000000000000e+00 +9.9999993831487521e-01
3.5000000000000018e+00 +9.1306672522760906e+00 +0.0000000000000000e+00 +3.4999999237390149e+00 -3.6157198590471370e-04 +0.0000000000000000e+00 +9.9999993463284720e-01
3.6000000000000019e+00 +9.1306305785265263e+00 +0.0000000000000000e+00 +3.5999999170137507e+00 -3.7190301374920531e-04 +0.0000000000000000e+00 +9.9999993084407157e-01
3.7000000000000020e+00 +9.1305928716716522e+00 +0.0000000000000000e+00 +3.6999999099042711e+00 -3.8223409225307460e-04 +0.0000000000000000e+00 +9.9999992694854645e-01
3.8000000000000020e+00 +9.1305541317063650e+00 +0.0000000000000000e+00 +3.7999999023999016e+00 -3.9256522206522623e-04 +0.0000000000000000e+00 +9.9999992294627005e-01
3.9000000000000021e+00 +9.1305143586255166e+00 +0.0000000000000000e+00 +3.8999998944899668e+00 -4.0289640350628044e-04 +0.0000000000000000e+00 +9.9999991883724049e-01
4.0000000000000018e+00 +9.1304735524239415e+00 +0.0000000000000000e+00 +3.9999998861637911e+00 -4.1322763656858631e-04 +0.0000000000000000e+00 +9.9999991462145632e-01
4.1000000000000014e+00 +9.1304317130964918e+00 +0.0000000000000000e+00 +4.0999998774106992e+00 -4.2355892091623589e-04 +0.0000000000000000e+00 +9.9999991029891599e-01
4.2000000000000011e+00 +9.1303888406380693e+00 +0.0000000000000000e+00 +4.1999998682200159e+00 -4.3389025588507998e-04 +0.0000000000000000e+00 +9.9999990586961829e-01
4.3000000000000007e+00 +9.1303449350436594e+00 +0.0000000000000000e+00 +4.2999998585810646e+00 -4.4422164048274520e-04 +0.0000000000000000e+00 +9.9999990133356198e-01
4.4000000000000004e+00 +9.1302999963083629e+00 +0.0000000000000000e+00 +4.3999998484831693e+00 -4.5455307338865221e-04 +0.0000000000000000e+00 +9.9999989669074618e-01
4.5000000000000000e+00 +9.1302540244274262e+00 +0.0000000000000000e+00 +4.4999998379156549e+00 -4.6488455295403541e-04 +0.0000000000000000e+00 +9.9999989194117012e-01
4.5999999999999996e+00 +9.1302070193962805e+00 +0.0000000000000000e+00 +4.5999998268678448e+00 -4.7521607721697070e-04 +0.0000000000000000e+00 +9.9999988708483334e-01
4.6999999999999993e+00 +9.1301589812105632e+00 +0.0000000000000000e+00 +4.6999998153290630e+00 -4.8554764406747152e-04 +0.0000000000000000e+00 +9.9999988212173541e-01
4.7999999999999989e+00 +9.1301099098661176e+00 +0.0000000000000000e+00 +4.7999998032886335e+00 -4.9587925141257648e-04 +0.0000000000000000e+00 +9.9999987705187610e-01
4.8999999999999986e+00 +9.1300598053589983e+00 +0.0000000000000000e+00 +4.8999997907358797e+00 -5.0621089719136232e-04 +0.0000000000000000e+00 +9.9999987187525519e-01
4.9999999999999982e+00 +9.1300086676854644e+00 +0.0000000000000000e+00 +4.9999997776601255e+00 -5.1654257937495029e-04 +0.0000000000000000e+00 +9.9999986659187257e-01
5.0999999999999979e+00 +9.1299564968419755e+00 +0.0000000000000000e+00 +5.0999997640506951e+00 -5.2687429596651213e-04 +0.0000000000000000e+00 +9.9999986120172812e-01
5.1999999999999975e+00 +9.1299032928251886e+00 +0.0000000000000000e+00 +5.1999997498969126e+00 -5.3720604500127726e-04 +0.0000000000000000e+00 +9.9999985570482186e-01
5.2999999999999972e+00 +9.1298490556319578e+00 +0.0000000000000000e+00 +5.2999997351881012e+00 -5.4753782454653973e-04 +0.0000000000000000e+00 +9.9999985010115378e-01
5.3999999999999968e+00 +9.1297937852593254e+00 +0.0000000000000000e+00 +5.3999997199135850e+00 -5.5786963270166548e-04 +0.0000000000000000e+00 +9.9999984439072398e-01
5.4999999999999964e+00 +9.1297374817045256e+00 +0.0000000000000000e+00 +5.4999997040626871e+00 -5.6820146759810016e-04 +0.0000000000000000e+00 +9.9999983857353270e-01
5.5999999999999961e+00 +9.1296801449649756e+00 +0.0000000000000000e+00 +5.5999996876247327e+00 -5.7853332739937736e-04 +0.0000000000000000e+00 +9.9999983264958014e-01
5.6999999999999957e+00 +9.1296217750382755e+00 +0.0000000000000000e+00 +5.6999996705890448e+00 -5.8886521030112693e-04 +0.0000000000000000e+00 +9.9999982661886666e-01
5.7999999999999954e+00 +9.1295623719222050e+00 +0.0000000000000000e+00 +5.7999996529449476e+00 -5.9919711453108372e-04 +0.0000000000000000e+00 +9.9999982048139247e-01
5.8999999999999950e+00 +9.1295019356147176e+00 +0.0000000000000000e+00 +5.8999996346817651e+00 -6.0952903834909661e-04 +0.0000000000000000e+00 +9.9999981423715811e-01
5.9999999999999947e+00 +9.1294404661139392e+00 +0.0000000000000000e+00 +5.9999996157888207e+00 -6.1986098004713813e-04 +0.0000000000000000e+00 +9.9999980788616394e-01
6.0999999999999943e+00 +9.1293779634181682e+00 +0.0000000000000000e+00 +6.0999995962554392e+00 -6.3019293794931383e-04 +0.0000000000000000e+00 +9.9999980142841050e-01
6.1999999999999940e+00 +9.1293144275258644e+00 +0.0000000000000000e+00 +6.1999995760709439e+00 -6.4052491041187291e-04 +0.0000000000000000e+00 +9.9999979486389823e-01
6.2999999999999936e+00 +9.1292498584356547e+00 +0.0000000000000000e+00 +6.2999995552246597e+00 -6.5085689582321802e-04 +0.0000000000000000e+00 +9.9999978819262780e-01
6.3999999999999932e+00 +9.1291842561463223e+00 +0.0000000000000000e+00 +6.3999995337059108e+00 -6.6118889260391661e-04 +0.0000000000000000e+00 +9.9999978141459989e-01
6.4999999999999929e+00 +9.1291176206568068e+00 +0.0000000000000000e+00 +6.4999995115040212e+00 -6.7152089920671158e-04 +0.0000000000000000e+00 +9.9999977452981514e-01
6.5999999999999925e+00 +9.1290499519662038e+00 +0.0000000000000000e+00 +6.5999994886083151e+00 -6.8185291412020774e-04 +0.0000000000000000e+00 +9.9999976753827435e-01
6.6999999999999922e+00 +9.1289812500737533e+00 +0.0000000000000000e+00 +6.6999994650081174e+00 -6.9218493590930609e-04 +0.0000000000000000e+00 +9.9999976043997818e-01
6.7999999999999918e+00 +9.1289115149788369e+00 +0.0000000000000000e+00 +6.7999994406927522e+00 -7.0251696325563111e-04 +0.0000000000000000e+00 +9.9999975323492740e-01
6.8999999999999915e+00 +9.1288407466809574e+00 +0.0000000000000000e+00 +6.8999994156515445e+00 -7.1284899496120379e-04 +0.0000000000000000e+00 +9.9999974592312257e-01
6.9999999999999911e+00 +9.1287689451797345e+00 +0.0000000000000000e+00 +6.9999993898738184e+00 -7.2318102994843971e-04 +0.0000000000000000e+00 +9.9999973850456447e-01
7.0999999999999908e+00 +9.1286961104748894e+00 +0.0000000000000000e+00 +7.0999993633488989e+00 -7.3351306726014622e-04 +0.0000000000000000e+00 +9.9999973097925354e-01
7.1999999999999904e+00 +9.1286222425662320e+00 +0.0000000000000000e+00 +7.1999993360661110e+00 -7.4384510605952003e-04 +0.0000000000000000e+00 +9.9999972334719045e-01
7.2999999999999901e+00 +9.1285473414536504e+00 +0.0000000000000000e+00 +7.2999993080147787e+00 -7.5417714563014442e-04 +0.0000000000000000e+00 +9.9999971560837564e-01
7.3999999999999897e+00 +9.1284714071371003e+00 +0.0000000000000000e+00 +7.3999992791842280e+00 -7.6450918537598585e-04 +0.0000000000000000e+00 +9.9999970776280966e-01
7.4999999999999893e+00 +9.1283944396165868e+00 +0.0000000000000000e+00 +7.4999992495637828e+00 -7.7484122482139107e-04 +0.0000000000000000e+00 +9.9999969981049275e-01
7.5999999999999890e+00 +9.1283164388921580e+00 +0.0000000000000000e+00 +7.5999992191427683e+00 -7.8517326361108360e-04 +0.0000000000000000e+00 +9.9999969175142522e-01
7.6999999999999886e+00 +9.1282374049638939e+00 +0.0000000000000000e+00 +7.6999991879105094e+00 -7.9550530151016011e-04 +0.0000000000000000e+00 +9.9999968358560720e-01
7.7999999999999883e+00 +9.1281573378318903e+00 +0.0000000000000000e+00 +7.7999991558563311e+00 -8.0583733840408644e-04 +0.0000000000000000e+00 +9.9999967531303890e-01
7.8999999999999879e+00 +9.1280762374962467e+00 +0.0000000000000000e+00 +7.8999991229695583e+00 -8.1616937429869376e-04 +0.0000000000000000e+00 +9.9999966693372033e-01
7.9999999999999876e+00 +9.1279941039570591e+00 +0.0000000000000000e+00 +7.9999990892395161e+00 -8.2650140932017432e-04 +0.0000000000000000e+00 +9.9999965844765148e-01
8.0999999999999872e+00 +9.1279109372144038e+00 +0.0000000000000000e+00 +8.0999990546555303e+00 -8.3683344371507709e-04 +0.0000000000000000e+00 +9.9999964985483203e-01
8.1999999999999869e+00 +9.1278267372683253e+00 +0.0000000000000000e+00 +8.1999990192069241e+00 -8.4716547785030293e-04 +0.0000000000000000e+00 +9.9999964115526174e-01
8.2999999999999865e+00 +9.1277415041188270e+00 +0.0000000000000000e+00 +8.2999989828830234e+00 -8.5749751221310009e-04 +0.0000000000000000e+00 +9.9999963234894029e-01
8.3999999999999861e+00 +9.1276552377658557e+00 +0.0000000000000000e+00 +8.3999989456731541e+00 -8.6782954741105884e-04 +0.0000000000000000e+00 +9.9999962343586701e-01
8.4999999999999858e+00 +9.1275679382092925e+00 +0.0000000000000000e+00 +8.4999989075666385e+00 -8.7816158417210665e-04 +0.0000000000000000e+00 +9.9999961441604135e-01
8.5999999999999854e+00 +9.1274796054489400e+00 +0.0000000000000000e+00 +8.5999988685528024e+00 -8.8849362333549690e-04 +0.0000000000000000e+00 +9.9999960528946241e-01
8.6999999999999851e+00 +9.1273902394845159e+00 +0.0000000000000000e+00 +8.6999988286209717e+00 -8.9882566575273952e-04 +0.0000000000000000e+00 +9.9999959605612943e-01
8.7999999999999847e+00 +9.1272998403156560e+00 +0.0000000000000000e+00 +8.7999987877604706e+00 -9.0915771218852599e-04 +0.0000000000000000e+00 +9.9999958671604150e-01
8.8999999999999844e+00 +9.1272084079419233e+00 +0.0000000000000000e+00 +8.8999987459606213e+00 -9.1948976331171267e-04 +0.0000000000000000e+00 +9.9999957726919797e-01
8.9999999999999840e+00 +9.1271159423628188e+00 +0.0000000000000000e+00 +8.9999987032107516e+00 -9.2982181969530995e-04 +0.0000000000000000e+00 +9.9999956771559806e-01
9.0999999999999837e+00 +9.1270224435777934e+00 +0.0000000000000000e+00 +9.0999986595001836e+00 -9.4015388181647086e-04 +0.0000000000000000e+00 +9.9999955805524132e-01
9.1999999999999833e+00 +9.1269279115862521e+00 +0.0000000000000000e+00 +9.1999986148182415e+00 -9.5048595005647982e-04 +0.0000000000000000e+00 +9.9999954828812709e-01
9.2999999999999829e+00 +9.1268323463875678e+00 +0.0000000000000000e+00 +9.2999985691542495e+00 -9.6081802470074070e-04 +0.0000000000000000e+00 +9.9999953841425493e-01
9.3999999999999826e+00 +9.1267357479810904e+00 +0.0000000000000000e+00 +9.3999985224975333e+00 -9.7115010593876476e-04 +0.0000000000000000e+00 +9.9999952843362439e-01
9.4999999999999822e+00 +9.1266381163661556e+00 +0.0000000000000000e+00 +9.4999984748374153e+00 -9.8148219386415790e-04 +0.0000000000000000e+00 +9.9999951834623524e-01
9.5999999999999819e+00 +9.1265394515420937e+00 +0.0000000000000000e+00 +9.5999984261632214e+00 -9.9181428847460807e-04 +0.0000000000000000e+00 +9.9999950815208727e-01
9.6999999999999815e+00 +9.1264397535082402e+00 +0.0000000000000000e+00 +9.6999983764642739e+00 -1.0021463896718720e-03 +0.0000000000000000e+00 +9.9999949785118036e-01
9.7999999999999812e+00 +9.1263390222639451e+00 +0.0000000000000000e+00 +9.7999983257298986e+00 -1.0124784972617622e-03 +0.0000000000000000e+00 +9.9999948744351452e-01
9.8999999999999808e+00 +9.1262372578085831e+00 +0.0000000000000000e+00 +9.8999982739494179e+00 -1.0228106109541324e-03 +0.0000000000000000e+00 +9.9999947692908986e-01
9.9999999999999805e+00 +9.1261344601415626e+00 +0.0000000000000000e+00 +9.9999982211121576e+00 -1.0331427303628643e-03 +0.0000000000000000e+00 +9.9999946630790648e-01
1.0099999999999980e+01 +9.1260306292623348e+00 +0.0000000000000000e+00 +1.0099998167207440e+01 -1.0434748550058523e-03 +0.0000000000000000e+00 +9.9999945557996484e-01
1.0199999999999980e+01 +9.1259257651704058e+00 +0.0000000000000000e+00 +1.0199998112224591e+01 -1.0538069843049897e-03 +0.0000000000000000e+00 +9.9999944474526525e-01
1.0299999999999979e+01 +9.1258198678653422e+00 +0.0000000000000000e+00 +1.0299998056152935e+01 -1.0641391175861528e-03 +0.0000000000000000e+00 +9.9999943380380840e-01
1.0399999999999979e+01 +9.1257129373467816e+00 +0.0000000000000000e+00 +1.0399997998981794e+01 -1.0744712540791859e-03 +0.0000000000000000e+00 +9.9999942275559495e-01
1.0499999999999979e+01 +9.1256049736144469e+00 +0.0000000000000000e+00 +1.0499997940700494e+01 -1.0848033929178858e-03 +0.0000000000000000e+00 +9.9999941160062578e-01
1.0599999999999978e+01 +9.1254959766681516e+00 +0.0000000000000000e+00 +1.0599997881298361e+01 -1.0951355331491146e-03 +0.0000000000000000e+00 +9.9999940033890178e-01
1.0699999999999978e+01 +9.1253859465078033e+00 +0.0000000000000000e+00 +1.0699997820764716e+01 -1.1054676738332160e-03 +0.0000000000000000e+00 +9.9999938897042395e-01
1.0799999999999978e+01 +9.1252748831333985e+00 +0.0000000000000000e+00 +1.0799997759088887e+01 -1.1157998141444656e-03 +0.0000000000000000e+00 +9.9999937749519319e-01
1.0899999999999977e+01 +9.1251627865450100e+00 +0.0000000000000000e+00 +1.0899997696260197e+01 -1.1261319533802372e-03 +0.0000000000000000e+00 +9.9999936591321037e-01
1.0999999999999977e+01 +9.1250496567427763e+00 +0.0000000000000000e+00 +1.0999997632267972e+01 -1.1364640909610404e-03 +0.0000000000000000e+00 +9.9999935422447606e-01
1.1099999999999977e+01 +9.1249354937268876e+00 +0.0000000000000000e+00 +1.1099997567101534e+01 -1.1467962264305590e-03 +0.0000000000000000e+00 +9.9999934242899091e-01
1.1199999999999976e+01 +9.1248202974975712e+00 +0.0000000000000000e+00 +1.1199997500750211e+01 -1.1571283594556908e-03 +0.0000000000000000e+00 +9.9999933052675538e-01
1.1299999999999976e+01 +9.1247040680550846e+00 +0.0000000000000000e+00 +1.1299997433203327e+01 -1.1674604898265876e-03 +0.0000000000000000e+00 +9.9999931851776980e-01
1.1399999999999975e+01 +9.1245868053996979e+00 +0.0000000000000000e+00 +1.1399997364450206e+01 -1.1777926174566964e-03 +0.0000000000000000e+00 +9.9999930640203427e-01
1.1499999999999975e+01 +9.1244685095316846e+00 +0.0000000000000000e+00 +1.1499997294480174e+01 -1.1881247423828020e-03 +0.0000000000000000e+00 +9.9999929417954880e-01
1.1599999999999975e+01 +9.1243491804513077e+00 +0.0000000000000000e+00 +1.1599997223282557e+01 -1.1984568647650695e-03 +0.0000000000000000e+00 +9.9999928185031339e-01
1.1699999999999974e+01 +9.1242288181588069e+00 +0.0000000000000000e+00 +1.1699997150846679e+01 -1.2087889848870891e-03 +0.0000000000000000e+00 +9.9999926941432771e-01
1.1799999999999974e+01 +9.1241074226543919e+00 +0.0000000000000000e+00 +1.1799997077161864e+01 -1.2191211031559203e-03 +0.0000000000000000e+00 +9.9999925687159141e-01
