# multipoles
# s[mm] polynom_b[n=0][T/m^n] polynom_b[n=1][T/m^n] polynom_b[n=2][T/m^n] polynom_b[n=3][T/m^n] polynom_b[n=4][T/m^n] polynom_b[n=5][T/m^n] polynom_b[n=6][T/m^n] 
+0.0000000000000000e+00 -1.0608658502696440e+00 +2.3480325288469062e+00 +2.1517244600870363e+01 +6.6423035259365093e+01 -9.1535283646651260e+03 +3.3209008463953325e+05 +6.1012666122314520e+07 
-1.0000000000000001e-01 -1.0608706630327636e+00 +2.3480159119513675e+00 +2.1513859276610106e+01 +6.7344845981469007e+01 -9.0355428514358628e+03 +3.2715270432337566e+05 +6.0360148963644810e+07 
-2.0000000000000001e-01 -1.0608754242740657e+00 +2.3479952439322016e+00 +2.1509492073519478e+01 +6.8329167284963972e+01 -8.9089699051234638e+03 +3.2195336272690288e+05 +5.9685531159700505e+07 
-3.0000000000000004e-01 -1.0608801351394941e+00 +2.3479708335999199e+00 +2.1504244058215402e+01 +6.9371687607914225e+01 -8.7754198609336054e+03 +3.1650908609693288e+05 +5.8995956590066932e+07 
-4.0000000000000002e-01 -1.0608847967749284e+00 +2.3479429897797055e+00 +2.1498216291439057e+01 +7.0468095123573775e+01 -8.6365029526934777e+03 +3.1083690167290537e+05 +5.8298568673854105e+07 
-5.0000000000000000e-01 -1.0608894103262922e+00 +2.3479120213011155e+00 +2.1491509840433501e+01 +7.1614078012517894e+01 -8.4938295461115613e+03 +3.0495383617668104e+05 +5.7600511478516400e+07 
-5.9999999999999998e-01 -1.0608939769394317e+00 +2.3478782369981768e+00 +2.1484225763627176e+01 +7.2805324493255711e+01 -8.3490098440032507e+03 +2.9887691552279535e+05 +5.6908928307473905e+07 
-6.9999999999999996e-01 -1.0608984977602200e+00 +2.3478419457132587e+00 +2.1476465123914544e+01 +7.4037522661206012e+01 -8.2036541420311514e+03 +2.9262316589546477e+05 +5.6230962926425204e+07 
-7.9999999999999993e-01 -1.0609029739344986e+00 +2.3478034562930343e+00 +2.1468328980260214e+01 +7.5306360634683870e+01 -8.0593726618105884e+03 +2.8620961278999358e+05 +5.5573758749624372e+07 
-8.9999999999999991e-01 -1.0609074066081314e+00 +2.3477630775826830e+00 +2.1459918395183305e+01 +7.6607526715470215e+01 -7.9177756994989422e+03 +2.7965328010855668e+05 +5.4944459567614146e+07 
-9.9999999999999989e-01 -1.0609117969269561e+00 +2.3477211184338089e+00 +2.1451334427360898e+01 +7.7936709129978368e+01 -7.7804734738422640e+03 +2.7297119172780833e+05 +5.4350208791457720e+07 
-1.0999999999999999e+00 -1.0609161460368002e+00 +2.3476778876977384e+00 +2.1442678134216592e+01 +7.9289596247602802e+01 -7.6490761825101199e+03 +2.6618037015195633e+05 +5.3798149742095366e+07 
-1.2000000000000000e+00 -1.0609204550835498e+00 +2.3476336942190974e+00 +2.1434050580140898e+01 +8.0661876742892176e+01 -7.5251941551373930e+03 +2.5929783563231656e+05 +5.3295426371610925e+07 
-1.3000000000000000e+00 -1.0609247252130380e+00 +2.3475888468501886e+00 +2.1425552821778293e+01 +8.2049239196413211e+01 -7.4104375685009254e+03 +2.5234060842701333e+05 +5.2849181894050092e+07 
-1.4000000000000001e+00 -1.0609289575711232e+00 +2.3475436544321298e+00 +2.1417285917898614e+01 +8.3447372613244298e+01 -7.3064166344103087e+03 +2.4532570585447946e+05 +5.2466559680128366e+07 
-1.5000000000000002e+00 -1.0609331533037281e+00 +2.3474984258057434e+00 +2.1409350934545355e+01 +8.4851966117687510e+01 -7.2147417026382400e+03 +2.3827014403177233e+05 +5.2154703764614746e+07 
-1.6000000000000003e+00 -1.0609373135567270e+00 +2.3474534698053513e+00 +2.1401848929414012e+01 +8.6258709124223856e+01 -7.1370229496853435e+03 +2.3119093689063919e+05 +5.1920757324100062e+07 
-1.7000000000000004e+00 -1.0609414394760701e+00 +2.3474090952571349e+00 +2.1394880968896267e+01 +8.7663291380249404e+01 -7.0748707170135749e+03 +2.2410509594449383e+05 +5.1771864328240842e+07 
-1.8000000000000005e+00 -1.0609455322076882e+00 +2.3473656109792551e+00 +2.1388548114072378e+01 +8.9061402960162781e+01 -7.0298952284321249e+03 +2.1702963030602646e+05 +5.1715168149648443e+07 
-1.9000000000000006e+00 -1.0609495928975732e+00 +2.3473233257836763e+00 +2.1382951431874119e+01 +9.0448734215273134e+01 -7.0037068118197412e+03 +2.0998154696977165e+05 +5.1757812649272181e+07 
-2.0000000000000004e+00 -1.0609536226917504e+00 +2.3472825484679936e+00 +2.1378191990695850e+01 +9.1820975991615200e+01 -6.9979158083865241e+03 +2.0297784958217206e+05 +5.1906941720428191e+07 
-2.1000000000000005e+00 -1.0609576224999029e+00 +2.3472435555491522e+00 +2.1374343707643938e+01 +9.3173926125741090e+01 -7.0135740362199786e+03 +1.9603519977073872e+05 +5.2166949870886333e+07 
-2.2000000000000006e+00 -1.0609615922935600e+00 +2.3472065065437251e+00 +2.1371373690162223e+01 +9.4503385649144690e+01 -7.0495214598831135e+03 +1.8917134322332643e+05 +5.2531338353904337e+07 
-2.3000000000000007e+00 -1.0609655318114484e+00 +2.3471715347353825e+00 +2.1369222759848864e+01 +9.5805049422498456e+01 -7.1040496818194879e+03 +1.8240490900409385e+05 +5.2990905862458341e+07 
-2.4000000000000008e+00 -1.0609694407923267e+00 +2.3471387733981048e+00 +2.1367831741161510e+01 +9.7074612448864542e+01 -7.1754503422599264e+03 +1.7575452586414575e+05 +5.3536451231315657e+07 
-2.5000000000000009e+00 -1.0609733189749631e+00 +2.3471083558106827e+00 +2.1367141458106278e+01 +9.8307769426176662e+01 -7.2620150467847652e+03 +1.6923882495100042e+05 +5.4158773056865141e+07 
-2.6000000000000010e+00 -1.0609771660981886e+00 +2.3470804152515927e+00 +2.1367092741128033e+01 +9.9500214866669637e+01 -7.3620355021027526e+03 +1.6287643924834664e+05 +5.4848670362038016e+07 
-2.7000000000000011e+00 -1.0609809819008211e+00 +2.3470550850014757e+00 +2.1367626417314032e+01 +1.0064764301097381e+02 -7.4738033253013145e+03 +1.5668600412668832e+05 +5.5596941674348786e+07 
-2.8000000000000012e+00 -1.0609847661217446e+00 +2.3470324983426982e+00 +2.1368683320657617e+01 +1.0174574780838643e+02 -7.5956102376400204e+03 +1.5068615759126737e+05 +5.6394385941667885e+07 
-2.9000000000000012e+00 -1.0609885184998442e+00 +2.3470127885584975e+00 +2.1370204283533848e+01 +1.0279022292142561e+02 -7.7257479012666035e+03 +1.4489554034804707e+05 +5.7231801755230449e+07 
-3.0000000000000013e+00 -1.0609922387740791e+00 +2.3469960889368218e+00 +2.1372130145760412e+01 +1.0377676157928882e+02 -7.8625080888434304e+03 +1.3933279678090158e+05 +5.8099988147060066e+07 
-3.1000000000000014e+00 -1.0609959266834093e+00 +2.3469825327663254e+00 +2.1374401746218496e+01 +1.0470105668197489e+02 -8.0041825273084769e+03 +1.3401657441012029e+05 +5.8989743854015030e+07 
-3.2000000000000015e+00 -1.0609995819668043e+00 +2.3469722533398572e+00 +2.1376959922001955e+01 +1.0555880066487862e+02 -8.1490628680719383e+03 +1.2896552481670892e+05 +5.9891867140335806e+07 
-3.3000000000000016e+00 -1.0610032043633602e+00 +2.3469653839518418e+00 +2.1379745525374819e+01 +1.0634568555441234e+02 -8.2954410250489054e+03 +1.2419830340160988e+05 +6.0797157446711190e+07 
-3.4000000000000017e+00 -1.0610067936121304e+00 +2.3469620579038311e+00 +2.1382699401121947e+01 +1.0705740277876745e+02 -8.4416087299003539e+03 +1.1973357059792877e+05 +6.1696413236827940e+07 
-3.5000000000000018e+00 -1.0610103494522389e+00 +2.3469624084966547e+00 +2.1385762400495807e+01 +1.0768964337114417e+02 -8.5858577966801440e+03 +1.1558999079785067e+05 +6.2580433252277784e+07 
-3.6000000000000019e+00 -1.0610138716228481e+00 +2.3469665690433064e+00 +2.1388875378398861e+01 +1.0823809756940003e+02 -8.7264800727026595e+03 +1.1178623477319350e+05 +6.3440016292794056e+07 
-3.7000000000000020e+00 -1.0610173598631618e+00 +2.3469746728526482e+00 +2.1391979192445316e+01 +1.0869845527649125e+02 -8.8617674140848630e+03 +1.0834097707607684e+05 +6.4265961080235064e+07 
-3.8000000000000020e+00 -1.0610208139124417e+00 +2.3469868532467868e+00 +2.1395014705677802e+01 +1.0906640550811969e+02 -8.9900117364923481e+03 +1.0527289941630418e+05 +6.5049066497826464e+07 
-3.9000000000000021e+00 -1.0610242335099889e+00 +2.3470032435458208e+00 +2.1397922783783457e+01 +1.0933763682663933e+02 -9.1095049617631430e+03 +1.0260068819632841e+05 +6.5780131334787026e+07 
-4.0000000000000018e+00 -1.0610276183951313e+00 +2.3470239770822499e+00 +2.1400644294164742e+01 +1.0950783687801919e+02 -9.2185390013931974e+03 +1.0034303736430041e+05 +6.6449954212913565e+07 
-4.1000000000000014e+00 -1.0610309684602184e+00 +2.3470491143514645e+00 +2.1403130189079640e+01 +1.0957421809201965e+02 -9.3156925969976382e+03 +9.8513957373988524e+04 +6.7050829204536244e+07 
-4.2000000000000011e+00 -1.0610342842131169e+00 +2.3470784119666428e+00 +2.1405375954432198e+01 +1.0954079213198240e+02 -9.4007823017197479e+03 +9.7105302455866768e+04 +6.7581338432634339e+07 
-4.3000000000000007e+00 -1.0610375663164591e+00 +2.3471115471796478e+00 +2.1407389304134952e+01 +1.0941344816095643e+02 -9.4739590260475252e+03 +9.6102586422427790e+04 +6.8041723388412639e+07 
-4.4000000000000004e+00 -1.0610408154328583e+00 +2.3471481972193264e+00 +2.1409177954615874e+01 +1.0919807603341235e+02 -9.5353737980002970e+03 +9.5491319482622901e+04 +6.8432226304913640e+07 
-4.5000000000000000e+00 -1.0610440322249464e+00 +2.3471880393002311e+00 +2.1410749629824046e+01 +1.0890056601299628e+02 -9.5851778610418460e+03 +9.5257009687386380e+04 +6.8753090654983833e+07 
-4.5999999999999996e+00 -1.0610472173553656e+00 +2.3472307506192522e+00 +2.1412112060896948e+01 +1.0852680889328543e+02 -9.6235226691193238e+03 +9.5385162157147250e+04 +6.9004561129053503e+07 
-4.6999999999999993e+00 -1.0610503714867703e+00 +2.3472760083554283e+00 +2.1413272986980012e+01 +1.0808269602152149e+02 -9.6505599204052014e+03 +9.5861278895411189e+04 +6.9186883852071270e+07 
-4.7999999999999989e+00 -1.0610534952818245e+00 +2.3473234896703086e+00 +2.1414240154346555e+01 +1.0757411929225545e+02 -9.6664415298108543e+03 +9.6670858813030136e+04 +6.9300306219506830e+07 
-4.8999999999999986e+00 -1.0610565894031563e+00 +2.3473728717007942e+00 +2.1415021312019711e+01 +1.0700697135840200e+02 -9.6713195593251839e+03 +9.7799396491758191e+04 +6.9345076604913190e+07 
-4.9999999999999982e+00 -1.0610596545134383e+00 +2.3474238315644653e+00 +2.1415624221871006e+01 +1.0638714549829855e+02 -9.6653464163308545e+03 +9.9232382899068238e+04 +6.9321445322575092e+07 
-5.0999999999999979e+00 -1.0610626912753389e+00 +2.3474760463591902e+00 +2.1416056652397874e+01 +1.0572053563860108e+02 -9.6486747343384377e+03 +1.0095530522270707e+05 +6.9229664057598591e+07 
-5.1999999999999975e+00 -1.0610657003515025e+00 +2.3475291931568760e+00 +2.1416326377677262e+01 +1.0501303653666902e+02 -9.6214573638491220e+03 +1.0295364579765993e+05 +6.9069985851401359e+07 
-5.2999999999999972e+00 -1.0610686824045756e+00 +2.3475829490037068e+00 +2.1416441179759904e+01 +1.0427054378643324e+02 -9.5838474188929176e+03 +1.0521288205371908e+05 +6.8842665329586089e+07 
-5.3999999999999968e+00 -1.0610716380972487e+00 +2.3476369909269548e+00 +2.1416408855069765e+01 +1.0349895363808685e+02 -9.5359984059204089e+03 +1.0771848749845345e+05 +6.8547959332616895e+07 
-5.4999999999999964e+00 -1.0610745680921454e+00 +2.3476909959198298e+00 +2.1416237201093853e+01 +1.0270416344644862e+02 -9.4780639779486701e+03 +1.1045592909596914e+05 +6.8186125769197300e+07 
-5.5999999999999961e+00 -1.0610774730519470e+00 +2.3477446409557312e+00 +2.1415934031602777e+01 +1.0189207125754352e+02 -9.4101982241053956e+03 +1.1341066966772381e+05 +6.7757424992655754e+07 
-5.6999999999999957e+00 -1.0610803536392495e+00 +2.3477976029797816e+00 +2.1415507159366605e+01 +1.0106857607341955e+02 -9.3325553495906752e+03 +1.1656816629747617e+05 +6.7262118306093812e+07 
-5.7999999999999954e+00 -1.0610832105167289e+00 +2.3478495589017565e+00 +2.1414964417461338e+01 +1.0023957807551093e+02 -9.2452900831317820e+03 +1.1991386897855772e+05 +6.6700469902937412e+07 
-5.8999999999999950e+00 -1.0610860443470149e+00 +2.3479001856096673e+00 +2.1414313643861636e+01 +9.9410978223834391e+01 -9.1485573950618091e+03 +1.2343322297546254e+05 +6.6072745561928704e+07 
-5.9999999999999947e+00 -1.0610888557927423e+00 +2.3479491599644158e+00 +2.1413562688947781e+01 +9.8588678401356503e+01 -9.0425126526883196e+03 +1.2711166751131848e+05 +6.5379213381249830e+07 
-6.0999999999999943e+00 -1.0610916453446557e+00 +2.3479962121461653e+00 +2.1412722118798186e+01 +9.7777526780508879e+01 -8.9275551271877812e+03 +1.3093587379067928e+05 +6.4621800553838573e+07 
-6.1999999999999940e+00 -1.0610944127161017e+00 +2.3480412427465569e+00 +2.1411797035419635e+01 +9.6979893735293231e+01 -8.8047388916383115e+03 +1.3488594029469785e+05 +6.3807805115598612e+07 
-6.2999999999999936e+00 -1.0610971574043091e+00 +2.3480841852035521e+00 +2.1410787382947113e+01 +9.6197953485082422e+01 -8.6752114179656110e+03 +1.3893731259228635e+05 +6.2945615235456072e+07 
-6.3999999999999932e+00 -1.0610998789063069e+00 +2.3481249729902371e+00 +2.1409693077281389e+01 +9.5433880029949137e+01 -8.5401195755720746e+03 +1.4306543340091570e+05 +6.2043616049006499e+07 
-6.4999999999999929e+00 -1.0611025767190634e+00 +2.3481635396144633e+00 +2.1408514023673948e+01 +9.4689847023715473e+01 -8.4006099474651510e+03 +1.4724574438655682e+05 +6.1110191029376611e+07 
-6.5999999999999925e+00 -1.0611052503393612e+00 +2.3481998186254791e+00 +2.1407250100233494e+01 +9.3968027617364811e+01 -8.2578285076673601e+03 +1.5145368692177246e+05 +6.0153720422090732e+07 
-6.6999999999999922e+00 -1.0611078992639262e+00 +2.3482337436118463e+00 +2.1405901174249376e+01 +9.3270594535331540e+01 -8.1129209290277540e+03 +1.5566470155185196e+05 +5.9182582702334173e+07 
-6.7999999999999918e+00 -1.0611105229892805e+00 +2.3482652482067534e+00 +2.1404467083206679e+01 +9.2599719960289121e+01 -7.9670322183057078e+03 +1.5985422849582203e+05 +5.8205152825012349e+07 
-6.8999999999999915e+00 -1.0611131210118103e+00 +2.3482942660874002e+00 +2.1402947643351894e+01 +9.1957575575137199e+01 -7.8213068720027868e+03 +1.6399770728713679e+05 +5.7229802941212997e+07 
-6.9999999999999911e+00 -1.0611156928278012e+00 +2.3483207309787710e+00 +2.1401342654328037e+01 +9.1346332472118448e+01 -7.6768889685874192e+03 +1.6807057719986408e+05 +5.6264902849026054e+07 
-7.0999999999999908e+00 -1.0611182379333481e+00 +2.3483445766533828e+00 +2.1399651886244957e+01 +9.0768161196929739e+01 -7.5349219031920866e+03 +1.7204827683000357e+05 +5.5318818672532834e+07 
-7.1999999999999904e+00 -1.0611207558243942e+00 +2.3483657369314730e+00 +2.1397875085965374e+01 +9.0225231762212644e+01 -7.3965485153552963e+03 +1.7590624392144405e+05 +5.4399913487577803e+07 
-7.2999999999999901e+00 -1.0611232459967233e+00 +2.3483841456887316e+00 +2.1396011974354064e+01 +8.9719713458501062e+01 -7.2629110231846844e+03 +1.7961991630572686e+05 +5.3516546972149245e+07 
-7.3999999999999897e+00 -1.0611257079459562e+00 +2.3483997368545557e+00 +2.1394062247528598e+01 +8.9253774928750360e+01 -7.1351510548703855e+03 +1.8316473135688389e+05 +5.2677075573310278e+07 
-7.4999999999999893e+00 -1.0611281411675029e+00 +2.3484124444084631e+00 +2.1392025568359166e+01 +8.8829584294278902e+01 -7.0144094653537149e+03 +1.8651612514218717e+05 +5.1889851569740571e+07 
-7.5999999999999890e+00 -1.0611305451566724e+00 +2.3484222023932939e+00 +2.1389901581904542e+01 +8.8449308800226703e+01 -6.9018266395062974e+03 +1.8964953435385477e+05 +5.1163224541041531e+07 
-7.6999999999999886e+00 -1.0611329194085000e+00 +2.3484289449081643e+00 +2.1387689892379790e+01 +8.8115115059550035e+01 -6.7985420415272010e+03 +1.9254039472530055e+05 +5.0505539184433222e+07 
-7.7999999999999883e+00 -1.0611352634179210e+00 +2.3484326061138274e+00 +2.1385390084908220e+01 +8.7829168900691471e+01 -6.7056946271908155e+03 +1.9516414186018219e+05 +4.9925137270512551e+07 
-7.8999999999999879e+00 -1.0611375766796058e+00 +2.3484331202322584e+00 +2.1383001705591557e+01 +8.7593635438138520e+01 -6.6244224629454548e+03 +1.9749621060314871e+05 +4.9430355820848793e+07 
-7.9999999999999876e+00 -1.0611398586880199e+00 +2.3484304215221949e+00 +2.1380524263953934e+01 +8.7410680170775635e+01 -6.5558626783238906e+03 +1.9951202955516279e+05 +4.9029526756682359e+07 
-8.0999999999999872e+00 -1.0611421091121367e+00 +2.3484244662059295e+00 +2.1377961096738577e+01 +8.7282960412772269e+01 -6.5008229454062666e+03 +2.0118547726307830e+05 +4.8728477237379782e+07 
-8.1999999999999869e+00 -1.0611443284192954e+00 +2.3484153777007375e+00 +2.1375341858487690e+01 +8.7210863686636117e+01 -6.4590749883254039e+03 +2.0251066168570530e+05 +4.8524254761225462e+07 
-8.2999999999999865e+00 -1.0611465173001313e+00 +2.3484033403064370e+00 +2.1372704873135213e+01 +8.7193176357769872e+01 -6.4301730524603527e+03 +2.0349343573362599e+05 +4.8411843403661124e+07 
-8.3999999999999861e+00 -1.0611486764454399e+00 +2.3483885382968244e+00 +2.1370088480798714e+01 +8.7228684262208034e+01 -6.4136716745161366e+03 +2.0413966115094023e+05 +4.8386228595235981e+07 
-8.4999999999999858e+00 -1.0611508065460662e+00 +2.3483711559060652e+00 +2.1367531023904309e+01 +8.7316173517999616e+01 -6.4091254696751230e+03 +2.0445520219242049e+05 +4.8442396341833495e+07 
-8.5999999999999854e+00 -1.0611529082929458e+00 +2.3483513773135805e+00 +2.1365070853910368e+01 +8.7454430928937697e+01 -6.4160892722281096e+03 +2.0444592344822679e+05 +4.8575333932724737e+07 
-8.6999999999999851e+00 -1.0611549823771382e+00 +2.3483293866614421e+00 +2.1362746334098642e+01 +8.7642243448827003e+01 -6.4341181831751837e+03 +2.0411769308413236e+05 +4.8780030156562768e+07 
-8.7999999999999847e+00 -1.0611570294897863e+00 +2.3483053680345298e+00 +2.1360595835285597e+01 +8.7878398720404192e+01 -6.4627674948594877e+03 +2.0347637989804184e+05 +4.9051474962090515e+07 
-8.8999999999999844e+00 -1.0611590503221870e+00 +2.3482795054701477e+00 +2.1358657744001860e+01 +8.8161684775875415e+01 -6.5015928452345488e+03 +2.0252785515510896e+05 +4.9384660194745384e+07 
-8.9999999999999840e+00 -1.0611610455656453e+00 +2.3482519829538608e+00 +2.1356970444243348e+01 +8.8490890104058877e+01 -6.5501498717939221e+03 +2.0127799242693587e+05 +4.9774577952794544e+07 
-9.0999999999999837e+00 -1.0611630159116883e+00 +2.3482229844171556e+00 +2.1355572344729602e+01 +8.8864803709895455e+01 -6.6079947365381122e+03 +1.9973266732321767e+05 +5.0216223110785797e+07 
-9.1999999999999833e+00 -1.0611649620519066e+00 +2.3481926937375270e+00 +2.1354501858102498e+01 +8.9282215069824773e+01 -6.6746837275355301e+03 +1.9789775792691071e+05 +5.0704591418284088e+07 
-9.2999999999999829e+00 -1.0611668846780187e+00 +2.3481612947320079e+00 +2.1353797409439412e+01 +8.9741914280246078e+01 -6.7497734227019591e+03 +1.9577914410758184e+05 +5.1234680286564574e+07 
-9.3999999999999826e+00 -1.0611687844818900e+00 +2.3481289711634972e+00 +2.1353497438697353e+01 +9.0242691848009940e+01 -6.8328207424632128e+03 +1.9338270886936964e+05 +5.1801489062647283e+07 
-9.4999999999999822e+00 -1.0611706621554753e+00 +2.3480959067263996e+00 +2.1353640392331542e+01 +9.0783339080987204e+01 -6.9233827819930721e+03 +1.9071433621862726e+05 +5.2400018209368065e+07 
-9.5999999999999819e+00 -1.0611725183908889e+00 +2.3480622850666553e+00 +2.1354264734081038e+01 +9.1362647460593223e+01 -7.0210170344598628e+03 +1.8777991499538987e+05 +5.3025270422540337e+07 
-9.6999999999999815e+00 -1.0611743538804099e+00 +2.3480282897530205e+00 +2.1355408943274096e+01 +9.1979409467358309e+01 -7.1252813432711582e+03 +1.8458533416088246e+05 +5.3672250365197837e+07 
-9.7999999999999812e+00 -1.0611761693164097e+00 +2.3479941043010446e+00 +2.1357111506963705e+01 +9.2632417804978132e+01 -7.2357337641032009e+03 +1.8113648760174806e+05 +5.4335964045393504e+07 
-9.8999999999999808e+00 -1.0611779653914319e+00 +2.3479599121516195e+00 +2.1359410929968444e+01 +9.3320466057616329e+01 -7.3519327577365966e+03 +1.7743927025275878e+05 +5.5011419743163519e+07 
-9.9999999999999805e+00 -1.0611797427981833e+00 +2.3479258967080079e+00 +2.1362345734833397e+01 +9.4042346710550987e+01 -7.4734373170342260e+03 +1.7349958890571349e+05 +5.5693628770068146e+07 
-1.0099999999999980e+01 -1.0611815022996092e+00 +2.3478922415066674e+00 +2.1365936481024256e+01 +9.4795320682407393e+01 -7.5997342616474907e+03 +1.6933279864332831e+05 +5.6377967279388145e+07 
