# trajectory
# s[mm] rx[mm] ry[mm] rz[mm] px[rad] py[rad] pz[rad]
0.0000000000000000e+00 +9.1013000000000002e+00 +0.0000000000000000e+00 +0.0000000000000000e+00 +0.0000000000000000e+00 +0.0000000000000000e+00 +1.0000000000000000e+00
1.0000000000000001e-01 +9.1012994834491607e+00 +0.0000000000000000e+00 +9.9999999998221151e-02 -1.0331016464279935e-05 +0.0000000000000000e+00 +9.9999999994663502e-01
2.0000000000000001e-01 +9.1012979337967632e+00 +0.0000000000000000e+00 +1.9999999998576934e-01 -2.0662031227328960e-05 +0.0000000000000000e+00 +9.9999999978654019e-01
3.0000000000000004e-01 +9.1012953510429551e+00 +0.0000000000000000e+00 +2.9999999995197157e-01 -3.0993044781084263e-05 +0.0000000000000000e+00 +9.9999999951971552e-01
4.0000000000000002e-01 +9.1012917351878286e+00 +0.0000000000000000e+00 +3.9999999988615481e-01 -4.1324057696710859e-05 +0.0000000000000000e+00 +9.9999999914616111e-01
5.0000000000000000e-01 +9.1012870862314159e+00 +0.0000000000000000e+00 +4.9999999977764614e-01 -5.1655070624595194e-05 +0.0000000000000000e+00 +9.9999999866587685e-01
5.9999999999999998e-01 +9.1012814041736796e+00 +0.0000000000000000e+00 +5.9999999961577255e-01 -6.1986084289353450e-05 +0.0000000000000000e+00 +9.9999999807886264e-01
6.9999999999999996e-01 +9.1012746890145095e+00 +0.0000000000000000e+00 +6.9999999938986102e-01 -7.2317099434994004e-05 +0.0000000000000000e+00 +9.9999999738511858e-01
7.9999999999999993e-01 +9.1012669407537210e+00 +0.0000000000000000e+00 +7.9999999908923858e-01 -8.2648116770081450e-05 +0.0000000000000000e+00 +9.9999999658464445e-01
8.9999999999999991e-01 +9.1012581593910600e+00 +0.0000000000000000e+00 +8.9999999870323222e-01 -9.2979136962747627e-05 +0.0000000000000000e+00 +9.9999999567744013e-01
9.9999999999999989e-01 +9.1012483449262120e+00 +0.0000000000000000e+00 +9.9999999822116892e-01 -1.0331016064068802e-04 +0.0000000000000000e+00 +9.9999999466350542e-01
1.0999999999999999e+00 +9.1012374973587971e+00 +0.0000000000000000e+00 +1.0999999976323755e+00 -1.1364118839115883e-04 +0.0000000000000000e+00 +9.9999999354284019e-01
1.2000000000000000e+00 +9.1012256166883798e+00 +0.0000000000000000e+00 +1.1999999969261792e+00 -1.2397222076097468e-04 +0.0000000000000000e+00 +9.9999999231544423e-01
1.3000000000000000e+00 +9.1012127029144736e+00 +0.0000000000000000e+00 +1.2999999960919066e+00 -1.3430325825650717e-04 +0.0000000000000000e+00 +9.9999999098131742e-01
1.4000000000000001e+00 +9.1011987560365419e+00 +0.0000000000000000e+00 +1.3999999951188848e+00 -1.4463430134368388e-04 +0.0000000000000000e+00 +9.9999998954045943e-01
1.5000000000000002e+00 +9.1011837760540040e+00 +0.0000000000000000e+00 +1.4999999939964408e+00 -1.5496535044798838e-04 +0.0000000000000000e+00 +9.9999998799287004e-01
1.6000000000000003e+00 +9.1011677629662380e+00 +0.0000000000000000e+00 +1.5999999927139013e+00 -1.6529640595446064e-04 +0.0000000000000000e+00 +9.9999998633854903e-01
1.7000000000000004e+00 +9.1011507167725867e+00 +0.0000000000000000e+00 +1.6999999912605930e+00 -1.7562746820769828e-04 +0.0000000000000000e+00 +9.9999998457749617e-01
1.8000000000000005e+00 +9.1011326374723609e+00 +0.0000000000000000e+00 +1.7999999896258427e+00 -1.8595853751185860e-04 +0.0000000000000000e+00 +9.9999998270971113e-01
1.9000000000000006e+00 +9.1011135250648412e+00 +0.0000000000000000e+00 +1.8999999877989775e+00 -1.9628961413066108e-04 +0.0000000000000000e+00 +9.9999998073519358e-01
2.0000000000000004e+00 +9.1010933795492832e+00 +0.0000000000000000e+00 +1.9999999857693238e+00 -2.0662069828739077e-04 +0.0000000000000000e+00 +9.9999997865394341e-01
2.1000000000000005e+00 +9.1010722009249250e+00 +0.0000000000000000e+00 +2.0999999835262084e+00 -2.1695179016490229e-04 +0.0000000000000000e+00 +9.9999997646596017e-01
2.2000000000000006e+00 +9.1010499891909866e+00 +0.0000000000000000e+00 +2.1999999810589581e+00 -2.2728288990562454e-04 +0.0000000000000000e+00 +9.9999997417124376e-01
2.3000000000000007e+00 +9.1010267443466777e+00 +0.0000000000000000e+00 +2.2999999783568996e+00 -2.3761399761156610e-04 +0.0000000000000000e+00 +9.9999997176979383e-01
2.4000000000000008e+00 +9.1010024663911970e+00 +0.0000000000000000e+00 +2.3999999754093593e+00 -2.4794511334432135e-04 +0.0000000000000000e+00 +9.9999996926161006e-01
2.5000000000000009e+00 +9.1009771553237400e+00 +0.0000000000000000e+00 +2.4999999722056638e+00 -2.5827623712507722e-04 +0.0000000000000000e+00 +9.9999996664669222e-01
2.6000000000000010e+00 +9.1009508111435036e+00 +0.0000000000000000e+00 +2.5999999687351401e+00 -2.6860736893689679e-04 +0.0000000000000000e+00 +9.9999996392504009e-01
2.7000000000000011e+00 +9.1009234338496849e+00 +0.0000000000000000e+00 +2.6999999649871143e+00 -2.7893850874976243e-04 +0.0000000000000000e+00 +9.9999996109665346e-01
2.8000000000000012e+00 +9.1008950234414865e+00 +0.0000000000000000e+00 +2.7999999609509132e+00 -2.8926965654561251e-04 +0.0000000000000000e+00 +9.9999995816153209e-01
2.9000000000000012e+00 +9.1008655799181088e+00 +0.0000000000000000e+00 +2.8999999566158632e+00 -2.9960081232061395e-04 +0.0000000000000000e+00 +9.9999995511967565e-01
3.0000000000000013e+00 +9.1008351032787544e+00 +0.0000000000000000e+00 +2.9999999519712905e+00 -3.0993197608515763e-04 +0.0000000000000000e+00 +9.9999995197108393e-01
3.1000000000000014e+00 +9.1008035935226239e+00 +0.0000000000000000e+00 +3.0999999470065220e+00 -3.2026314786385370e-04 +0.0000000000000000e+00 +9.9999994871575670e-01
3.2000000000000015e+00 +9.1007710506489126e+00 +0.0000000000000000e+00 +3.1999999417108840e+00 -3.3059432769552618e-04 +0.0000000000000000e+00 +9.9999994535369374e-01
3.3000000000000016e+00 +9.1007374746568139e+00 +0.0000000000000000e+00 +3.2999999360737027e+00 -3.4092551563320715e-04 +0.0000000000000000e+00 +9.9999994188489472e-01
3.4000000000000017e+00 +9.1007028655455127e+00 +0.0000000000000000e+00 +3.3999999300843049e+00 -3.5125671174413052e-04 +0.0000000000000000e+00 +9.9999993830935929e-01
3.5000000000000018e+00 +9.1006672233141899e+00 +0.0000000000000000e+00 +3.4999999237320165e+00 -3.6158791610972521e-04 +0.0000000000000000e+00 +9.9999993462708725e-01
3.6000000000000019e+00 +9.1006305479620124e+00 +0.0000000000000000e+00 +3.5999999170061643e+00 -3.7191912882560802e-04 +0.0000000000000000e+00 +9.9999993083807837e-01
3.7000000000000020e+00 +9.1005928394881419e+00 +0.0000000000000000e+00 +3.6999999098960741e+00 -3.8225035000157573e-04 +0.0000000000000000e+00 +9.9999992694233220e-01
3.8000000000000020e+00 +9.1005540978917256e+00 +0.0000000000000000e+00 +3.7999999023910727e+00 -3.9258157976159716e-04 +0.0000000000000000e+00 +9.9999992293984852e-01
3.9000000000000021e+00 +9.1005143231718986e+00 +0.0000000000000000e+00 +3.8999998944804859e+00 -4.0291281824380432e-04 +0.0000000000000000e+00 +9.9999991883062700e-01
4.0000000000000018e+00 +9.1004735153277814e+00 +0.0000000000000000e+00 +3.9999998861536401e+00 -4.1324406560048338e-04 +0.0000000000000000e+00 +9.9999991461466731e-01
4.1000000000000014e+00 +9.1004316743584770e+00 +0.0000000000000000e+00 +4.0999998773998616e+00 -4.2357532199806491e-04 +0.0000000000000000e+00 +9.9999991029196911e-01
4.2000000000000011e+00 +9.1003888002630742e+00 +0.0000000000000000e+00 +4.1999998682084758e+00 -4.3390658761711389e-04 +0.0000000000000000e+00 +9.9999990586253207e-01
4.3000000000000007e+00 +9.1003448930406403e+00 +0.0000000000000000e+00 +4.2999998585688095e+00 -4.4423786265231920e-04 +0.0000000000000000e+00 +9.9999990132635574e-01
4.4000000000000004e+00 +9.1002999526902233e+00 +0.0000000000000000e+00 +4.3999998484701885e+00 -4.5456914731248246e-04 +0.0000000000000000e+00 +9.9999989668343969e-01
4.5000000000000000e+00 +9.1002539792108497e+00 +0.0000000000000000e+00 +4.4999998379019388e+00 -4.6490044182050653e-04 +0.0000000000000000e+00 +9.9999989193378358e-01
4.5999999999999996e+00 +9.1002069726015229e+00 +0.0000000000000000e+00 +4.5999998268533870e+00 -4.7523174641305507e-04 +0.0000000000000000e+00 +9.9999988707738707e-01
4.6999999999999993e+00 +9.1001589328612233e+00 +0.0000000000000000e+00 +4.6999998153138582e+00 -4.8556306133692957e-04 +0.0000000000000000e+00 +9.9999988211424962e-01
4.7999999999999989e+00 +9.1001098599889030e+00 +0.0000000000000000e+00 +4.7999998032726792e+00 -4.9589438684545051e-04 +0.0000000000000000e+00 +9.9999987704437077e-01
4.8999999999999986e+00 +9.1000597539834924e+00 +0.0000000000000000e+00 +4.8999997907191748e+00 -5.0622572319812520e-04 +0.0000000000000000e+00 +9.9999987186775019e-01
4.9999999999999982e+00 +9.1000086148438939e+00 +0.0000000000000000e+00 +4.9999997776426710e+00 -5.1655707066064352e-04 +0.0000000000000000e+00 +9.9999986658438733e-01
5.0999999999999979e+00 +9.0999564425689812e+00 +0.0000000000000000e+00 +5.0999997640324937e+00 -5.2688842950487436e-04 +0.0000000000000000e+00 +9.9999986119428164e-01
5.1999999999999975e+00 +9.0999032371576032e+00 +0.0000000000000000e+00 +5.1999997498779686e+00 -5.3721980000886148e-04 +0.0000000000000000e+00 +9.9999985569743266e-01
5.2999999999999972e+00 +9.0998489986085804e+00 +0.0000000000000000e+00 +5.2999997351684218e+00 -5.4755118245682001e-04 +0.0000000000000000e+00 +9.9999985009383985e-01
5.3999999999999968e+00 +9.0997937269207032e+00 +0.0000000000000000e+00 +5.3999997198931782e+00 -5.5788257713913205e-04 +0.0000000000000000e+00 +9.9999984438350276e-01
5.4999999999999964e+00 +9.0997374220927352e+00 +0.0000000000000000e+00 +5.4999997040415636e+00 -5.6821398435234337e-04 +0.0000000000000000e+00 +9.9999983856642072e-01
5.5999999999999961e+00 +9.0996800841234062e+00 +0.0000000000000000e+00 +5.5999996876029039e+00 -5.7854540439915920e-04 +0.0000000000000000e+00 +9.9999983264259329e-01
5.6999999999999957e+00 +9.0996217130114179e+00 +0.0000000000000000e+00 +5.6999996705665241e+00 -5.8887683758844056e-04 +0.0000000000000000e+00 +9.9999982661201980e-01
5.7999999999999954e+00 +9.0995623087554396e+00 +0.0000000000000000e+00 +5.7999996529217492e+00 -5.9920828423520043e-04 +0.0000000000000000e+00 +9.9999982047469971e-01
5.8999999999999950e+00 +9.0995018713541107e+00 +0.0000000000000000e+00 +5.8999996346579051e+00 -6.0953974466059998e-04 +0.0000000000000000e+00 +9.9999981423063233e-01
5.9999999999999947e+00 +9.0994404008060368e+00 +0.0000000000000000e+00 +5.9999996157643167e+00 -6.1987121919194468e-04 +0.0000000000000000e+00 +9.9999980787981713e-01
6.0999999999999943e+00 +9.0993778971097914e+00 +0.0000000000000000e+00 +6.0999995962303100e+00 -6.3020270816268058e-04 +0.0000000000000000e+00 +9.9999980142225342e-01
6.1999999999999940e+00 +9.0993143602639126e+00 +0.0000000000000000e+00 +6.1999995760452089e+00 -6.4053421191239063e-04 +0.0000000000000000e+00 +9.9999979485794044e-01
6.2999999999999936e+00 +9.0992497902669047e+00 +0.0000000000000000e+00 +6.2999995551983394e+00 -6.5086573078679071e-04 +0.0000000000000000e+00 +9.9999978818687763e-01
6.3999999999999932e+00 +9.0991841871172383e+00 +0.0000000000000000e+00 +6.3999995336790265e+00 -6.6119726513772621e-04 +0.0000000000000000e+00 +9.9999978140906420e-01
6.4999999999999929e+00 +9.0991175508133484e+00 +0.0000000000000000e+00 +6.4999995114765943e+00 -6.7152881532316804e-04 +0.0000000000000000e+00 +9.9999977452449951e-01
6.5999999999999925e+00 +9.0990498813536327e+00 +0.0000000000000000e+00 +6.5999994885803677e+00 -6.8186038170477191e-04 +0.0000000000000000e+00 +9.9999976753318276e-01
6.6999999999999922e+00 +9.0989811787364552e+00 +0.0000000000000000e+00 +6.6999994649796717e+00 -6.9219196462106997e-04 +0.0000000000000000e+00 +9.9999976043511318e-01
6.7999999999999918e+00 +9.0989114429601479e+00 +0.0000000000000000e+00 +6.7999994406638313e+00 -7.0252356436067238e-04 +0.0000000000000000e+00 +9.9999975323029011e-01
6.8999999999999915e+00 +9.0988406740230143e+00 +0.0000000000000000e+00 +6.8999994156221707e+00 -7.1285518115984665e-04 +0.0000000000000000e+00 +9.9999974591871288e-01
6.9999999999999911e+00 +9.0987688719233404e+00 +0.0000000000000000e+00 +6.9999993898440147e+00 -7.2318681520253407e-04 +0.0000000000000000e+00 +9.9999973850038082e-01
7.0999999999999908e+00 +9.0986960366593941e+00 +0.0000000000000000e+00 +7.0999993633186884e+00 -7.3351846662036795e-04 +0.0000000000000000e+00 +9.9999973097529327e-01
7.1999999999999904e+00 +9.0986221682294346e+00 +0.0000000000000000e+00 +7.1999993360355150e+00 -7.4385013549269150e-04 +0.0000000000000000e+00 +9.9999972334344955e-01
7.2999999999999901e+00 +9.0985472666317140e+00 +0.0000000000000000e+00 +7.2999993079838195e+00 -7.5418182184657759e-04 +0.0000000000000000e+00 +9.9999971560484924e-01
7.3999999999999897e+00 +9.0984713318644843e+00 +0.0000000000000000e+00 +7.3999992791529259e+00 -7.6451352565684843e-04 +0.0000000000000000e+00 +9.9999970775949176e-01
7.4999999999999893e+00 +9.0983943639260030e+00 +0.0000000000000000e+00 +7.4999992495321592e+00 -7.7484524684609611e-04 +0.0000000000000000e+00 +9.9999969980737657e-01
7.5999999999999890e+00 +9.0983163628145398e+00 +0.0000000000000000e+00 +7.5999992191108428e+00 -7.8517698528470436e-04 +0.0000000000000000e+00 +9.9999969174850334e-01
7.6999999999999886e+00 +9.0982373285283771e+00 +0.0000000000000000e+00 +7.6999991878783014e+00 -7.9550874079087038e-04 +0.0000000000000000e+00 +9.9999968358287161e-01
7.7999999999999883e+00 +9.0981572610658201e+00 +0.0000000000000000e+00 +7.7999991558238584e+00 -8.0584051313062799e-04 +0.0000000000000000e+00 +9.9999967531048095e-01
7.8999999999999879e+00 +9.0980761604251992e+00 +0.0000000000000000e+00 +7.8999991229368387e+00 -8.1617230201787099e-04 +0.0000000000000000e+00 +9.9999966693133124e-01
7.9999999999999876e+00 +9.0979940266048764e+00 +0.0000000000000000e+00 +7.9999990892065664e+00 -8.2650410711437796e-04 +0.0000000000000000e+00 +9.9999965844542216e-01
8.0999999999999872e+00 +9.0979108596032496e+00 +0.0000000000000000e+00 +8.0999990546223657e+00 -8.3683592802983697e-04 +0.0000000000000000e+00 +9.9999964985275347e-01
8.1999999999999869e+00 +9.0978266594187573e+00 +0.0000000000000000e+00 +8.1999990191735588e+00 -8.4716776432187154e-04 +0.0000000000000000e+00 +9.9999964115332518e-01
8.2999999999999865e+00 +9.0977414260498879e+00 +0.0000000000000000e+00 +8.2999989828494716e+00 -8.5749961549606737e-04 +0.0000000000000000e+00 +9.9999963234713718e-01
8.3999999999999861e+00 +9.0976551594951793e+00 +0.0000000000000000e+00 +8.3999989456394282e+00 -8.6783148100599969e-04 +0.0000000000000000e+00 +9.9999962343418947e-01
8.4999999999999858e+00 +9.0975678597532283e+00 +0.0000000000000000e+00 +8.4999989075327509e+00 -8.7816336025326109e-04 +0.0000000000000000e+00 +9.9999961441448204e-01
8.5999999999999854e+00 +9.0974795268226920e+00 +0.0000000000000000e+00 +8.5999988685187656e+00 -8.8849525259199745e-04 +0.0000000000000000e+00 +9.9999960528801524e-01
8.6999999999999851e+00 +9.0973901607022949e+00 +0.0000000000000000e+00 +8.6999988285867946e+00 -8.9882715737851185e-04 +0.0000000000000000e+00 +9.9999959605478905e-01
8.7999999999999847e+00 +9.0972997613908220e+00 +0.0000000000000000e+00 +8.7999987877261638e+00 -9.0915907402085465e-04 +0.0000000000000000e+00 +9.9999958671480371e-01
8.8999999999999844e+00 +9.0972083288871133e+00 +0.0000000000000000e+00 +8.8999987459261973e+00 -9.1949100198333367e-04 +0.0000000000000000e+00 +9.9999957726805933e-01
8.9999999999999840e+00 +9.0971158631900639e+00 +0.0000000000000000e+00 +8.9999987031762174e+00 -9.2982294078651690e-04 +0.0000000000000000e+00 +9.9999956771455600e-01
9.0999999999999837e+00 +9.0970223642986099e+00 +0.0000000000000000e+00 +9.0999986594655500e+00 -9.4015489000723481e-04 +0.0000000000000000e+00 +9.9999955805429375e-01
9.1999999999999833e+00 +9.0969278322117280e+00 +0.0000000000000000e+00 +9.1999986147835173e+00 -9.5048684927858253e-04 +0.0000000000000000e+00 +9.9999954828727267e-01
9.2999999999999829e+00 +9.0968322669284287e+00 +0.0000000000000000e+00 +9.2999985691194453e+00 -9.6081881828992237e-04 +0.0000000000000000e+00 +9.9999953841349265e-01
9.3999999999999826e+00 +9.0967356684477529e+00 +0.0000000000000000e+00 +9.3999985224626581e+00 -9.7115079678688565e-04 +0.0000000000000000e+00 +9.9999952843295370e-01
9.4999999999999822e+00 +9.0966380367687609e+00 +0.0000000000000000e+00 +9.4999984748024779e+00 -9.8148278457137520e-04 +0.0000000000000000e+00 +9.9999951834565570e-01
9.5999999999999819e+00 +9.0965393718905325e+00 +0.0000000000000000e+00 +9.5999984261282307e+00 -9.9181478150156695e-04 +0.0000000000000000e+00 +9.9999950815159855e-01
9.6999999999999815e+00 +9.0964396738121582e+00 +0.0000000000000000e+00 +9.6999983764292388e+00 -1.0021467874919124e-03 +0.0000000000000000e+00 +9.9999949785078202e-01
9.7999999999999812e+00 +9.0963389425327339e+00 +0.0000000000000000e+00 +9.7999983256948280e+00 -1.0124788025131402e-03 +0.0000000000000000e+00 +9.9999948744320577e-01
9.8999999999999808e+00 +9.0962371780513536e+00 +0.0000000000000000e+00 +9.8999982739143206e+00 -1.0228108265922580e-03 +0.0000000000000000e+00 +9.9999947692886959e-01
9.9999999999999805e+00 +9.0961343803671095e+00 +0.0000000000000000e+00 +9.9999982210770426e+00 -1.0331428598125544e-03 +0.0000000000000000e+00 +9.9999946630777303e-01
1.0099999999999980e+01 +9.0960305494790816e+00 +0.0000000000000000e+00 +1.0099998167172316e+01 -1.0434749023136003e-03 +0.0000000000000000e+00 +9.9999945557991576e-01
1.0199999999999980e+01 +9.0959256853863319e+00 +0.0000000000000000e+00 +1.0199998112189467e+01 -1.0538069542912509e-03 +0.0000000000000000e+00 +9.9999944474529723e-01
1.0299999999999979e+01 +9.0958197880878995e+00 +0.0000000000000000e+00 +1.0299998056117818e+01 -1.0641390159976468e-03 +0.0000000000000000e+00 +9.9999943380391687e-01
1.0399999999999979e+01 +9.0957128575827983e+00 +0.0000000000000000e+00 +1.0399997998946693e+01 -1.0744710877412160e-03 +0.0000000000000000e+00 +9.9999942275577403e-01
1.0499999999999979e+01 +9.0956048938700054e+00 +0.0000000000000000e+00 +1.0499997940665414e+01 -1.0848031698866751e-03 +0.0000000000000000e+00 +9.9999941160086803e-01
1.0599999999999978e+01 +9.0954958969484601e+00 +0.0000000000000000e+00 +1.0599997881263308e+01 -1.0951352628508913e-03 +0.0000000000000000e+00 +9.9999940033919810e-01
1.0699999999999978e+01 +9.0953858668170593e+00 +0.0000000000000000e+00 +1.0699997820729696e+01 -1.1054673670573541e-03 +0.0000000000000000e+00 +9.9999938897076335e-01
1.0799999999999978e+01 +9.0952748034746609e+00 +0.0000000000000000e+00 +1.0799997759053902e+01 -1.1157994828906522e-03 +0.0000000000000000e+00 +9.9999937749556311e-01
1.0899999999999977e+01 +9.0951627069200836e+00 +0.0000000000000000e+00 +1.0899997696225249e+01 -1.1261316106923505e-03 +0.0000000000000000e+00 +9.9999936591359651e-01
1.0999999999999977e+01 +9.0950495771521140e+00 +0.0000000000000000e+00 +1.0999997632233061e+01 -1.1364637507610073e-03 +0.0000000000000000e+00 +9.9999935422486297e-01
1.1099999999999977e+01 +9.0949354141695142e+00 +0.0000000000000000e+00 +1.1099997567066662e+01 -1.1467959033521916e-03 +0.0000000000000000e+00 +9.9999934242936173e-01
1.1199999999999976e+01 +9.0948202179710194e+00 +0.0000000000000000e+00 +1.1199997500715375e+01 -1.1571280686785007e-03 +0.0000000000000000e+00 +9.9999933052709211e-01
1.1299999999999976e+01 +9.0947039885553487e+00 +0.0000000000000000e+00 +1.1299997433168521e+01 -1.1674602469095782e-03 +0.0000000000000000e+00 +9.9999931851805357e-01
1.1399999999999975e+01 +9.0945867259212037e+00 +0.0000000000000000e+00 +1.1399997364415425e+01 -1.1777924381721318e-03 +0.0000000000000000e+00 +9.9999930640224555e-01
1.1499999999999975e+01 +9.0944684300672769e+00 +0.0000000000000000e+00 +1.1499997294445411e+01 -1.1881246425499523e-03 +0.0000000000000000e+00 +9.9999929417966760e-01
1.1599999999999975e+01 +9.0943491009922557e+00 +0.0000000000000000e+00 +1.1599997223247799e+01 -1.1984568600839323e-03 +0.0000000000000000e+00 +9.9999928185031917e-01
1.1699999999999974e+01 +9.0942287386948220e+00 +0.0000000000000000e+00 +1.1699997150811916e+01 -1.2087890907720854e-03 +0.0000000000000000e+00 +9.9999926941419992e-01
1.1799999999999974e+01 +9.0941073431736630e+00 +0.0000000000000000e+00 +1.1799997077127081e+01 -1.2191213345695653e-03 +0.0000000000000000e+00 +9.9999925687130942e-01
