# trajectory
# s[mm] rx[mm] ry[mm] rz[mm] px[rad] py[rad] pz[rad]
0.0000000000000000e+00 +9.0449999999999999e+00 +0.0000000000000000e+00 +0.0000000000000000e+00 +0.0000000000000000e+00 +0.0000000000000000e+00 +1.0000000000000000e+00
-1.0000000000000001e-01 +9.0449994830875529e+00 +0.0000000000000000e+00 -9.9999999998218667e-02 +1.0338247598940105e-05 +0.0000000000000000e+00 +9.9999999994656030e-01
-2.0000000000000001e-01 +9.0449979323507463e+00 +0.0000000000000000e+00 -1.9999999998574941e-01 +2.0676487246032455e-05 +0.0000000000000000e+00 +9.9999999978624143e-01
-3.0000000000000004e-01 +9.0449953477903584e+00 +0.0000000000000000e+00 -2.9999999995190429e-01 +3.1014719254147897e-05 +0.0000000000000000e+00 +9.9999999951904361e-01
-4.0000000000000002e-01 +9.0449917294071387e+00 +0.0000000000000000e+00 -3.9999999988599549e-01 +4.1352943940466949e-05 +0.0000000000000000e+00 +9.9999999914496707e-01
-5.0000000000000000e-01 +9.0449870772018031e+00 +0.0000000000000000e+00 -4.9999999977733511e-01 +5.1691161626478372e-05 +0.0000000000000000e+00 +9.9999999866401190e-01
-5.9999999999999998e-01 +9.0449813911750354e+00 +0.0000000000000000e+00 -5.9999999961523531e-01 +6.2029372637977819e-05 +0.0000000000000000e+00 +9.9999999807617845e-01
-6.9999999999999996e-01 +9.0449746713274859e+00 +0.0000000000000000e+00 -6.9999999938900825e-01 +7.2367577305066375e-05 +0.0000000000000000e+00 +9.9999999738146683e-01
-7.9999999999999993e-01 +9.0449669176597745e+00 +0.0000000000000000e+00 -7.9999999908796604e-01 +8.2705775962149124e-05 +0.0000000000000000e+00 +9.9999999657987726e-01
-8.9999999999999991e-01 +9.0449581301724837e+00 +0.0000000000000000e+00 -8.9999999870142111e-01 +9.3043968947933726e-05 +0.0000000000000000e+00 +9.9999999567140985e-01
-9.9999999999999989e-01 +9.0449483088661626e+00 +0.0000000000000000e+00 -9.9999999821868546e-01 +1.0338215660542891e-04 +0.0000000000000000e+00 +9.9999999465606482e-01
-1.0999999999999999e+00 +9.0449374537413281e+00 +0.0000000000000000e+00 -1.0999999976290715e+00 +1.1372033928194297e-04 +0.0000000000000000e+00 +9.9999999353384217e-01
-1.2000000000000000e+00 +9.0449255647984597e+00 +0.0000000000000000e+00 -1.1999999969218913e+00 +1.2405851732908227e-04 +0.0000000000000000e+00 +9.9999999230474212e-01
-1.3000000000000000e+00 +9.0449126420380033e+00 +0.0000000000000000e+00 -1.2999999960864572e+00 +1.3439669110274971e-04 +0.0000000000000000e+00 +9.9999999096876468e-01
-1.4000000000000001e+00 +9.0448986854603692e+00 +0.0000000000000000e+00 -1.3999999951120816e+00 +1.4473486096314319e-04 +0.0000000000000000e+00 +9.9999998952590996e-01
-1.5000000000000002e+00 +9.0448836950659288e+00 +0.0000000000000000e+00 -1.4999999939880766e+00 +1.5507302727475395e-04 +0.0000000000000000e+00 +9.9999998797617806e-01
-1.6000000000000003e+00 +9.0448676708550195e+00 +0.0000000000000000e+00 -1.5999999927037545e+00 +1.6541119040636509e-04 +0.0000000000000000e+00 +9.9999998631956899e-01
-1.7000000000000004e+00 +9.0448506128279416e+00 +0.0000000000000000e+00 -1.6999999912484276e+00 +1.7574935073104989e-04 +0.0000000000000000e+00 +9.9999998455608274e-01
-1.8000000000000005e+00 +9.0448325209849543e+00 +0.0000000000000000e+00 -1.7999999896114083e+00 +1.8608750862617024e-04 +0.0000000000000000e+00 +9.9999998268571944e-01
-1.9000000000000006e+00 +9.0448133953262833e+00 +0.0000000000000000e+00 -1.8999999877820088e+00 +1.9642566447337491e-04 +0.0000000000000000e+00 +9.9999998070847895e-01
-2.0000000000000004e+00 +9.0447932358521150e+00 +0.0000000000000000e+00 -1.9999999857495414e+00 +2.0676381865859794e-04 +0.0000000000000000e+00 +9.9999997862436141e-01
-2.1000000000000005e+00 +9.0447720425625953e+00 +0.0000000000000000e+00 -2.0999999835033183e+00 +2.1710197157049922e-04 +0.0000000000000000e+00 +9.9999997643336669e-01
-2.2000000000000006e+00 +9.0447498154578323e+00 +0.0000000000000000e+00 -2.1999999810326520e+00 +2.2744012358332844e-04 +0.0000000000000000e+00 +9.9999997413549480e-01
-2.3000000000000007e+00 +9.0447265545378972e+00 +0.0000000000000000e+00 -2.2999999783268548e+00 +2.3777827503979076e-04 +0.0000000000000000e+00 +9.9999997173074562e-01
-2.4000000000000008e+00 +9.0447022598028326e+00 +0.0000000000000000e+00 -2.3999999753752386e+00 +2.4811642624949050e-04 +0.0000000000000000e+00 +9.9999996921911904e-01
-2.5000000000000009e+00 +9.0446769312526474e+00 +0.0000000000000000e+00 -2.4999999721671160e+00 +2.5845457748893328e-04 +0.0000000000000000e+00 +9.9999996660061519e-01
-2.6000000000000010e+00 +9.0446505688873255e+00 +0.0000000000000000e+00 -2.5999999686917992e+00 +2.6879272900152810e-04 +0.0000000000000000e+00 +9.9999996387523382e-01
-2.7000000000000011e+00 +9.0446231727068298e+00 +0.0000000000000000e+00 -2.6999999649386002e+00 +2.7913088099759009e-04 +0.0000000000000000e+00 +9.9999996104297495e-01
-2.8000000000000012e+00 +9.0445947427111033e+00 +0.0000000000000000e+00 -2.7999999608968316e+00 +2.8946903365434341e-04 +0.0000000000000000e+00 +9.9999995810383846e-01
-2.9000000000000012e+00 +9.0445652789000714e+00 +0.0000000000000000e+00 -2.8999999565558054e+00 +2.9980718711592456e-04 +0.0000000000000000e+00 +9.9999995505782435e-01
-3.0000000000000013e+00 +9.0445347812736490e+00 +0.0000000000000000e+00 -2.9999999519048339e+00 +3.1014534149338577e-04 +0.0000000000000000e+00 +9.9999995190493252e-01
-3.1000000000000014e+00 +9.0445032498317399e+00 +0.0000000000000000e+00 -3.0999999469332296e+00 +3.2048349686469922e-04 +0.0000000000000000e+00 +9.9999994864516295e-01
-3.2000000000000015e+00 +9.0444706845742413e+00 +0.0000000000000000e+00 -3.1999999416303040e+00 +3.3082165327476119e-04 +0.0000000000000000e+00 +9.9999994527851555e-01
-3.3000000000000016e+00 +9.0444370855010501e+00 +0.0000000000000000e+00 -3.2999999359853698e+00 +3.4115981073539668e-04 +0.0000000000000000e+00 +9.9999994180499030e-01
-3.4000000000000017e+00 +9.0444024526120597e+00 +0.0000000000000000e+00 -3.3999999299877395e+00 +3.5149796922536423e-04 +0.0000000000000000e+00 +9.9999993822458710e-01
-3.5000000000000018e+00 +9.0443667859071724e+00 +0.0000000000000000e+00 -3.4999999236267247e+00 +3.6183612869036141e-04 +0.0000000000000000e+00 +9.9999993453730607e-01
-3.6000000000000019e+00 +9.0443300853862922e+00 +0.0000000000000000e+00 -3.5999999168916381e+00 +3.7217428904303031e-04 +0.0000000000000000e+00 +9.9999993074314708e-01
-3.7000000000000020e+00 +9.0442923510493376e+00 +0.0000000000000000e+00 -3.6999999097717917e+00 +3.8251245016296338e-04 +0.0000000000000000e+00 +9.9999992684211025e-01
-3.8000000000000020e+00 +9.0442535828962392e+00 +0.0000000000000000e+00 -3.7999999022564976e+00 +3.9285061189670993e-04 +0.0000000000000000e+00 +9.9999992283419559e-01
-3.9000000000000021e+00 +9.0442137809269436e+00 +0.0000000000000000e+00 -3.8999998943350684e+00 +4.0318877405778257e-04 +0.0000000000000000e+00 +9.9999991871940308e-01
-4.0000000000000018e+00 +9.0441729451414208e+00 +0.0000000000000000e+00 -3.9999998859968158e+00 +4.1352693642666424e-04 +0.0000000000000000e+00 +9.9999991449773296e-01
-4.1000000000000014e+00 +9.0441310755396600e+00 +0.0000000000000000e+00 -4.0999998772310526e+00 +4.2386509875312817e-04 +0.0000000000000000e+00 +9.9999991016918521e-01
-4.2000000000000011e+00 +9.0440881721216790e+00 +0.0000000000000000e+00 -4.1999998680270902e+00 +4.3420326078168501e-04 +0.0000000000000000e+00 +9.9999990573375996e-01
-4.3000000000000007e+00 +9.0440442348875205e+00 +0.0000000000000000e+00 -4.2999998583742416e+00 +4.4454142227702407e-04 +0.0000000000000000e+00 +9.9999990119145732e-01
-4.4000000000000004e+00 +9.0439992638372484e+00 +0.0000000000000000e+00 -4.3999998482618192e+00 +4.5487958302632274e-04 +0.0000000000000000e+00 +9.9999989654227739e-01
-4.5000000000000000e+00 +9.0439532589709462e+00 +0.0000000000000000e+00 -4.4999998376791348e+00 +4.6521774283924295e-04 +0.0000000000000000e+00 +9.9999989178622029e-01
-4.5999999999999996e+00 +9.0439062202887168e+00 +0.0000000000000000e+00 -4.5999998266155009e+00 +4.7555590154792687e-04 +0.0000000000000000e+00 +9.9999988692328612e-01
-4.6999999999999993e+00 +9.0438581477906776e+00 +0.0000000000000000e+00 -4.6999998150602291e+00 +4.8589405900699255e-04 +0.0000000000000000e+00 +9.9999988195347500e-01
-4.7999999999999989e+00 +9.0438090414769601e+00 +0.0000000000000000e+00 -4.7999998030026330e+00 +4.9623221509352924e-04 +0.0000000000000000e+00 +9.9999987687678704e-01
-4.8999999999999986e+00 +9.0437589013477080e+00 +0.0000000000000000e+00 -4.8999997904320240e+00 +5.0657036970709211e-04 +0.0000000000000000e+00 +9.9999987169322235e-01
-4.9999999999999982e+00 +9.0437077274030706e+00 +0.0000000000000000e+00 -4.9999997773377149e+00 +5.1690852276969706e-04 +0.0000000000000000e+00 +9.9999986640278093e-01
-5.0999999999999979e+00 +9.0436555196432078e+00 +0.0000000000000000e+00 -5.0999997637090182e+00 +5.2724667422581460e-04 +0.0000000000000000e+00 +9.9999986100546290e-01
-5.1999999999999975e+00 +9.0436022780682812e+00 +0.0000000000000000e+00 -5.1999997495352455e+00 +5.3758482404236421e-04 +0.0000000000000000e+00 +9.9999985550126835e-01
-5.2999999999999972e+00 +9.0435480026784543e+00 +0.0000000000000000e+00 -5.2999997348057093e+00 +5.4792297220870737e-04 +0.0000000000000000e+00 +9.9999984989019730e-01
-5.3999999999999968e+00 +9.0434926934738940e+00 +0.0000000000000000e+00 -5.3999997195097222e+00 +5.5826111873664118e-04 +0.0000000000000000e+00 +9.9999984417224985e-01
-5.4999999999999964e+00 +9.0434363504547601e+00 +0.0000000000000000e+00 -5.4999997036365968e+00 +5.6859926366039119e-04 +0.0000000000000000e+00 +9.9999983834742601e-01
-5.5999999999999961e+00 +9.0433789736212127e+00 +0.0000000000000000e+00 -5.5999996871756448e+00 +5.7893740703660360e-04 +0.0000000000000000e+00 +9.9999983241572576e-01
-5.6999999999999957e+00 +9.0433205629734026e+00 +0.0000000000000000e+00 -5.6999996701161795e+00 +5.8927554894433790e-04 +0.0000000000000000e+00 +9.9999982637714913e-01
-5.7999999999999954e+00 +9.0432611185114702e+00 +0.0000000000000000e+00 -5.7999996524475126e+00 +5.9961368948505849e-04 +0.0000000000000000e+00 +9.9999982023169598e-01
-5.8999999999999950e+00 +9.0432006402355469e+00 +0.0000000000000000e+00 -5.8999996341589567e+00 +6.0995182878262636e-04 +0.0000000000000000e+00 +9.9999981397936644e-01
-5.9999999999999947e+00 +9.0431391281457500e+00 +0.0000000000000000e+00 -5.9999996152398234e+00 +6.2028996698329020e-04 +0.0000000000000000e+00 +9.9999980762016039e-01
-6.0999999999999943e+00 +9.0430765822421808e+00 +0.0000000000000000e+00 -6.0999995956794262e+00 +6.3062810425411309e-04 +0.0000000000000000e+00 +9.9999980115407772e-01
-6.1999999999999940e+00 +9.0430130025249245e+00 +0.0000000000000000e+00 -6.1999995754670767e+00 +6.4096624076575800e-04 +0.0000000000000000e+00 +9.9999979458111843e-01
-6.2999999999999936e+00 +9.0429483889940485e+00 +0.0000000000000000e+00 -6.2999995545920875e+00 +6.5130437667527713e-04 +0.0000000000000000e+00 +9.9999978790128241e-01
-6.3999999999999932e+00 +9.0428827416496045e+00 +0.0000000000000000e+00 -6.3999995330437711e+00 +6.6164251212454507e-04 +0.0000000000000000e+00 +9.9999978111456955e-01
-6.4999999999999929e+00 +9.0428160604916332e+00 +0.0000000000000000e+00 -6.4999995108114392e+00 +6.7198064724025626e-04 +0.0000000000000000e+00 +9.9999977422097985e-01
-6.5999999999999925e+00 +9.0427483455201632e+00 +0.0000000000000000e+00 -6.5999994878844044e+00 +6.8231878213392274e-04 +0.0000000000000000e+00 +9.9999976722051320e-01
-6.6999999999999922e+00 +9.0426795967352103e+00 +0.0000000000000000e+00 -6.6999994642519791e+00 +6.9265691690187142e-04 +0.0000000000000000e+00 +9.9999976011316949e-01
-6.7999999999999918e+00 +9.0426098141367834e+00 +0.0000000000000000e+00 -6.7999994399034760e+00 +7.0299505162524172e-04 +0.0000000000000000e+00 +9.9999975289894871e-01
-6.8999999999999915e+00 +9.0425389977248845e+00 +0.0000000000000000e+00 -6.8999994148282067e+00 +7.1333318636998262e-04 +0.0000000000000000e+00 +9.9999974557785076e-01
-6.9999999999999911e+00 +9.0424671474995080e+00 +0.0000000000000000e+00 -6.9999993890154837e+00 +7.2367132118685050e-04 +0.0000000000000000e+00 +9.9999973814987564e-01
-7.0999999999999908e+00 +9.0423942634606433e+00 +0.0000000000000000e+00 -7.0999993624546196e+00 +7.3400945611140622e-04 +0.0000000000000000e+00 +9.9999973061502334e-01
-7.1999999999999904e+00 +9.0423203456082799e+00 +0.0000000000000000e+00 -7.1999993351349261e+00 +7.4434759116401262e-04 +0.0000000000000000e+00 +9.9999972297329387e-01
-7.2999999999999901e+00 +9.0422453939424052e+00 +0.0000000000000000e+00 -7.2999993070457156e+00 +7.5468572634983157e-04 +0.0000000000000000e+00 +9.9999971522468711e-01
-7.3999999999999897e+00 +9.0421694084630051e+00 +0.0000000000000000e+00 -7.3999992781763009e+00 +7.6502386165882164e-04 +0.0000000000000000e+00 +9.9999970736920318e-01
-7.4999999999999893e+00 +9.0420923891700689e+00 +0.0000000000000000e+00 -7.4999992485159934e+00 +7.7536199706573490e-04 +0.0000000000000000e+00 +9.9999969940684208e-01
-7.5999999999999890e+00 +9.0420143360635894e+00 +0.0000000000000000e+00 -7.5999992180541067e+00 +7.8570013253011445e-04 +0.0000000000000000e+00 +9.9999969133760369e-01
-7.6999999999999886e+00 +9.0419352491435632e+00 +0.0000000000000000e+00 -7.6999991867799515e+00 +7.9603826799629139e-04 +0.0000000000000000e+00 +9.9999968316148824e-01
-7.7999999999999883e+00 +9.0418551284099919e+00 +0.0000000000000000e+00 -7.7999991546828413e+00 +8.0637640339338221e-04 +0.0000000000000000e+00 +9.9999967487849561e-01
-7.8999999999999879e+00 +9.0417739738628882e+00 +0.0000000000000000e+00 -7.8999991217520877e+00 +8.1671453863528564e-04 +0.0000000000000000e+00 +9.9999966648862604e-01
-7.9999999999999876e+00 +9.0416917855022731e+00 +0.0000000000000000e+00 -7.9999990879770033e+00 +8.2705267362067996e-04 +0.0000000000000000e+00 +9.9999965799187951e-01
-8.0999999999999872e+00 +9.0416085633281771e+00 +0.0000000000000000e+00 -8.0999990533469006e+00 +8.3739080823328762e-04 +0.0000000000000000e+00 +9.9999964938825614e-01
-8.1999999999999869e+00 +9.0415243073406426e+00 +0.0000000000000000e+00 -8.1999990178510913e+00 +8.4772894234481900e-04 +0.0000000000000000e+00 +9.9999964067775604e-01
-8.2999999999999865e+00 +9.0414390175397283e+00 +0.0000000000000000e+00 -8.2999989814788879e+00 +8.5806707581792237e-04 +0.0000000000000000e+00 +9.9999963186037932e-01
-8.3999999999999861e+00 +9.0413526939255053e+00 +0.0000000000000000e+00 -8.3999989442196039e+00 +8.6840520850645976e-04 +0.0000000000000000e+00 +9.9999962293612621e-01
-8.4999999999999858e+00 +9.0412653364980589e+00 +0.0000000000000000e+00 -8.4999989060625509e+00 +8.7874334025551612e-04 +0.0000000000000000e+00 +9.9999961390499681e-01
-8.5999999999999854e+00 +9.0411769452574919e+00 +0.0000000000000000e+00 -8.5999988669970406e+00 +8.8908147090140794e-04 +0.0000000000000000e+00 +9.9999960476699135e-01
-8.6999999999999851e+00 +9.0410875202039218e+00 +0.0000000000000000e+00 -8.6999988270123865e+00 +8.9941960027169296e-04 +0.0000000000000000e+00 +9.9999959552210993e-01
-8.7999999999999847e+00 +9.0409970613374853e+00 +0.0000000000000000e+00 -8.7999987860979001e+00 +9.0975772818517977e-04 +0.0000000000000000e+00 +9.9999958617035278e-01
-8.8999999999999844e+00 +9.0409055686583386e+00 +0.0000000000000000e+00 -8.8999987442428949e+00 +9.2009585445193803e-04 +0.0000000000000000e+00 +9.9999957671172013e-01
-8.9999999999999840e+00 +9.0408130421666559e+00 +0.0000000000000000e+00 -8.9999987014366827e+00 +9.3043397887330851e-04 +0.0000000000000000e+00 +9.9999956714621219e-01
-9.0999999999999837e+00 +9.0407194818626326e+00 +0.0000000000000000e+00 -9.0999986576685750e+00 +9.4077210124191403e-04 +0.0000000000000000e+00 +9.9999955747382929e-01
-9.1999999999999833e+00 +9.0406248877464837e+00 +0.0000000000000000e+00 -9.1999986129278852e+00 +9.5111022134167027e-04 +0.0000000000000000e+00 +9.9999954769457156e-01
-9.2999999999999829e+00 +9.0405292598184470e+00 +0.0000000000000000e+00 -9.2999985672039269e+00 +9.6144833894779708e-04 +0.0000000000000000e+00 +9.9999953780843942e-01
-9.3999999999999826e+00 +9.0404325980787839e+00 +0.0000000000000000e+00 -9.3999985204860117e+00 +9.7178645382683005e-04 +0.0000000000000000e+00 +9.9999952781543311e-01
-9.4999999999999822e+00 +9.0403349025277802e+00 +0.0000000000000000e+00 -9.4999984727634512e+00 +9.8212456573663247e-04 +0.0000000000000000e+00 +9.9999951771555284e-01
-9.5999999999999819e+00 +9.0402361731657432e+00 +0.0000000000000000e+00 -9.5999984240255589e+00 +9.9246267442640724e-04 +0.0000000000000000e+00 +9.9999950750879907e-01
-9.6999999999999815e+00 +9.0401364099930106e+00 +0.0000000000000000e+00 -9.6999983742616482e+00 +1.0028007796367101e-03 +0.0000000000000000e+00 +9.9999949719517223e-01
-9.7999999999999812e+00 +9.0400356130099411e+00 +0.0000000000000000e+00 -9.7999983234610308e+00 +1.0131388810994614e-03 +0.0000000000000000e+00 +9.9999948677467254e-01
-9.8999999999999808e+00 +9.0399337822169237e+00 +0.0000000000000000e+00 -9.8999982716130202e+00 +1.0234769785379602e-03 +0.0000000000000000e+00 +9.9999947624730046e-01
-9.9999999999999805e+00 +9.0398309176143758e+00 +0.0000000000000000e+00 -9.9999982187069278e+00 +1.0338150716668975e-03 +0.0000000000000000e+00 +9.9999946561305642e-01
-1.0099999999999980e+01 +9.0397270192027435e+00 +0.0000000000000000e+00 -1.0099998164732069e+01 +1.0441531601940056e-03 +0.0000000000000000e+00 +9.9999945487194086e-01
-1.0199999999999980e+01 +9.0396220869825008e+00 +0.0000000000000000e+00 -1.0199998109677754e+01 +1.0544912438380741e-03 +0.0000000000000000e+00 +9.9999944402395424e-01
-1.0299999999999979e+01 +9.0395161209541470e+00 +0.0000000000000000e+00 -1.0299998053533297e+01 +1.0648293223469579e-03 +0.0000000000000000e+00 +9.9999943306909689e-01
-1.0399999999999979e+01 +9.0394091211182097e+00 +0.0000000000000000e+00 -1.0399997996288011e+01 +1.0751673954992138e-03 +0.0000000000000000e+00 +9.9999942200736924e-01
-1.0499999999999979e+01 +9.0393010874752324e+00 +0.0000000000000000e+00 -1.0499997937931209e+01 +1.0855054631041022e-03 +0.0000000000000000e+00 +9.9999941083877164e-01
-1.0599999999999978e+01 +9.0391920200257783e+00 +0.0000000000000000e+00 -1.0599997878452204e+01 +1.0958435250015873e-03 +0.0000000000000000e+00 +9.9999939956330453e-01
-1.0699999999999978e+01 +9.0390819187704263e+00 +0.0000000000000000e+00 -1.0699997817840307e+01 +1.1061815810623379e-03 +0.0000000000000000e+00 +9.9999938818096812e-01
-1.0799999999999978e+01 +9.0389707837097646e+00 +0.0000000000000000e+00 -1.0799997756084835e+01 +1.1165196311877278e-03 +0.0000000000000000e+00 +9.9999937669176275e-01
-1.0899999999999977e+01 +9.0388586148443899e+00 +0.0000000000000000e+00 -1.0899997693175099e+01 +1.1268576753098360e-03 +0.0000000000000000e+00 +9.9999936509568865e-01
-1.0999999999999977e+01 +9.0387454121749045e+00 +0.0000000000000000e+00 -1.0999997629100411e+01 +1.1371957133914480e-03 +0.0000000000000000e+00 +9.9999935339274604e-01
-1.1099999999999977e+01 +9.0386311757019140e+00 +0.0000000000000000e+00 -1.1099997563850087e+01 +1.1475337454260554e-03 +0.0000000000000000e+00 +9.9999934158293513e-01
-1.1199999999999976e+01 +9.0385159054260207e+00 +0.0000000000000000e+00 -1.1199997497413436e+01 +1.1578717714378569e-03 +0.0000000000000000e+00 +9.9999932966625615e-01
-1.1299999999999976e+01 +9.0383996013478249e+00 +0.0000000000000000e+00 -1.1299997429779776e+01 +1.1682097914817590e-03 +0.0000000000000000e+00 +9.9999931764270911e-01
-1.1399999999999975e+01 +9.0382822634679201e+00 +0.0000000000000000e+00 -1.1399997360938416e+01 +1.1785478056433752e-03 +0.0000000000000000e+00 +9.9999930551229410e-01
-1.1499999999999975e+01 +9.0381638917868887e+00 +0.0000000000000000e+00 -1.1499997290878671e+01 +1.1888858140390278e-03 +0.0000000000000000e+00 +9.9999929327501125e-01
-1.1599999999999975e+01 +9.0380444863052993e+00 +0.0000000000000000e+00 -1.1599997219589856e+01 +1.1992238168157471e-03 +0.0000000000000000e+00 +9.9999928093086043e-01
-1.1699999999999974e+01 +9.0379240470237061e+00 +0.0000000000000000e+00 -1.1699997147061282e+01 +1.2095618141512723e-03 +0.0000000000000000e+00 +9.9999926847984166e-01
