# trajectory
# s[mm] rx[mm] ry[mm] rz[mm] px[rad] py[rad] pz[rad]
0.0000000000000000e+00 +9.1312999999999995e+00 +0.0000000000000000e+00 +0.0000000000000000e+00 +0.0000000000000000e+00 +0.0000000000000000e+00 +1.0000000000000000e+00
-1.0000000000000001e-01 +9.1312994834098280e+00 +0.0000000000000000e+00 -9.9999999998220887e-02 +1.0331807696725005e-05 +0.0000000000000000e+00 +9.9999999994662692e-01
-2.0000000000000001e-01 +9.1312979336375957e+00 +0.0000000000000000e+00 -1.9999999998576715e-01 +2.0663641312017436e-05 +0.0000000000000000e+00 +9.9999999978650700e-01
-3.0000000000000004e-01 +9.1312953506806860e+00 +0.0000000000000000e+00 -2.9999999995196402e-01 +3.0995501294029728e-05 +0.0000000000000000e+00 +9.9999999951963947e-01
-4.0000000000000002e-01 +9.1312917345364433e+00 +0.0000000000000000e+00 -3.9999999988613677e-01 +4.1327388039644124e-05 +0.0000000000000000e+00 +9.9999999914602355e-01
-5.0000000000000000e-01 +9.1312870852021746e+00 +0.0000000000000000e+00 -4.9999999977761045e-01 +5.1659301894473838e-05 +0.0000000000000000e+00 +9.9999999866565836e-01
-5.9999999999999998e-01 +9.1312814026751514e+00 +0.0000000000000000e+00 -5.9999999961571016e-01 +6.1991243152864078e-05 +0.0000000000000000e+00 +9.9999999807854301e-01
-6.9999999999999996e-01 +9.1312746869526222e+00 +0.0000000000000000e+00 -6.9999999938976076e-01 +7.2323212057892979e-05 +0.0000000000000000e+00 +9.9999999738467660e-01
-7.9999999999999993e-01 +9.1312669380318123e+00 +0.0000000000000000e+00 -7.9999999908908714e-01 +8.2655208801372379e-05 +0.0000000000000000e+00 +9.9999999658405836e-01
-8.9999999999999991e-01 +9.1312581559099293e+00 +0.0000000000000000e+00 -8.9999999870301406e-01 +9.2987233523848543e-05 +0.0000000000000000e+00 +9.9999999567668729e-01
-9.9999999999999989e-01 +9.1312483405841718e+00 +0.0000000000000000e+00 -9.9999999822086616e-01 +1.0331928631460271e-04 +0.0000000000000000e+00 +9.9999999466256262e-01
-1.0999999999999999e+00 +9.1312374920517296e+00 +0.0000000000000000e+00 -1.0999999976319681e+00 +1.1365136721165156e-04 +0.0000000000000000e+00 +9.9999999354168345e-01
-1.2000000000000000e+00 +9.1312256103097926e+00 +0.0000000000000000e+00 -1.1999999969256443e+00 +1.2398347620174753e-04 +0.0000000000000000e+00 +9.9999999231404890e-01
-1.3000000000000000e+00 +9.1312126953555541e+00 +0.0000000000000000e+00 -1.2999999960912192e+00 +1.3431561322037910e-04 +0.0000000000000000e+00 +9.9999999097965808e-01
-1.4000000000000001e+00 +9.1311987471862182e+00 +0.0000000000000000e+00 -1.3999999951180173e+00 +1.4464777815177086e-04 +0.0000000000000000e+00 +9.9999998953851021e-01
-1.5000000000000002e+00 +9.1311837657989994e+00 +0.0000000000000000e+00 -1.4999999939953628e+00 +1.5497997082888348e-04 +0.0000000000000000e+00 +9.9999998799060441e-01
-1.6000000000000003e+00 +9.1311677511911338e+00 +0.0000000000000000e+00 -1.5999999927125796e+00 +1.6531219103684032e-04 +0.0000000000000000e+00 +9.9999998633593978e-01
-1.7000000000000004e+00 +9.1311507033598804e+00 +0.0000000000000000e+00 -1.6999999912589920e+00 +1.7564443855062041e-04 +0.0000000000000000e+00 +9.9999998457451567e-01
-1.8000000000000005e+00 +9.1311326223025198e+00 +0.0000000000000000e+00 -1.7999999896239240e+00 +1.8597671317275251e-04 +0.0000000000000000e+00 +9.9999998270633106e-01
-1.9000000000000006e+00 +9.1311135080163481e+00 +0.0000000000000000e+00 -1.8999999877966995e+00 +1.9630901473674338e-04 +0.0000000000000000e+00 +9.9999998073138530e-01
-2.0000000000000004e+00 +9.1310933604986797e+00 +0.0000000000000000e+00 -1.9999999857666424e+00 +2.0664134310707962e-04 +0.0000000000000000e+00 +9.9999997864967760e-01
-2.1000000000000005e+00 +9.1310721797468375e+00 +0.0000000000000000e+00 -2.0999999835230763e+00 +2.1697369817922971e-04 +0.0000000000000000e+00 +9.9999997646120709e-01
-2.2000000000000006e+00 +9.1310499657581570e+00 +0.0000000000000000e+00 -2.1999999810553250e+00 +2.2730607987964617e-04 +0.0000000000000000e+00 +9.9999997416597286e-01
-2.3000000000000007e+00 +9.1310267185299754e+00 +0.0000000000000000e+00 -2.2999999783527123e+00 +2.3763848816576790e-04 +0.0000000000000000e+00 +9.9999997176397426e-01
-2.4000000000000008e+00 +9.1310024380596371e+00 +0.0000000000000000e+00 -2.3999999754045613e+00 +2.4797092302602272e-04 +0.0000000000000000e+00 +9.9999996925521040e-01
-2.5000000000000009e+00 +9.1309771243444828e+00 +0.0000000000000000e+00 -2.4999999722001958e+00 +2.5830338447983006e-04 +0.0000000000000000e+00 +9.9999996663968038e-01
-2.6000000000000010e+00 +9.1309507773818517e+00 +0.0000000000000000e+00 -2.5999999687289388e+00 +2.6863587257760379e-04 +0.0000000000000000e+00 +9.9999996391738344e-01
-2.7000000000000011e+00 +9.1309233971690755e+00 +0.0000000000000000e+00 -2.6999999649801136e+00 +2.7896838740075524e-04 +0.0000000000000000e+00 +9.9999996108831879e-01
-2.8000000000000012e+00 +9.1308949837034774e+00 +0.0000000000000000e+00 -2.7999999609430435e+00 +2.8930092906169643e-04 +0.0000000000000000e+00 +9.9999995815248544e-01
-2.9000000000000012e+00 +9.1308655369823644e+00 +0.0000000000000000e+00 -2.8999999566070516e+00 +2.9963349770384347e-04 +0.0000000000000000e+00 +9.9999995510988260e-01
-3.0000000000000013e+00 +9.1308350570030310e+00 +0.0000000000000000e+00 -2.9999999519614611e+00 +3.0996609350161997e-04 +0.0000000000000000e+00 +9.9999995196050939e-01
-3.1000000000000014e+00 +9.1308035437627524e+00 +0.0000000000000000e+00 -3.0999999469955943e+00 +3.2029871666046090e-04 +0.0000000000000000e+00 +9.9999994870436482e-01
-3.2000000000000015e+00 +9.1307709972587787e+00 +0.0000000000000000e+00 -3.1999999416987746e+00 +3.3063136741681633e-04 +0.0000000000000000e+00 +9.9999994534144798e-01
-3.3000000000000016e+00 +9.1307374174883389e+00 +0.0000000000000000e+00 -3.2999999360603245e+00 +3.4096404603815552e-04 +0.0000000000000000e+00 +9.9999994187175800e-01
-3.4000000000000017e+00 +9.1307028044486316e+00 +0.0000000000000000e+00 -3.3999999300695669e+00 +3.5129675282297119e-04 +0.0000000000000000e+00 +9.9999993829529388e-01
-3.5000000000000018e+00 +9.1306671581368235e+00 +0.0000000000000000e+00 -3.4999999237158241e+00 +3.6162948810078378e-04 +0.0000000000000000e+00 +9.9999993461205461e-01
-3.6000000000000019e+00 +9.1306304785500494e+00 +0.0000000000000000e+00 -3.5999999169884185e+00 +3.7196225222911069e-04 +0.0000000000000000e+00 +9.9999993082203920e-01
-3.7000000000000020e+00 +9.1305927656854049e+00 +0.0000000000000000e+00 -3.6999999098766727e+00 +3.8229504556008028e-04 +0.0000000000000000e+00 +9.9999992692524653e-01
-3.8000000000000020e+00 +9.1305540195399537e+00 +0.0000000000000000e+00 -3.7999999023699087e+00 +3.9262786840704278e-04 +0.0000000000000000e+00 +9.9999992292167561e-01
-3.9000000000000021e+00 +9.1305142401107311e+00 +0.0000000000000000e+00 -3.8999998944574488e+00 +4.0296072104153340e-04 +0.0000000000000000e+00 +9.9999991881132544e-01
-4.0000000000000018e+00 +9.1304734273947457e+00 +0.0000000000000000e+00 -3.9999998861286148e+00 +4.1329360369327052e-04 +0.0000000000000000e+00 +9.9999991459419502e-01
-4.1000000000000014e+00 +9.1304315813889865e+00 +0.0000000000000000e+00 -4.0999998773727286e+00 +4.2362651655015381e-04 +0.0000000000000000e+00 +9.9999991027028334e-01
-4.2000000000000011e+00 +9.1303887020904249e+00 +0.0000000000000000e+00 -4.1999998681791118e+00 +4.3395945975826194e-04 +0.0000000000000000e+00 +9.9999990583958931e-01
-4.3000000000000007e+00 +9.1303447894960197e+00 +0.0000000000000000e+00 -4.2999998585370864e+00 +4.4429243342185005e-04 +0.0000000000000000e+00 +9.9999990130211203e-01
-4.4000000000000004e+00 +9.1302998436027227e+00 +0.0000000000000000e+00 -4.3999998484359741e+00 +4.5462543760334717e-04 +0.0000000000000000e+00 +9.9999989665785050e-01
-4.5000000000000000e+00 +9.1302538644074804e+00 +0.0000000000000000e+00 -4.4999998378650972e+00 +4.6495847232335297e-04 +0.0000000000000000e+00 +9.9999989190680372e-01
-4.5999999999999996e+00 +9.1302068519072410e+00 +0.0000000000000000e+00 -4.5999998268137761e+00 +4.7529153756063465e-04 +0.0000000000000000e+00 +9.9999988704897080e-01
-4.6999999999999993e+00 +9.1301588060989545e+00 +0.0000000000000000e+00 -4.6999998152713323e+00 +4.8562463325212347e-04 +0.0000000000000000e+00 +9.9999988208435087e-01
-4.7999999999999989e+00 +9.1301097269795797e+00 +0.0000000000000000e+00 -4.7999998032270872e+00 +4.9595775929291088e-04 +0.0000000000000000e+00 +9.9999987701294302e-01
-4.8999999999999986e+00 +9.1300596145460897e+00 +0.0000000000000000e+00 -4.8999997906703614e+00 +5.0629091553624475e-04 +0.0000000000000000e+00 +9.9999987183474626e-01
-4.9999999999999982e+00 +9.1300084687954719e+00 +0.0000000000000000e+00 -4.9999997775904763e+00 +5.1662410179352481e-04 +0.0000000000000000e+00 +9.9999986654975992e-01
-5.0999999999999979e+00 +9.1299562897247384e+00 +0.0000000000000000e+00 -5.0999997639767534e+00 +5.2695731783429847e-04 +0.0000000000000000e+00 +9.9999986115798301e-01
-5.1999999999999975e+00 +9.1299030773309227e+00 +0.0000000000000000e+00 -5.1999997498185131e+00 +5.3729056338625567e-04 +0.0000000000000000e+00 +9.9999985565941485e-01
-5.2999999999999972e+00 +9.1298488316110884e+00 +0.0000000000000000e+00 -5.2999997351050769e+00 +5.4762383813522421e-04 +0.0000000000000000e+00 +9.9999985005405478e-01
-5.3999999999999968e+00 +9.1297935525623348e+00 +0.0000000000000000e+00 -5.3999997198257645e+00 +5.5795714172516447e-04 +0.0000000000000000e+00 +9.9999984434190192e-01
-5.4999999999999964e+00 +9.1297372401817967e+00 +0.0000000000000000e+00 -5.4999997039698973e+00 +5.6829047375816372e-04 +0.0000000000000000e+00 +9.9999983852295571e-01
-5.5999999999999961e+00 +9.1296798944666513e+00 +0.0000000000000000e+00 -5.5999996875267959e+00 +5.7862383379489414e-04 +0.0000000000000000e+00 +9.9999983259721548e-01
-5.6999999999999957e+00 +9.1296215154141205e+00 +0.0000000000000000e+00 -5.6999996704857807e+00 +5.8895722135970799e-04 +0.0000000000000000e+00 +9.9999982656468067e-01
-5.7999999999999954e+00 +9.1295621030214775e+00 +0.0000000000000000e+00 -5.7999996528361724e+00 +5.9929063594573709e-04 +0.0000000000000000e+00 +9.9999982042535074e-01
-5.8999999999999950e+00 +9.1295016572860472e+00 +0.0000000000000000e+00 -5.8999996345672914e+00 +6.0962407701535711e-04 +0.0000000000000000e+00 +9.9999981417922512e-01
-5.9999999999999947e+00 +9.1294401782052095e+00 +0.0000000000000000e+00 -5.9999996156684574e+00 +6.1995754400018916e-04 +0.0000000000000000e+00 +9.9999980782630338e-01
-6.0999999999999943e+00 +9.1293776657764028e+00 +0.0000000000000000e+00 -6.0999995961289919e+00 +6.3029103630110096e-04 +0.0000000000000000e+00 +9.9999980136658506e-01
-6.1999999999999940e+00 +9.1293141199971259e+00 +0.0000000000000000e+00 -6.1999995759382145e+00 +6.4062455328820834e-04 +0.0000000000000000e+00 +9.9999979480006984e-01
-6.2999999999999936e+00 +9.1292495408649437e+00 +0.0000000000000000e+00 -6.2999995550854457e+00 +6.5095809430087677e-04 +0.0000000000000000e+00 +9.9999978812675727e-01
-6.3999999999999932e+00 +9.1291839283774880e+00 +0.0000000000000000e+00 -6.3999995335600062e+00 +6.6129165864772257e-04 +0.0000000000000000e+00 +9.9999978134664713e-01
-6.4999999999999929e+00 +9.1291172825324605e+00 +0.0000000000000000e+00 -6.4999995113512155e+00 +6.7162524560661515e-04 +0.0000000000000000e+00 +9.9999977445973920e-01
-6.5999999999999925e+00 +9.1290496033276387e+00 +0.0000000000000000e+00 -6.5999994884483941e+00 +6.8195885442467812e-04 +0.0000000000000000e+00 +9.9999976746603325e-01
-6.6999999999999922e+00 +9.1289808907608734e+00 +0.0000000000000000e+00 -6.6999994648408618e+00 +6.9229248431829159e-04 +0.0000000000000000e+00 +9.9999976036552918e-01
-6.7999999999999918e+00 +9.1289111448300986e+00 +0.0000000000000000e+00 -6.7999994405179400e+00 +7.0262613447309361e-04 +0.0000000000000000e+00 +9.9999975315822698e-01
-6.8999999999999915e+00 +9.1288403655333301e+00 +0.0000000000000000e+00 -6.8999994154689475e+00 +7.1295980404398242e-04 +0.0000000000000000e+00 +9.9999974584412643e-01
-6.9999999999999911e+00 +9.1287685528686708e+00 +0.0000000000000000e+00 -6.9999993896832056e+00 +7.2329349215511827e-04 +0.0000000000000000e+00 +9.9999973842322776e-01
-7.0999999999999908e+00 +9.1286957068343106e+00 +0.0000000000000000e+00 -7.0999993631500331e+00 +7.3362719789992566e-04 +0.0000000000000000e+00 +9.9999973089553096e-01
-7.1999999999999904e+00 +9.1286218274285336e+00 +0.0000000000000000e+00 -7.1999993358587515e+00 +7.4396092034109543e-04 +0.0000000000000000e+00 +9.9999972326103614e-01
-7.2999999999999901e+00 +9.1285469146497178e+00 +0.0000000000000000e+00 -7.2999993077986804e+00 +7.5429465851058696e-04 +0.0000000000000000e+00 +9.9999971551974354e-01
-7.3999999999999897e+00 +9.1284709684963410e+00 +0.0000000000000000e+00 -7.3999992789591404e+00 +7.6462841140963070e-04 +0.0000000000000000e+00 +9.9999970767165347e-01
-7.4999999999999893e+00 +9.1283939889669803e+00 +0.0000000000000000e+00 -7.4999992493294512e+00 +7.7496217800873029e-04 +0.0000000000000000e+00 +9.9999969971676617e-01
-7.5999999999999890e+00 +9.1283159760603176e+00 +0.0000000000000000e+00 -7.5999992188989332e+00 +7.8529595725231223e-04 +0.0000000000000000e+00 +9.9999969165508218e-01
-7.6999999999999886e+00 +9.1282369297751416e+00 +0.0000000000000000e+00 -7.6999991876569069e+00 +7.9562974810984649e-04 +0.0000000000000000e+00 +9.9999968348660184e-01
-7.7999999999999883e+00 +9.1281568501103401e+00 +0.0000000000000000e+00 -7.7999991555926931e+00 +8.0596354962696908e-04 +0.0000000000000000e+00 +9.9999967521132560e-01
-7.8999999999999879e+00 +9.1280757370648899e+00 +0.0000000000000000e+00 -7.8999991226956121e+00 +8.1629736093013399e-04 +0.0000000000000000e+00 +9.9999966682925379e-01
-7.9999999999999876e+00 +9.1279935906378533e+00 +0.0000000000000000e+00 -7.9999990889549837e+00 +8.2663118122661789e-04 +0.0000000000000000e+00 +9.9999965834038673e-01
-8.0999999999999872e+00 +9.1279104108283686e+00 +0.0000000000000000e+00 -8.0999990543601292e+00 +8.3696500980452509e-04 +0.0000000000000000e+00 +9.9999964974472488e-01
-8.1999999999999869e+00 +9.1278261976356383e+00 +0.0000000000000000e+00 -8.1999990189003693e+00 +8.4729884603279234e-04 +0.0000000000000000e+00 +9.9999964104226835e-01
-8.2999999999999865e+00 +9.1277409510589251e+00 +0.0000000000000000e+00 -8.2999989825650236e+00 +8.5763268936119420e-04 +0.0000000000000000e+00 +9.9999963223301747e-01
-8.3999999999999861e+00 +9.1276546710975452e+00 +0.0000000000000000e+00 -8.3999989453434125e+00 +8.6796653932034811e-04 +0.0000000000000000e+00 +9.9999962331697234e-01
-8.4999999999999858e+00 +9.1275673577508538e+00 +0.0000000000000000e+00 -8.4999989072248585e+00 +8.7830039552172002e-04 +0.0000000000000000e+00 +9.9999961429413320e-01
-8.5999999999999854e+00 +9.1274790110182433e+00 +0.0000000000000000e+00 -8.5999988681986803e+00 +8.8863425765762984e-04 +0.0000000000000000e+00 +9.9999960516450004e-01
-8.6999999999999851e+00 +9.1273896308991329e+00 +0.0000000000000000e+00 -8.6999988282541985e+00 +8.9896812550125695e-04 +0.0000000000000000e+00 +9.9999959592807297e-01
-8.7999999999999847e+00 +9.1272992173929577e+00 +0.0000000000000000e+00 -8.7999987873807353e+00 +9.0930199890664626e-04 +0.0000000000000000e+00 +9.9999958658485189e-01
-8.8999999999999844e+00 +9.1272077704991670e+00 +0.0000000000000000e+00 -8.8999987455676095e+00 +9.1963587780871398e-04 +0.0000000000000000e+00 +9.9999957713483667e-01
-8.9999999999999840e+00 +9.1271152902172119e+00 +0.0000000000000000e+00 -8.9999987028041435e+00 +9.2996976222325381e-04 +0.0000000000000000e+00 +9.9999956757802710e-01
-9.0999999999999837e+00 +9.1270217765465365e+00 +0.0000000000000000e+00 -9.0999986590796560e+00 +9.4030365224694306e-04 +0.0000000000000000e+00 +9.9999955791442297e-01
-9.1999999999999833e+00 +9.1269272294865704e+00 +0.0000000000000000e+00 -9.1999986143834676e+00 +9.5063754805734901e-04 +0.0000000000000000e+00 +9.9999954814402392e-01
-9.2999999999999829e+00 +9.1268316490367241e+00 +0.0000000000000000e+00 -9.2999985687049005e+00 +9.6097144991293538e-04 +0.0000000000000000e+00 +9.9999953826682952e-01
-9.3999999999999826e+00 +9.1267350351963756e+00 +0.0000000000000000e+00 -9.3999985220332736e+00 +9.7130535815306883e-04 +0.0000000000000000e+00 +9.9999952828283922e-01
-9.4999999999999822e+00 +9.1266373879648661e+00 +0.0000000000000000e+00 -9.4999984743579073e+00 +9.8163927319802591e-04 +0.0000000000000000e+00 +9.9999951819205246e-01
-9.5999999999999819e+00 +9.1265387073414921e+00 +0.0000000000000000e+00 -9.5999984256681241e+00 +9.9197319554405658e-04 +0.0000000000000000e+00 +9.9999950799446846e-01
-9.6999999999999815e+00 +9.1264389933254968e+00 +0.0000000000000000e+00 -9.6999983759532427e+00 +1.0023071257090098e-03 +0.0000000000000000e+00 +9.9999949769008656e-01
-9.7999999999999812e+00 +9.1263382459160738e+00 +0.0000000000000000e+00 -9.7999983252025817e+00 +1.0126410641779439e-03 +0.0000000000000000e+00 +9.9999948727890597e-01
-9.8999999999999808e+00 +9.1262364651123704e+00 +0.0000000000000000e+00 -9.8999982734054637e+00 +1.0229750113981630e-03 +0.0000000000000000e+00 +9.9999947676092593e-01
-9.9999999999999805e+00 +9.1261336509134896e+00 +0.0000000000000000e+00 -9.9999982205512072e+00 +1.0333089677791970e-03 +0.0000000000000000e+00 +9.9999946613614588e-01
-1.0099999999999980e+01 +9.1260298033184970e+00 +0.0000000000000000e+00 -1.0099998166629133e+01 +1.0436429336927811e-03 +0.0000000000000000e+00 +9.9999945540456503e-01
-1.0199999999999980e+01 +9.1259249223264227e+00 +0.0000000000000000e+00 -1.0199998111628560e+01 +1.0539769094728346e-03 +0.0000000000000000e+00 +9.9999944456618273e-01
-1.0299999999999979e+01 +9.1258190079362649e+00 +0.0000000000000000e+00 -1.0299998055538810e+01 +1.0643108954154388e-03 +0.0000000000000000e+00 +9.9999943362099841e-01
-1.0399999999999979e+01 +9.1257120601469932e+00 +0.0000000000000000e+00 -1.0399997998349200e+01 +1.0746448917788153e-03 +0.0000000000000000e+00 +9.9999942256901142e-01
-1.0499999999999979e+01 +9.1256040789575543e+00 +0.0000000000000000e+00 -1.0499997940049051e+01 +1.0849788987833027e-03 +0.0000000000000000e+00 +9.9999941141022120e-01
-1.0599999999999978e+01 +9.1254950643668753e+00 +0.0000000000000000e+00 -1.0599997880627683e+01 +1.0953129166113330e-03 +0.0000000000000000e+00 +9.9999940014462729e-01
-1.0699999999999978e+01 +9.1253850163738655e+00 +0.0000000000000000e+00 -1.0699997820074415e+01 +1.1056469454074089e-03 +0.0000000000000000e+00 +9.9999938877222916e-01
-1.0799999999999978e+01 +9.1252739349774235e+00 +0.0000000000000000e+00 -1.0799997758378568e+01 +1.1159809852780780e-03 +0.0000000000000000e+00 +9.9999937729302624e-01
-1.0899999999999977e+01 +9.1251618201764373e+00 +0.0000000000000000e+00 -1.0899997695529461e+01 +1.1263150362919084e-03 +0.0000000000000000e+00 +9.9999936570701820e-01
-1.0999999999999977e+01 +9.1250486719697914e+00 +0.0000000000000000e+00 -1.0999997631516411e+01 +1.1366490984794633e-03 +0.0000000000000000e+00 +9.9999935401420470e-01
-1.1099999999999977e+01 +9.1249344903563685e+00 +0.0000000000000000e+00 -1.1099997566328740e+01 +1.1469831718332747e-03 +0.0000000000000000e+00 +9.9999934221458531e-01
-1.1199999999999976e+01 +9.1248192753350530e+00 +0.0000000000000000e+00 -1.1199997499955767e+01 +1.1573172563078169e-03 +0.0000000000000000e+00 +9.9999933030815980e-01
-1.1299999999999976e+01 +9.1247030269047382e+00 +0.0000000000000000e+00 -1.1299997432386812e+01 +1.1676513518194794e-03 +0.0000000000000000e+00 +9.9999931829492783e-01
-1.1399999999999975e+01 +9.1245857450643246e+00 +0.0000000000000000e+00 -1.1399997363611194e+01 +1.1779854582465391e-03 +0.0000000000000000e+00 +9.9999930617488930e-01
-1.1499999999999975e+01 +9.1244674298127304e+00 +0.0000000000000000e+00 -1.1499997293618231e+01 +1.1883195754291323e-03 +0.0000000000000000e+00 +9.9999929394804399e-01
-1.1599999999999975e+01 +9.1243480811488880e+00 +0.0000000000000000e+00 -1.1599997222397242e+01 +1.1986537031698603e-03 +0.0000000000000000e+00 +9.9999928161439178e-01
-1.1699999999999974e+01 +9.1242276990717528e+00 +0.0000000000000000e+00 -1.1699997149937548e+01 +1.2089878412407480e-03 +0.0000000000000000e+00 +9.9999926917393267e-01
