# multipoles
# s[mm] polynom_b[n=0][T/m^n] polynom_b[n=1][T/m^n] polynom_b[n=2][T/m^n] polynom_b[n=3][T/m^n] polynom_b[n=4][T/m^n] polynom_b[n=5][T/m^n] polynom_b[n=6][T/m^n] 
+0.0000000000000000e+00 -1.0300606014210023e+00 +2.2977333630798831e+00 +1.4381589958327037e+01 +8.1485844937639925e+01 +6.2674367160343500e+04 -6.0015845366561157e+05 -1.4618253405510023e+08 
+1.0000000000000001e-01 -1.0300628868851922e+00 +2.2980897612970002e+00 +1.4399076158842719e+01 +7.5390520993462601e+01 +6.2078418337528761e+04 -5.7276851529371866e+05 -1.4263546516841152e+08 
+2.0000000000000001e-01 -1.0300652435418489e+00 +2.2983737091511944e+00 +1.4413067324518082e+01 +7.0434351611097199e+01 +6.1565992001166946e+04 -5.4962900855192554e+05 -1.3945438791473445e+08 
+3.0000000000000004e-01 -1.0300676694283069e+00 +2.2985797116583613e+00 +1.4422846862969562e+01 +6.6714277607201993e+01 +6.1150450911540502e+04 -5.3112705982101313e+05 -1.3669855277901554e+08 
+4.0000000000000002e-01 -1.0300701625813875e+00 +2.2987022738946568e+00 +1.4427698159403812e+01 +6.4327237069043576e+01 +6.0845157917942837e+04 -5.1764977744181053e+05 -1.3442720984506124e+08 
+5.0000000000000000e-01 -1.0300727210373273e+00 +2.2987359010184916e+00 +1.4426904569998163e+01 +6.3370164602311561e+01 +6.0663476061305788e+04 -5.0958424686927599e+05 -1.3269960924263841e+08 
+5.9999999999999998e-01 -1.0300753434285703e+00 +2.2986768421141273e+00 +1.4420015460443786e+01 +6.3910035462897760e+01 +6.0613906118810097e+04 -5.0720726983105752e+05 -1.3155437704454276e+08 
+6.9999999999999996e-01 -1.0300780307735942e+00 +2.2985282918404186e+00 +1.4407633476897008e+01 +6.5894405575192806e+01 +6.0685686101085957e+04 -5.1035504326186131e+05 -1.3094833488580042e+08 
+7.9999999999999993e-01 -1.0300807846870810e+00 +2.2982951738664066e+00 +1.4390621894358198e+01 +6.9241076741296226e+01 +6.0863284516044827e+04 -5.1875372848525585e+05 -1.3081802386820653e+08 
+8.9999999999999991e-01 -1.0300836067832819e+00 +2.2979824118690901e+00 +1.4369843958805440e+01 +7.3867849983365701e+01 +6.1131170279298451e+04 -5.3212948080190213e+05 -1.3109998681072140e+08 
+9.9999999999999989e-01 -1.0300864986759934e+00 +2.2975949294986702e+00 +1.4346162880576053e+01 +7.9692526714462446e+01 +6.1473812884885170e+04 -5.5020845667314786e+05 -1.3173076919706178e+08 
+1.0999999999999999e+00 -1.0300894619786736e+00 +2.2971376503722052e+00 +1.4320441842559937e+01 +8.6632909063255980e+01 +6.1875682315426187e+04 -5.7271681590427167e+05 -1.3264691894490242e+08 
+1.2000000000000000e+00 -1.0300924983043720e+00 +2.2966154980458460e+00 +1.4293543987015184e+01 +9.4606800820073630e+01 +6.2321249341740018e+04 -5.9938072744599532e+05 -1.3378498797395803e+08 
+1.3000000000000000e+00 -1.0300956092658404e+00 +2.2960333960030832e+00 +1.4266332424876392e+01 +1.0353200792006629e+02 +6.2794985400222977e+04 -6.2992637251231738e+05 -1.3508153179027247e+08 
+1.4000000000000001e+00 -1.0300987964755219e+00 +2.2953962676298256e+00 +1.4239670229182064e+01 +1.1332633932323652e+02 +6.3281362773579473e+04 -6.6407995005230396e+05 -1.3647311050877404e+08 
+1.5000000000000002e+00 -1.0301020615456042e+00 +2.2947090361919820e+00 +1.4214420436681888e+01 +1.2390760778549856e+02 +6.3764854614045355e+04 -7.0156768146611145e+05 -1.3789628912323162e+08 
+1.6000000000000003e+00 -1.0301054060880543e+00 +2.2939766248260880e+00 +1.4191446047447446e+01 +1.3519363029272344e+02 +6.4229935005917876e+04 -7.4211581349726266e+05 -1.3928763797109479e+08 
+1.7000000000000004e+00 -1.0301088317145863e+00 +2.2932039565093394e+00 +1.4171610015735705e+01 +1.4710222906780103e+02 +6.4661079196153878e+04 -7.8545062438115221e+05 -1.4058373399920520e+08 
+1.8000000000000005e+00 -1.0301123400367922e+00 +2.2923959540438670e+00 +1.4155775262324584e+01 +1.5955123216955437e+02 +6.5042763404794794e+04 -8.3129842763678008e+05 -1.4172115999486801e+08 
+1.9000000000000006e+00 -1.0301159326661335e+00 +2.2915575400432107e+00 +1.4144804666769613e+01 +1.7245847403598341e+02 +6.5359465042305019e+04 -8.7938557555305457e+05 -1.4263650582987544e+08 
+2.0000000000000004e+00 -1.0301196112139124e+00 +2.2906936369031219e+00 +1.4139561060788692e+01 +1.8574179645503364e+02 +6.5595662874670801e+04 -9.2943846509172895e+05 -1.4326636936407843e+08 
+2.1000000000000005e+00 -1.0301233772913687e+00 +2.2898091667875686e+00 +1.4140907234164553e+01 +1.9931904914181803e+02 +6.5735836976457198e+04 -9.8118354162018222e+05 -1.4354735641441414e+08 
+2.2000000000000006e+00 -1.0301272325097446e+00 +2.2889090516071633e+00 +1.4149705938703814e+01 +2.1310809049309893e+02 +6.5764468701998718e+04 -1.0343473035795274e+06 -1.4341608075871620e+08 
+2.3000000000000007e+00 -1.0301311784802030e+00 +2.2879982130016319e+00 +1.4166819872729281e+01 +2.2702678823398350e+02 +6.5666041042021126e+04 -1.0886563065311171e+06 -1.4280916601632816e+08 
+2.4000000000000008e+00 -1.0301352168139639e+00 +2.2870815723206315e+00 +1.4193111693353220e+01 +2.4099302012901373e+02 +6.5425038437586845e+04 -1.1438371676318792e+06 -1.4166324490152556e+08 
+2.5000000000000009e+00 -1.0301393491222752e+00 +2.2861640505961947e+00 +1.4229444006975594e+01 +2.5492467487065235e+02 +6.5025947024555790e+04 -1.1996165705698836e+06 -1.3991496054087466e+08 
+2.6000000000000010e+00 -1.0301435750343337e+00 +2.2852499727801447e+00 +1.4276454140605969e+01 +2.6875118426897268e+02 +6.4457027470646186e+04 -1.2557542566643995e+06 -1.3751580776570827e+08 
+2.7000000000000011e+00 -1.0301478865302882e+00 +2.2843413362955816e+00 +1.4333936248145546e+01 +2.8244779132555129e+02 +6.3720475961852724e+04 -1.3121490511511622e+06 -1.3447163536618063e+08 
+2.8000000000000012e+00 -1.0301522737455444e+00 +2.2834395686189701e+00 +1.4401487698991657e+01 +2.9600115578978932e+02 +6.2821690611552724e+04 -1.3687364197538639e+06 -1.3080064604453357e+08 
+2.9000000000000012e+00 -1.0301567268158063e+00 +2.2825460971657052e+00 +1.4478705885709811e+01 +3.0939794003726081e+02 +6.1766069127324394e+04 -1.4254518465965022e+06 -1.2652104039290272e+08 
+3.0000000000000013e+00 -1.0301612358770720e+00 +2.2816623493087391e+00 +1.4565188223441423e+01 +3.2262480852941798e+02 +6.0559008804745339e+04 -1.4822308311983210e+06 -1.2165101677038027e+08 
+3.1000000000000014e+00 -1.0301657910656501e+00 +2.2807897523738343e+00 +1.4660532151414412e+01 +3.3566842798533156e+02 +5.9205906482800856e+04 -1.5390088896975608e+06 -1.1620877100304767e+08 
+3.2000000000000015e+00 -1.0301703825182611e+00 +2.2799297336638396e+00 +1.4764335146270888e+01 +3.4851546668701258e+02 +5.7712158259505719e+04 -1.5957215509513910e+06 -1.1021249489583547e+08 
+3.3000000000000016e+00 -1.0301750003720616e+00 +2.2790837204521379e+00 +1.4876194724335340e+01 +3.6115259469028831e+02 +5.6083159439731469e+04 -1.6523043579428883e+06 -1.0368037591833247e+08 
+3.4000000000000017e+00 -1.0301796347646199e+00 +2.2782531399971724e+00 +1.4995708438788668e+01 +3.7356648342937217e+02 +5.4324304562836813e+04 -1.7086928656799591e+06 -9.6630597215628967e+07 
+3.5000000000000018e+00 -1.0301842758340503e+00 +2.2774394195540757e+00 +1.5122473896898068e+01 +3.8574380538369843e+02 +5.2440987051713564e+04 -1.7648226393847628e+06 -8.9081335830664337e+07 
+3.6000000000000019e+00 -1.0301889137189677e+00 +2.2766439863749146e+00 +1.5256088753765159e+01 +3.9767123411569509e+02 +5.0438599313678242e+04 -1.8206292549614543e+06 -8.1050763085927501e+07 
+3.7000000000000020e+00 -1.0301935385585754e+00 +2.2758682677267332e+00 +1.5396150722690633e+01 +4.0933544373376083e+02 +4.8322532528998607e+04 -1.8760482959574882e+06 -7.2557043496412143e+07 
+3.8000000000000020e+00 -1.0301981404927116e+00 +2.2751136908884684e+00 +1.5542257582851040e+01 +4.2072310903479809e+02 +4.6098176468590202e+04 -1.9310153546663770e+06 -6.3618333752355196e+07 
+3.9000000000000021e+00 -1.0302027096618300e+00 +2.2743816831696670e+00 +1.5694007175184764e+01 +4.3182090495576296e+02 +4.3770919565316552e+04 -1.9854660290352704e+06 -5.4252782996446028e+07 
+4.0000000000000018e+00 -1.0302072362070849e+00 +2.2736736719082451e+00 +1.5850997412878584e+01 +4.4261550667888480e+02 +4.1346148691146132e+04 -2.0393359235163534e+06 -4.4478531650826782e+07 
+4.1000000000000014e+00 -1.0302117102703967e+00 +2.2729910844926091e+00 +1.6012826291268325e+01 +4.5309358898335648e+02 +3.8829248940452984e+04 -2.0925606454014587e+06 -3.4313710264976233e+07 
+4.2000000000000011e+00 -1.0302161219944286e+00 +2.2723353483526787e+00 +1.6179091882776309e+01 +4.6324182655337768e+02 +3.6225603717729689e+04 -2.1450758068660498e+06 -2.3776439862113863e+07 
+4.3000000000000007e+00 -1.0302204615226460e+00 +2.2717078909845925e+00 +1.6349392345875188e+01 +4.7304689325329844e+02 +3.3540594535182368e+04 -2.1968170208475906e+06 -1.2884830842265708e+07 
+4.4000000000000004e+00 -1.0302247189993659e+00 +2.2711101399463094e+00 +1.6523325929830857e+01 +4.8249546230769300e+02 +3.0779600912200433e+04 -2.2477199023743006e+06 -1.6569824299483220e+06 
+4.5000000000000000e+00 -1.0302288845697889e+00 +2.2705435228731008e+00 +1.6700490980183616e+01 +4.9157420561121342e+02 +2.7948000207864450e+04 -2.2977200648379913e+06 +9.8890182922995705e+06 
+4.5999999999999996e+00 -1.0302329507626879e+00 +2.2700091575552706e+00 +1.6880470821773734e+01 +5.0026935575184899e+02 +2.5051873128813382e+04 -2.3467364834975079e+06 +2.1731215911046304e+07 
+4.6999999999999993e+00 -1.0302369194041243e+00 +2.2695071180745852e+00 +1.7062771029014918e+01 +5.0856238574162842e+02 +2.2100837873224660e+04 -2.3946069091572096e+06 +3.3827791291203476e+07 
+4.7999999999999989e+00 -1.0302407945787719e+00 +2.2690372700282242e+00 +1.7246871699352312e+01 +5.1643263806484356e+02 +1.9105608141586403e+04 -2.4411439475413831e+06 +4.6130713637983903e+07 
+4.8999999999999986e+00 -1.0302445803718643e+00 +2.2685994791996760e+00 +1.7432253017472387e+01 +5.2385944776421400e+02 +1.6076895772515185e+04 -2.4861601552261980e+06 +5.8591961698190726e+07 
+4.9999999999999982e+00 -1.0302482808691682e+00 +2.2681936115575558e+00 +1.7618395256058932e+01 +5.3082214249846845e+02 +1.3025410678245715e+04 -2.5294680399478627e+06 +7.1163524214288697e+07 
+5.0999999999999979e+00 -1.0302519001570627e+00 +2.2678195332509321e+00 +1.7804778787706535e+01 +5.3730004252301296e+02 +9.9618606005881429e+03 -2.5708800599967930e+06 +8.3797401123977870e+07 
+5.1999999999999975e+00 -1.0302554423224957e+00 +2.2674771106413432e+00 +1.7990884080994277e+01 +5.4327245964948065e+02 +6.8969511748118293e+03 -2.6102086178079369e+06 +9.6445603280563235e+07 
+5.2999999999999972e+00 -1.0302589114530576e+00 +2.2671662102962786e+00 +1.8176191711871340e+01 +5.4871869728555714e+02 +3.8413856935147414e+03 -2.6472660597351613e+06 +1.0906015362426305e+08 
+5.3999999999999968e+00 -1.0302623116369274e+00 +2.2668866990135226e+00 +1.8360182357539227e+01 +5.5361804957951460e+02 +8.0586521863993198e+02 -2.6818646705920128e+06 +1.2159308665280433e+08 
+5.4999999999999964e+00 -1.0302656469629534e+00 +2.2666384438234259e+00 +1.8542336809557256e+01 +5.5794980124565404e+02 -2.1989116911811984e+03 -2.7138166722991006e+06 +1.3399644977579211e+08 
+5.5999999999999961e+00 -1.0302689215206240e+00 +2.2664213120035281e+00 +1.8722135971291735e+01 +5.6169322698743485e+02 -5.1622489423305306e+03 -2.7429342200476467e+06 +1.4622230315564960e+08 
+5.6999999999999957e+00 -1.0302721394000909e+00 +2.2662351710906776e+00 +1.8899060862093709e+01 +5.6482759100971555e+02 -8.0734529971095517e+03 -2.7690293990302216e+06 +1.5822272016408342e+08 
+5.7999999999999954e+00 -1.0302753046922197e+00 +2.2660798888910438e+00 +1.9072592626119896e+01 +5.6733214659873579e+02 -1.0921833061289022e+04 -2.7919142215954680e+06 +1.6994978832199720e+08 
+5.8999999999999950e+00 -1.0302784214885083e+00 +2.2659553334907807e+00 +1.9242212523453620e+01 +5.6918613566693512e+02 -1.3696700923172413e+04 -2.8114006241313997e+06 +1.8135560854737011e+08 
+5.9999999999999947e+00 -1.0302814938812546e+00 +2.2658613732712456e+00 +1.9407401952857953e+01 +5.7036878818593698e+02 -1.6387371404012709e+04 -2.8273004633823875e+06 +1.9239229734137675e+08 
+6.0999999999999943e+00 -1.0302845259634059e+00 +2.2657978769123193e+00 +1.9567642434463963e+01 +5.7085932195327052e+02 -1.8983162041981635e+04 -2.8394255146522243e+06 +2.0301198531536281e+08 
+6.1999999999999940e+00 -1.0302875218287006e+00 +2.2657647134098906e+00 +1.9722415629713780e+01 +5.7063694193782499e+02 -2.1473393486259076e+04 -2.8475874675373016e+06 +2.1316681909634542e+08 
+6.2999999999999936e+00 -1.0302904855716033e+00 +2.2657617520898010e+00 +1.9871203334007951e+01 +5.6968083974978470e+02 -2.3847389367812855e+04 -2.8515979224489150e+06 +2.2280896073914433e+08 
+6.3999999999999932e+00 -1.0302934212873496e+00 +2.2657888626055724e+00 +2.0013487485279171e+01 +5.6797019357791942e+02 -2.6094476481139969e+04 -2.8512683898361959e+06 +2.3189058863026771e+08 
+6.4999999999999929e+00 -1.0302963330720549e+00 +2.2658459149715360e+00 +2.0148750180327706e+01 +5.6548416779977902e+02 -2.8203985039416268e+04 -2.8464102911851355e+06 +2.4036389832123700e+08 
+6.5999999999999925e+00 -1.0302992244624893e+00 +2.2659324946502180e+00 +2.0276592381462937e+01 +5.6221230993344625e+02 -3.0167454933032386e+04 -2.8369039163899887e+06 +2.4819000697464263e+08 
+6.6999999999999922e+00 -1.0303020963798333e+00 +2.2660468096018982e+00 +2.0397062087401874e+01 +5.5818803725891826e+02 -3.1985032160736544e+04 -2.8229019340828597e+06 +2.5536581094146991e+08 
+6.7999999999999918e+00 -1.0303049490034117e+00 +2.2661866617474091e+00 +2.0510314136586818e+01 +5.5345644394914098e+02 -3.3658989502187658e+04 -2.8046253676848463e+06 +2.6189727406145358e+08 
+6.8999999999999915e+00 -1.0303077825120233e+00 +2.2663498531559334e+00 +2.0616503329153591e+01 +5.4806261698525861e+02 -3.5191599163029059e+04 -2.7822951796688605e+06 +2.6779035756792009e+08 
+6.9999999999999911e+00 -1.0303105970838453e+00 +2.2665341860640917e+00 +2.0715784412847078e+01 +5.4205163568621822e+02 -3.6585132509186529e+04 -2.7561322692609970e+06 +2.7305101888618159e+08 
+7.0999999999999908e+00 -1.0303133928964010e+00 +2.2667374628675399e+00 +2.0808312079303715e+01 +5.3546857190044204e+02 -3.7841859994918923e+04 -2.7263574730270044e+06 +2.7768521127298760e+08 
+7.1999999999999904e+00 -1.0303161701265335e+00 +2.2669574861369894e+00 +2.0894240962459641e+01 +5.2835848946471424e+02 -3.8964051140025273e+04 -2.6931915611290387e+06 +2.8169888371129173e+08 
+7.2999999999999901e+00 -1.0303189289503700e+00 +2.2671920586114567e+00 +2.0973725633601774e+01 +5.2076644432865658e+02 -3.9953974428248592e+04 -2.6568552374754366e+06 +2.8509798039188010e+08 
+7.3999999999999897e+00 -1.0303216695432675e+00 +2.2674389832030450e+00 +2.1046920595929169e+01 +5.1273748435131870e+02 -4.0813897211555777e+04 -2.6175691379593965e+06 +2.8788844026523191e+08 
+7.4999999999999893e+00 -1.0303243920797964e+00 +2.2676960630061513e+00 +2.1113980282552774e+01 +5.0431664896433301e+02 -4.1546085665905928e+04 -2.5755538279591915e+06 +2.9007619679532915e+08 
+7.5999999999999890e+00 -1.0303270967337019e+00 +2.2679611012869048e+00 +2.1175059053240325e+01 +4.9554896940786466e+02 -4.2152804739329724e+04 -2.5310298030871698e+06 +2.9166717772912347e+08 
+7.6999999999999886e+00 -1.0303297836778296e+00 +2.2682319015068182e+00 +2.1230311185060170e+01 +4.8647946796808588e+02 -4.2636317967919669e+04 -2.4842174841980478e+06 +2.9266730418507493e+08 
+7.7999999999999883e+00 -1.0303324530841920e+00 +2.2685062673065310e+00 +2.1279890881664013e+01 +4.7715315839464171e+02 -4.2998887658782478e+04 -2.4353372192668500e+06 +2.9308249152931577e+08 
+7.8999999999999879e+00 -1.0303351051238081e+00 +2.2687820025134293e+00 +2.1323952253300067e+01 +4.6761504560250830e+02 -4.3242774501690044e+04 -2.3846092810600610e+06 +2.9291864748622769e+08 
+7.9999999999999876e+00 -1.0303377399667297e+00 +2.2690569111512606e+00 +2.1362649322109419e+01 +4.5791012531875788e+02 -4.3370237683999228e+04 -2.3322538644963675e+06 +2.9218167271129745e+08 
+8.0999999999999872e+00 -1.0303403577820165e+00 +2.2693287974407759e+00 +2.1396136018300169e+01 +4.4808338399926959e+02 -4.3383534809445067e+04 -2.2784910855996851e+06 +2.9087746036755908e+08 
+8.1999999999999869e+00 -1.0303429587376747e+00 +2.2695954657958652e+00 +2.1424566173354211e+01 +4.3817979887539298e+02 -4.3284921768913708e+04 -2.2235409812030201e+06 +2.8901189549060279e+08 
+8.2999999999999865e+00 -1.0303455430006168e+00 +2.2698547208348696e+00 +2.1448093517037588e+01 +4.2824433755430869e+02 -4.3076652694794364e+04 -2.1676235060478412e+06 +2.8659085479082268e+08 
+8.3999999999999861e+00 -1.0303481107366572e+00 +2.2701043673809069e+00 +2.1466871675332627e+01 +4.1832195792941303e+02 -4.2760979911152528e+04 -2.1109585316564599e+06 +2.8362020637102455e+08 
+8.4999999999999858e+00 -1.0303506621107079e+00 +2.2703422105656452e+00 +2.1481054211482885e+01 +4.0845760485660281e+02 -4.2340154846253929e+04 -2.0537658228947830e+06 +2.8010581469842851e+08 
+8.5999999999999854e+00 -1.0303531973842035e+00 +2.2705664437932209e+00 +2.1490843175604152e+01 +3.9869109134546790e+02 -4.1817649208670504e+04 -1.9962471075951741e+06 +2.7606058404398113e+08 
+8.6999999999999851e+00 -1.0303557169699240e+00 +2.2707766428308087e+00 +2.1496562787751856e+01 +3.8904843605640917e+02 -4.1200692518296659e+04 -1.9385807581563005e+06 +2.7152100441141874e+08 
+8.7999999999999847e+00 -1.0303582212965574e+00 +2.2709726901648950e+00 +2.1498556074509963e+01 +3.7955397309872177e+02 -4.0497320548247888e+04 -1.8809523450416615e+06 +2.6652914848060867e+08 
+8.8999999999999844e+00 -1.0303607107920958e+00 +2.2711544679196680e+00 +2.1497165928826838e+01 +3.7023205316246549e+02 -3.9715566242438195e+04 -1.8235475650016065e+06 +2.6112707449344909e+08 
+8.9999999999999840e+00 -1.0303631858835747e+00 +2.2713218579314107e+00 +2.1492735066938376e+01 +3.6110703987287695e+02 -3.8863458606149274e+04 -1.7665522146450381e+06 +2.5535681984006679e+08 
+9.0999999999999837e+00 -1.0303656469971769e+00 +2.2714747417553922e+00 +2.1485606039539785e+01 +3.5220330973533515e+02 -3.7949022906269784e+04 -1.7101521909514393e+06 +2.4926040197136080e+08 
+9.1999999999999833e+00 -1.0303680945581286e+00 +2.2716130006300550e+00 +2.1476121217874994e+01 +3.4354525337074659e+02 -3.6980280390259519e+04 -1.6545334994453851e+06 +2.4287981699620667e+08 
+9.2999999999999829e+00 -1.0303705289906238e+00 +2.2717365154782265e+00 +2.1464622780499354e+01 +3.3515727561879481e+02 -3.5965248005324574e+04 -1.5998822556132171e+06 +2.3625703825704512e+08 
+9.3999999999999826e+00 -1.0303729507179542e+00 +2.2718451669047774e+00 +2.1451452729114472e+01 +3.2706379578963504e+02 -3.4911938688532420e+04 -1.5463846873283277e+06 +2.2943401766163200e+08 
+9.4999999999999822e+00 -1.0303753601623626e+00 +2.2719388351686205e+00 +2.1436952868108659e+01 +3.1928924864662298e+02 -3.3828360958673671e+04 -1.4942271414646963e+06 +2.2245268367745495e+08 
+9.5999999999999819e+00 -1.0303777577450512e+00 +2.2720174001866056e+00 +2.1421464802880774e+01 +3.1185808443791933e+02 -3.2722518858878091e+04 -1.4435960849317051e+06 +2.1535494097325817e+08 
+9.6999999999999815e+00 -1.0303801438861613e+00 +2.2720807415157092e+00 +2.1405329936359163e+01 +3.0479476960207717e+02 -3.1602411878233317e+04 -1.3946781097306500e+06 +2.0818266999987456e+08 
+9.7999999999999812e+00 -1.0303825190047162e+00 +2.2721287383430608e+00 +2.1388889459445785e+01 +2.9812378721963267e+02 -3.0476034745091707e+04 -1.3476599364794851e+06 +2.0097772592117795e+08 
+9.8999999999999808e+00 -1.0303848835187073e+00 +2.2721612694751081e+00 +2.1372484359419200e+01 +2.9186963747659723e+02 -2.9351377570791763e+04 -1.3027284179539219e+06 +1.9378193924660218e+08 
+9.9999999999999805e+00 -1.0303872378448622e+00 +2.2721782133274933e+00 +2.1356455389813235e+01 +2.8605683815929154e+02 -2.8236425253780624e+04 -1.2600705429667933e+06 +1.8663711290856111e+08 
+1.0099999999999980e+01 -1.0303895823988898e+00 +2.2721794479178246e+00 +2.1341143099213863e+01 +2.8070992499077380e+02 -2.7139158017353242e+04 -1.2198734391088369e+06 +1.7958502479158440e+08 
