# multipoles
# s[mm] polynom_b[n=0][T/m^n] polynom_b[n=1][T/m^n] polynom_b[n=2][T/m^n] polynom_b[n=3][T/m^n] polynom_b[n=4][T/m^n] polynom_b[n=5][T/m^n] polynom_b[n=6][T/m^n] 
+0.0000000000000000e+00 -1.0330160782696418e+00 +2.3194810495335405e+00 +2.0480522928958866e+01 -7.3446975820402076e+02 -1.4133385869479358e+04 +4.7469391070220973e+06 +1.2833837442579609e+08 
+1.0000000000000001e-01 -1.0330125482565498e+00 +2.3192694863419883e+00 +2.0486923931374410e+01 -7.3145577665677263e+02 -1.4017032649497689e+04 +4.7451908569574794e+06 +1.2706248409065115e+08 
+2.0000000000000001e-01 -1.0330089642522897e+00 +2.3190370620236296e+00 +2.0484747680019659e+01 -7.2773144983482757e+02 -1.3726012664199505e+04 +4.7391853191418219e+06 +1.2485916088187967e+08 
+3.0000000000000004e-01 -1.0330053263284495e+00 +2.3187829002448228e+00 +2.0473466249065279e+01 -7.2327502272817014e+02 -1.3250047371820558e+04 +4.7287650077875433e+06 +1.2167776561154389e+08 
+4.0000000000000002e-01 -1.0330016345565551e+00 +2.3185061247193786e+00 +2.0452551715723192e+01 -7.1806474220375924e+02 -1.2578858540806430e+04 +4.7137724531663321e+06 +1.1746766184238571e+08 
+5.0000000000000000e-01 -1.0329978890081735e+00 +2.3182058592103343e+00 +2.0421476173529516e+01 -7.1207885711448398e+02 -1.1702168511122822e+04 +4.6940502026104853e+06 +1.1217821718483338e+08 
+5.9999999999999998e-01 -1.0329940903015211e+00 +2.3178815783692515e+00 +2.0379940185065717e+01 -7.0530797291444992e+02 -1.0614471003941844e+04 +4.6695239199386807e+06 +1.0578417054022302e+08 
+6.9999999999999996e-01 -1.0329902412036740e+00 +2.3175341222815056e+00 +2.0328550654680683e+01 -6.9779101046496248e+02 -9.3291596086626196e+03 +4.6404437122312123e+06 +9.8360689174784392e+07 
+7.9999999999999993e-01 -1.0329863450092465e+00 +2.3171646630158103e+00 +2.0268139186372270e+01 -6.8957869765225280e+02 -7.8643068668543565e+03 +4.6071388360513756e+06 +9.0007787688991174e+07 
+8.9999999999999991e-01 -1.0329824050128356e+00 +2.3167743726638683e+00 +2.0199537387795186e+01 -6.8072176308252813e+02 -6.2379854883693670e+03 +4.5699385529812993e+06 +8.0825481965043649e+07 
+9.9999999999999989e-01 -1.0329784245089051e+00 +2.3163644233291025e+00 +2.0123576852410796e+01 -6.7127093560048661e+02 -4.4682679588250521e+03 +4.5291721255739778e+06 +7.0913787051264897e+07 
+1.0999999999999999e+00 -1.0329744067918143e+00 +2.3159359871298504e+00 +2.0041089164069586e+01 -6.6127694426978314e+02 -2.5732266014971469e+03 +4.4851688161140308e+06 +6.0372717288785547e+07 
+1.2000000000000000e+00 -1.0329703551557599e+00 +2.3154902361822085e+00 +1.9952905886176637e+01 -6.5079051774123570e+02 -5.7093331659606258e+02 +4.4382578817553334e+06 +4.9302284818701528e+07 
+1.3000000000000000e+00 -1.0329662728948392e+00 +2.3150283425979246e+00 +1.9859858569265469e+01 -6.3986238406006726e+02 +1.5205403082424923e+03 +4.3887685722162733e+06 +3.7802499917478710e+07 
+1.4000000000000001e+00 -1.0329621633029631e+00 +2.3145514784797858e+00 +1.9762778737817793e+01 -6.2854327040872909e+02 +3.6831232939540605e+03 +4.3370301271297112e+06 +2.5973369360381003e+07 
+1.5000000000000002e+00 -1.0329580296738341e+00 +2.3140608159066485e+00 +1.9662497886879152e+01 -6.1688390253990428e+02 +5.8987453704094341e+03 +4.2833717715622345e+06 +1.3914895748989813e+07 
+1.6000000000000003e+00 -1.0329538753010299e+00 +2.3135575269392157e+00 +1.9559847490508883e+01 -6.0493500481977230e+02 +8.1493368620641158e+03 +4.2281227150952695e+06 +1.7270778236221343e+06 
+1.7000000000000004e+00 -1.0329497034778667e+00 +2.3130427835972482e+00 +1.9455658983062850e+01 -5.9274729943372472e+02 +1.0416829082268219e+04 +4.1716121460326770e+06 -1.0490091615514668e+07 
+1.8000000000000005e+00 -1.0329455174974713e+00 +2.3125177578688527e+00 +1.9350763767132683e+01 -5.8037150652454125e+02 +1.2683154222396466e+04 +4.1141692310152599e+06 -2.2636625391575649e+07 
+1.9000000000000006e+00 -1.0329413206526947e+00 +2.3119836216900440e+00 +1.9245993201083646e+01 -5.6785834348421406e+02 +1.4930245631472802e+04 +4.0561231097730864e+06 -3.4612543500879325e+07 
+2.0000000000000004e+00 -1.0329371162361747e+00 +2.3114415469482084e+00 +1.9142178605552928e+01 -5.5525852490637055e+02 +1.7140037733478966e+04 +3.9978028936148752e+06 -4.6317872932682730e+07 
+2.1000000000000005e+00 -1.0329329075402733e+00 +2.3108927054693957e+00 +1.9040151253435759e+01 -5.4262276211491258e+02 +1.9294466259565212e+04 +3.9395376615973315e+06 -5.7652648983558029e+07 
+2.2000000000000006e+00 -1.0329286978570511e+00 +2.3103382690107006e+00 +1.8940742365873923e+01 -5.3000176278575475e+02 +2.1375468365171630e+04 +3.8816564570627604e+06 -6.8516916033562407e+07 
+2.3000000000000007e+00 -1.0329244904782988e+00 +2.3097794092599351e+00 +1.8844783115049523e+01 -5.1744623082281930e+02 +2.3364982612569827e+04 +3.8244882857902553e+06 -7.8810727657451108e+07 
+2.4000000000000008e+00 -1.0329202886954700e+00 +2.3092172978182712e+00 +1.8753104612821829e+01 -5.0500686573949605e+02 +2.5244949241129652e+04 +3.7683621112619787e+06 -8.8434148162829399e+07 
+2.5000000000000009e+00 -1.0329160957997088e+00 +2.3086531061992894e+00 +1.8666537914128043e+01 -4.9273436235862528e+02 +2.6997310141501537e+04 +3.7136068509201808e+06 -9.7287252720011547e+07 
+2.6000000000000010e+00 -1.0329119145455752e+00 +2.3080882140115202e+00 +1.8585808087427328e+01 -4.8067658799005477e+02 +2.8606621723673914e+04 +3.6605050960714826e+06 -1.0528697493194562e+08 
+2.7000000000000011e+00 -1.0329077456553364e+00 +2.3075249521580266e+00 +1.8511225539805967e+01 -4.6887507238479503e+02 +3.0067501316118975e+04 +3.6091969012362366e+06 -1.1241478094821343e+08 
+2.8000000000000012e+00 -1.0329035893704155e+00 +2.3069659177918713e+00 +1.8442998893577791e+01 -4.5737093035628351e+02 +3.1376996522937123e+04 +3.5597967965000905e+06 -1.1866765253884600e+08 
+2.9000000000000012e+00 -1.0328994459322924e+00 +2.3064137079234293e+00 +1.8381336744714325e+01 -4.4620527097593612e+02 +3.2532155929803281e+04 +3.5124192727594501e+06 -1.2404257785212427e+08 
+3.0000000000000013e+00 -1.0328953155825606e+00 +2.3058709194152223e+00 +1.8326447669472465e+01 -4.3541919735302434e+02 +3.3530028977711947e+04 +3.4671787803314747e+06 -1.2853655076255557e+08 
+3.1000000000000014e+00 -1.0328911985629858e+00 +2.3053401489642487e+00 +1.8278540227950380e+01 -4.2505380606066086e+02 +3.4367665932938718e+04 +3.4241897258007792e+06 -1.3214657081721562e+08 
+3.2000000000000015e+00 -1.0328870951155054e+00 +2.3048239931045820e+00 +1.8237822963066005e+01 -4.1515018716144181e+02 +3.5042117914629613e+04 +3.3835664723721086e+06 -1.3486964336688378e+08 
+3.3000000000000016e+00 -1.0328830054822566e+00 +2.3043250481881268e+00 +1.8204504400856674e+01 -4.0574942360384466e+02 +3.5550436914731836e+04 +3.3454233365966571e+06 -1.3670277971167117e+08 
+3.4000000000000017e+00 -1.0328789299055858e+00 +2.3038459103781666e+00 +1.8178793050319829e+01 -3.9689259096715085e+02 +3.5889675819543183e+04 +3.3098745870384700e+06 -1.3764299723705432e+08 
+3.5000000000000018e+00 -1.0328748686281415e+00 +2.3033891756435949e+00 +1.8160897412403873e+01 -3.8862075725762782e+02 +3.6056888257203747e+04 +3.2770344433524590e+06 -1.3768731871862951e+08 
+3.6000000000000019e+00 -1.0328708218927778e+00 +2.3029574397425447e+00 +1.8151025966503092e+01 -3.8097498235931141e+02 +3.6049128873001457e+04 +3.2470170732243946e+06 -1.3683277366339394e+08 
+3.7000000000000020e+00 -1.0328667899426947e+00 +2.3025532982250221e+00 +1.8149387184385350e+01 -3.7399631808187684e+02 +3.5863453089779126e+04 +3.2199365929282778e+06 -1.3507639721817333e+08 
+3.8000000000000020e+00 -1.0328627730214155e+00 +2.3021793464128542e+00 +1.8156189527038187e+01 -3.6772580751480371e+02 +3.5496917180433178e+04 +3.1959070637407210e+06 -1.3241523053319390e+08 
+3.9000000000000021e+00 -1.0328587713728108e+00 +2.3018381793924285e+00 +1.8171641443897908e+01 -3.6220448476131031e+02 +3.4946578308371259e+04 +3.1750424905889933e+06 -1.2884632100177610e+08 
+4.0000000000000018e+00 -1.0328547852411198e+00 +2.3015323920087218e+00 +1.8195951374604224e+01 -3.5747337470149529e+02 +3.4209494508971329e+04 +3.1574568208528929e+06 -1.2436672219703399e+08 
+4.1000000000000014e+00 -1.0328508148710152e+00 +2.3012645788573804e+00 +1.8229327753852964e+01 -3.5357349274968789e+02 +3.3282724623004469e+04 +3.1432639432695871e+06 -1.1897349360337970e+08 
+4.2000000000000011e+00 -1.0328468605075800e+00 +2.3010373342678156e+00 +1.8271979007535421e+01 -3.5054584425557522e+02 +3.2163328380789768e+04 +3.1325776844956968e+06 -1.1266370102922392e+08 
+4.3000000000000007e+00 -1.0328429223963329e+00 +2.3008532523069061e+00 +1.8324113552706546e+01 -3.4843142460780723e+02 +3.0848366431990085e+04 +3.1255118100521890e+06 -1.0543441680807704e+08 
+4.4000000000000004e+00 -1.0328390007833161e+00 +2.3007149267526601e+00 +1.8385939806809336e+01 -3.4727121839602825e+02 +2.9334900183852675e+04 +3.1221800196047062e+06 -9.7282719046569884e+07 
+4.5000000000000000e+00 -1.0328350959149950e+00 +2.3006249510872792e+00 +1.8457666169791029e+01 -3.4710619938323299e+02 +2.7619992167500597e+04 +3.1226959495688397e+06 -8.8205693228721961e+07 
+4.5999999999999996e+00 -1.0328312081434756e+00 +2.3005850683361482e+00 +1.8539348344861278e+01 -3.4796087695599971e+02 +2.5703784281315311e+04 +3.1271160672438885e+06 -7.8213501466964334e+07 
+4.6999999999999993e+00 -1.0328273385698497e+00 +2.3005938065378215e+00 +1.8630523819972769e+01 -3.4979690883604553e+02 +2.3596895023389763e+04 +3.1352708102063527e+06 -6.7360758034413755e+07 
+4.7999999999999989e+00 -1.0328234885585010e+00 +2.3006489307165987e+00 +1.8730622245700872e+01 -3.5256087260534400e+02 +2.1312128287737058e+04 +3.1469345940446057e+06 -5.5711318907908149e+07 
+4.8999999999999986e+00 -1.0328196594741412e+00 +2.3007482059893429e+00 +1.8839073342713906e+01 -3.5619935071480427e+02 +1.8862286032406773e+04 +3.1618818746893159e+06 -4.3329028246960312e+07 
+4.9999999999999982e+00 -1.0328158526816777e+00 +2.3008893975925808e+00 +1.8955306887847161e+01 -3.6065893149654937e+02 +1.6260168503331350e+04 +3.1798871551181297e+06 -3.0277719270744730e+07 
+5.0999999999999979e+00 -1.0328120695463971e+00 +2.3010702708857664e+00 +1.9078752739910815e+01 -3.6588620943006526e+02 +1.3518573684856699e+04 +3.2007249877489763e+06 -1.6621211409073973e+07 
+5.1999999999999975e+00 -1.0328083114338626e+00 +2.3012885913670522e+00 +1.9208840830972679e+01 -3.7182778580873503e+02 +1.0650297412245533e+04 +3.2241699792616717e+06 -2.4233106344357040e+06 
+5.2999999999999972e+00 -1.0328045797099481e+00 +2.3015421246892149e+00 +1.9345001171493656e+01 -3.7843026937804711e+02 +7.6681332294962585e+03 +3.2499967951565012e+06 +1.2252191410532419e+07 
+5.3999999999999968e+00 -1.0328008757408247e+00 +2.3018286366668219e+00 +1.9486663854226322e+01 -3.8564027674875592e+02 +4.5848722498191000e+03 +3.2779801631160434e+06 +2.7341518316964757e+07 
+5.4999999999999964e+00 -1.0327972008930477e+00 +2.3021458932888414e+00 +1.9633259066018383e+01 -3.9340443292518142e+02 +1.4133028891178537e+03 +3.3078948768745759e+06 +4.2780910363374047e+07 
+5.5999999999999961e+00 -1.0327935565334427e+00 +2.3024916607321968e+00 +1.9784217078148526e+01 -4.0166937193195150e+02 -1.8337890117553291e+03 +3.3395158008884909e+06 +5.8506624165387526e+07 
+5.6999999999999957e+00 -1.0327899440292549e+00 +2.3028637053747159e+00 +1.9938968267236969e+01 -4.1038173734181964e+02 -5.1436206330615487e+03 +3.3726178741928446e+06 +7.4454934998864874e+07 
+5.7999999999999954e+00 -1.0327863647480127e+00 +2.3032597938042096e+00 +2.0096943101391055e+01 -4.1948818275306610e+02 -8.5034119677819035e+03 +3.4069761141385026e+06 +9.0562136025823087e+07 
+5.8999999999999950e+00 -1.0327828200576905e+00 +2.3036776928364588e+00 +2.0257572163728536e+01 -4.2893537249239733e+02 -1.1900386319350349e+04 +3.4423656213450735e+06 +1.0676454086569002e+08 
+5.9999999999999947e+00 -1.0327793113265535e+00 +2.3041151695203448e+00 +2.0420286136062352e+01 -4.3866998195190564e+02 -1.5321770049984327e+04 +3.4785615825586645e+06 +1.2299848262614365e+08 
+6.0999999999999943e+00 -1.0327758399233133e+00 +2.3045699911535018e+00 +2.0584515821512660e+01 -4.4863869824007548e+02 -1.8754793059486470e+04 +3.5153392753314464e+06 +1.3920031637809694e+08 
+6.1999999999999940e+00 -1.0327724072170559e+00 +2.3050399252983289e+00 +2.0749692138154682e+01 -4.5878822083455930e+02 -2.2186688719393536e+04 +3.5524740727278362e+06 +1.5530641906492949e+08 
+6.2999999999999936e+00 -1.0327690145772570e+00 +2.3055227397846165e+00 +2.0915246124506073e+01 -4.6906526184169081e+02 -2.5604694028766015e+04 +3.5897414456911711e+06 +1.7125319044343585e+08 
+6.3999999999999932e+00 -1.0327656633738076e+00 +2.3060162027314934e+00 +2.1080608945542682e+01 -4.7941654684158289e+02 -2.8996049786418112e+04 +3.6269169689123705e+06 +1.8697705413478252e+08 
+6.4999999999999929e+00 -1.0327623549771467e+00 +2.3065180826117033e+00 +2.1245211918253045e+01 -4.8978881760781246e+02 -3.2348001250169527e+04 +3.6637763399532544e+06 +2.0241446142477646e+08 
+6.5999999999999925e+00 -1.0327590897374230e+00 +2.3070258982453375e+00 +2.1408482150689345e+01 -5.0012725543398426e+02 -3.5648416807658090e+04 +3.7000971072819382e+06 +2.1750702678191203e+08 
+6.6999999999999922e+00 -1.0327558635754777e+00 +2.3075359873904038e+00 +2.1569802396887155e+01 -5.1036427663367556e+02 -3.8886845931851130e+04 +3.7356181654026839e+06 +2.3221236346071288e+08 
+6.7999999999999918e+00 -1.0327526712256550e+00 +2.3080443506317008e+00 +2.1728539529898455e+01 -5.2042768246495370e+02 -4.2053111615156529e+04 +3.7700585149248242e+06 +2.4649126723437160e+08 
+6.8999999999999915e+00 -1.0327495074210571e+00 +2.3085469888356367e+00 +2.1884060340954285e+01 -5.3024528310635515e+02 -4.5137035997752595e+04 +3.8031372046179888e+06 +2.6030453165375015e+08 
+6.9999999999999911e+00 -1.0327463668935706e+00 +2.3090399031632902e+00 +2.2035731543784387e+01 -5.3974489812347827e+02 -4.8128440465446693e+04 +3.8345733362308270e+06 +2.7361294834653836e+08 
+7.0999999999999908e+00 -1.0327432443737767e+00 +2.3095190950767130e+00 +2.2182919765828792e+01 -5.4885435664713975e+02 -5.1017145498877078e+04 +3.8640860652910122e+06 +2.8637730631646812e+08 
+7.1999999999999904e+00 -1.0327401345908924e+00 +2.3099805663536035e+00 +2.2324991543500449e+01 -5.5750149780164452e+02 -5.3792970605435890e+04 +3.8913946033602115e+06 +2.9855839165578312e+08 
+7.2999999999999901e+00 -1.0327370322727867e+00 +2.3104203190967665e+00 +2.2461313326572341e+01 -5.6561417100025437e+02 -5.6445734421486653e+04 +3.9162182195856846e+06 +3.1011698805800694e+08 
+7.3999999999999897e+00 -1.0327339321458604e+00 +2.3108343557403019e+00 +2.2591251466187487e+01 -5.7312023611490963e+02 -5.8965254504914068e+04 +3.9382762414253913e+06 +3.2101387585924548e+08 
+7.4999999999999893e+00 -1.0327308289350450e+00 +2.3112186790651625e+00 +2.2714172216101744e+01 -5.7994756393722901e+02 -6.1341347374095509e+04 +3.9572880571295503e+06 +3.3120983224385971e+08 
+7.5999999999999890e+00 -1.0327277173636842e+00 +2.3115692922065967e+00 +2.2829441720702189e+01 -5.8602403640618593e+02 -6.3563828298244349e+04 +3.9729731168512530e+06 +3.4066563026760125e+08 
+7.6999999999999886e+00 -1.0327245921535910e+00 +2.3118821986633202e+00 +2.2936426024907362e+01 -5.9127754686915227e+02 -6.5622511510461176e+04 +3.9850509339366937e+06 +3.4934203991611463e+08 
+7.7999999999999883e+00 -1.0327214480248958e+00 +2.3121534023065147e+00 +2.3034491057287248e+01 -5.9563600035064712e+02 -6.7507209899937909e+04 +3.9932410862622866e+06 +3.5719982664983582e+08 
+7.8999999999999879e+00 -1.0327182796960579e+00 +2.3123789073962611e+00 +2.3123002634337567e+01 -5.9902731404233600e+02 -6.9207735117611504e+04 +3.9972632189030815e+06 +3.6419975194891906e+08 
+7.9999999999999876e+00 -1.0327150818838078e+00 +2.3125547185844164e+00 +2.3201326454977913e+01 -6.0137941738464554e+02 -7.0713897483766952e+04 +3.9968370443554507e+06 +3.7030257288019019e+08 
+8.0999999999999872e+00 -1.0327118493030574e+00 +2.3126768409245795e+00 +2.3268828092050775e+01 -6.0262025236143893e+02 -7.2015505849574183e+04 +3.9916823440493019e+06 +3.7546904147873002e+08 
+8.1999999999999869e+00 -1.0327085766669051e+00 +2.3127412798900977e+00 +2.3324872996158561e+01 -6.0267777403420155e+02 -7.3102367691478488e+04 +3.9815189712404506e+06 +3.7965990522754878e+08 
+8.2999999999999865e+00 -1.0327052586865553e+00 +2.3127440413765274e+00 +2.3368826486976449e+01 -6.0147995060273217e+02 -7.3964288959426471e+04 +3.9660668511172985e+06 +3.8283590634766066e+08 
+8.3999999999999861e+00 -1.0327018900712523e+00 +2.3126811317129250e+00 +2.3400053747649000e+01 -5.9895476375583519e+02 -7.4591073990330638e+04 +3.9450459826593888e+06 +3.8495778141631567e+08 
+8.4999999999999858e+00 -1.0326984655283837e+00 +2.3125485577486469e+00 +2.3417919858154548e+01 -5.9503020927865339e+02 -7.4972526100860705e+04 +3.9181764256845945e+06 +3.8598626289166272e+08 
+8.5999999999999854e+00 -1.0326949819334075e+00 +2.3123439498641885e+00 +2.3422053226680905e+01 -5.8966574550600558e+02 -7.5102973673351458e+04 +3.8853035459427824e+06 +3.8590091809492600e+08 
+8.6999999999999851e+00 -1.0326914446590534e+00 +2.3120711898575492e+00 +2.3412942926309551e+01 -5.8294328364252317e+02 -7.4991066292217220e+04 +3.8467755359424781e+06 +3.8474086501374292e+08 
+8.7999999999999847e+00 -1.0326878611677690e+00 +2.3117356872612889e+00 +2.3391247565057469e+01 -5.7497491021765234e+02 -7.4648132036384850e+04 +3.8030669707096322e+06 +3.8255628114189398e+08 
+8.8999999999999844e+00 -1.0326842389233439e+00 +2.3113428514914727e+00 +2.3357625804444929e+01 -5.6587270816800037e+02 -7.4085498702749770e+04 +3.7546524006353752e+06 +3.7939733909029931e+08 
+8.9999999999999840e+00 -1.0326805853910683e+00 +2.3108980917911457e+00 +2.3312736386731522e+01 -5.5574875583299524e+02 -7.3314494292235759e+04 +3.7020063507836638e+06 +3.7531420843966550e+08 
+9.0999999999999837e+00 -1.0326769080378120e+00 +2.3104068172230354e+00 +2.3257238140487935e+01 -5.4471512671638027e+02 -7.2346447067202331e+04 +3.6456033194189840e+06 +3.7035705586869764e+08 
+9.1999999999999833e+00 -1.0326732143319897e+00 +2.3098744366600585e+00 +2.3191789972542182e+01 -5.3288388920884813e+02 -7.1192685348978455e+04 +3.5859177764188168e+06 +3.6457604403973317e+08 
+9.2999999999999829e+00 -1.0326695117436557e+00 +2.3093063587778300e+00 +2.3117050875634416e+01 -5.2036710636960629e+02 -6.9864537617103735e+04 +3.5234241619906942e+06 +3.5802133193374956e+08 
+9.3999999999999826e+00 -1.0326658077445872e+00 +2.3087079920482734e+00 +2.3033679936234002e+01 -5.0727683572675136e+02 -6.8373332618971152e+04 +3.4585968854894824e+06 +3.5074307525183445e+08 
+9.4999999999999822e+00 -1.0326621098082907e+00 +2.3080847447288182e+00 +2.2942336329899607e+01 -4.9372512896591456e+02 -6.6730399221539294e+04 +3.3919103236202691e+06 +3.4279142553063315e+08 
+9.5999999999999819e+00 -1.0326584254100410e+00 +2.3074420248553444e+00 +2.2843679323782261e+01 -4.7982403170252377e+02 -6.4947066422640863e+04 +3.3238388190574949e+06 +3.3421653008372045e+08 
+9.6999999999999815e+00 -1.0326547620269868e+00 +2.3067852402351954e+00 +2.2738368284964224e+01 -4.6568558328581378e+02 -6.3034663459626609e+04 +3.2548566793305282e+06 +3.2506853237111706e+08 
+9.7999999999999812e+00 -1.0326511271381644e+00 +2.3061197984379849e+00 +2.2627062678853584e+01 -4.5142181652572498e+02 -6.1004519727819446e+04 +3.1854381752359392e+06 +3.1539757145428210e+08 
+9.8999999999999808e+00 -1.0326475282245349e+00 +2.3054511067864629e+00 +2.2510422070450470e+01 -4.3714475740198492e+02 -5.8867964767948783e+04 +3.1160575390727757e+06 +3.0525378182800418e+08 
+9.9999999999999805e+00 -1.0326439727690608e+00 +2.3047845723532849e+00 +2.2389106129438218e+01 -4.2296642498920289e+02 -5.6636328306293799e+04 +3.0471889642805094e+06 +2.9468729343778807e+08 
+1.0099999999999980e+01 -1.0326404682567680e+00 +2.3041256019434870e+00 +2.2263774633966392e+01 -4.0899883092662111e+02 -5.4320940282723859e+04 +2.9793066022912837e+06 +2.8374823168426853e+08 
