# multipoles
# s[mm] polynom_b[n=0][T/m^n] polynom_b[n=1][T/m^n] polynom_b[n=2][T/m^n] polynom_b[n=3][T/m^n] polynom_b[n=4][T/m^n] polynom_b[n=5][T/m^n] polynom_b[n=6][T/m^n] 
-0.0000000000000000e+00 -6.7260692609068051e-01 +1.5170605082994824e+00 +1.2707481253503110e+01 -1.0501657006417774e+02 +1.5361569300641480e+04 +1.0460364252525427e+06 -7.1164047027400866e+07 
-1.0000000000000001e-01 -6.7260718617097248e-01 +1.5170790230435880e+00 +1.2734679087433859e+01 -1.0454857670720658e+02 +1.4687651963401975e+04 +1.0352284048109268e+06 -6.7053655654569015e+07 
-2.0000000000000001e-01 -6.7260742104356008e-01 +1.5171187845697232e+00 +1.2759323794604908e+01 -1.0531656981205860e+02 +1.4056985009707802e+04 +1.0362235975266957e+06 -6.3088029443913162e+07 
-2.9999999999999999e-01 -6.7260763320557748e-01 +1.5171764767260552e+00 +1.2780874494795066e+01 -1.0713541792817577e+02 +1.3489509163509751e+04 +1.0473397674797138e+06 -5.9422785372559071e+07 
-4.0000000000000002e-01 -6.7260782515441997e-01 +1.5172487834148387e+00 +1.2798790361618741e+01 -1.0981999214496982e+02 +1.3005163631751771e+04 +1.0668947005086730e+06 -5.6213530288257368e+07 
-5.0000000000000000e-01 -6.7260799938748972e-01 +1.5173323885869689e+00 +1.2812530575757505e+01 -1.1318516606951026e+02 +1.2623887408760873e+04 +1.0932062055678281e+06 -5.3615869881577723e+07 
-5.9999999999999998e-01 -6.7260815840226995e-01 +1.5174239762492825e+00 +1.2821554333672973e+01 -1.1704581635859118e+02 +1.2365619055481440e+04 +1.1245921207570138e+06 -5.1785407177626289e+07 
-6.9999999999999996e-01 -6.7260830469620192e-01 +1.5175202304636752e+00 +1.2825320822268786e+01 -1.2121682286430141e+02 +1.2250297412297483e+04 +1.1593703159531613e+06 -5.0877747428557262e+07 
-8.0000000000000004e-01 -6.7260844076656101e-01 +1.5176178353501251e+00 +1.2823289195145216e+01 -1.2551306898850395e+02 +1.2297862270953347e+04 +1.1958586974027059e+06 -5.1048502752246663e+07 
-9.0000000000000002e-01 -6.7260856911043387e-01 +1.5177134750906203e+00 +1.2814918565000728e+01 -1.2974944203445926e+02 +1.2528254605837134e+04 +1.2323752120948697e+06 -5.2453293733088359e+07 
-1.0000000000000000e+00 -6.7260869222467479e-01 +1.5178038339262896e+00 +1.2799667990808338e+01 -1.3374083331580647e+02 +1.2961416937694952e+04 +1.2672378502459277e+06 -5.5247751910809591e+07 
-1.1000000000000001e+00 -6.7260881318266685e-01 +1.5178861247451421e+00 +1.2777361183212845e+01 -1.3733715072063546e+02 +1.3605772675528355e+04 +1.2990804608861590e+06 -5.9504591598297983e+07 
-1.2000000000000000e+00 -6.7260893752250817e-01 +1.5179595906929233e+00 +1.2749306433202561e+01 -1.4052490319778087e+02 +1.4423152877555867e+04 +1.3277723088044305e+06 -6.4961999065541923e+07 
-1.3000000000000000e+00 -6.7260907143817739e-01 +1.5180239613207795e+00 +1.2717189759333070e+01 -1.4332388676722411e+02 +1.5363607964970188e+04 +1.3534845433132518e+06 -7.1273784618509427e+07 
-1.3999999999999999e+00 -6.7260922112369381e-01 +1.5180789660892995e+00 +1.2682697201629525e+01 -1.4575389218724570e+02 +1.6377187536735197e+04 +1.3763882598409171e+06 -7.8093751446696445e+07 
-1.5000000000000000e+00 -6.7260939277309084e-01 +1.5181243343492925e+00 +1.2647514820661838e+01 -1.4783470369250057e+02 +1.7413940334741652e+04 +1.3966544865361443e+06 -8.5075695016994908e+07 
-1.6000000000000001e+00 -6.7260959258048814e-01 +1.5181597953140693e+00 +1.2613328714356227e+01 -1.4958609741186922e+02 +1.8423913749290576e+04 +1.4144541683210297e+06 -9.1873399427809536e+07 
-1.7000000000000000e+00 -6.7260982674004477e-01 +1.5181850780328905e+00 +1.2581825011557898e+01 -1.5102783982199310e+02 +1.9357153944697271e+04 +1.4299581511861226e+06 -9.8140637945425704e+07 
-1.8000000000000000e+00 -6.7261010144606270e-01 +1.5181999113712135e+00 +1.2554689894820546e+01 -1.5217968648581672e+02 +2.0163705177948556e+04 +1.4433371688528077e+06 -1.0353116798324332e+08 
-1.8999999999999999e+00 -6.7261042289294848e-01 +1.5182040239838019e+00 +1.2533609596644679e+01 -1.5306138048263472e+02 +2.0793609874445476e+04 +1.4547618268753446e+06 -1.0769873139296257e+08 
-2.0000000000000000e+00 -6.7261079727525075e-01 +1.5181971442886786e+00 +1.2520270408505976e+01 -1.5369265090367966e+02 +2.1196908321033425e+04 +1.4644025874819653e+06 -1.1029705198205151e+08 
-2.1000000000000001e+00 -6.7261122865876755e-01 +1.5181791401624214e+00 +1.2515855674915038e+01 -1.5408660130091681e+02 +2.1338799451495375e+04 +1.4723567964432517e+06 -1.1108670326540057e+08 
-2.2000000000000002e+00 -6.7261171220980698e-01 +1.5181506230815087e+00 +1.2519454254247407e+01 -1.5423807317615339e+02 +2.1247274131242488e+04 +1.4784949551629198e+06 -1.1027042322016360e+08 
-2.2999999999999998e+00 -6.7261224077109638e-01 +1.5181124381756006e+00 +1.2529609899797174e+01 -1.5413944525837130e+02 +2.0966588377390519e+04 +1.4826476476200726e+06 -1.0816539055336285e+08 
-2.3999999999999999e+00 -6.7261280718511363e-01 +1.5180654306669163e+00 +1.2544866289183531e+01 -1.5378310228349523e+02 +2.0541000810891128e+04 +1.4846455245258326e+06 -1.0508880476291911e+08 
-2.5000000000000000e+00 -6.7261340429404837e-01 +1.5180104458787658e+00 +1.2563767011135807e+01 -1.5316143568181204e+02 +2.0014773094246662e+04 +1.4843193115228997e+06 -1.0135788957151136e+08 
-2.6000000000000001e+00 -6.7261402493981970e-01 +1.5179483292582361e+00 +1.2584855564871649e+01 -1.5226684489610577e+02 +1.9432170013626997e+04 +1.4814998228825664e+06 -9.7289893882672623e+07 
-2.7000000000000002e+00 -6.7261466196399688e-01 +1.5178799263902263e+00 +1.2606675341374766e+01 -1.5109173831275771e+02 +1.8837460085871666e+04 +1.4760179718822248e+06 -9.3202096458478838e+07 
-2.7999999999999998e+00 -6.7261530820779647e-01 +1.5178060830142439e+00 +1.2627769618142340e+01 -1.4962853434522273e+02 +1.8274915765716392e+04 +1.4677047825607182e+06 -8.9411807727433145e+07 
-2.8999999999999999e+00 -6.7261595651206885e-01 +1.5177276450434807e+00 +1.2646681549901537e+01 -1.4786966258323460e+02 +1.7788813783431986e+04 +1.4563914018911317e+06 -8.6236372570585668e+07 
-3.0000000000000000e+00 -6.7261659971724475e-01 +1.5176454585852337e+00 +1.2661954158605347e+01 -1.4580756508336373e+02 +1.7423435482185359e+04 +1.4419091137059692e+06 -8.3993172995396465e+07 
-3.1000000000000001e+00 -6.7261723135256957e-01 +1.5175606190948698e+00 +1.2672411426941075e+01 -1.4345398172521175e+02 +1.7213645841307352e+04 +1.4242929753831059e+06 -8.2928952696503267e+07 
-3.2000000000000002e+00 -6.7261784835752914e-01 +1.5174750059984681e+00 +1.2678126858437233e+01 -1.4088769876414207e+02 +1.7153404772483846e+04 +1.4043056072526802e+06 -8.2987188223449066e+07 
-3.2999999999999998e+00 -6.7261844869081033e-01 +1.5173906387642697e+00 +1.2679518815839813e+01 -1.3820165357057570e+02 +1.7225596511747011e+04 +1.3828692471201757e+06 -8.4030047567810997e+07 
-3.3999999999999999e+00 -6.7261903031187498e-01 +1.5173095369270373e+00 +1.2677005826903146e+01 -1.3548878506875121e+02 +1.7413100108655643e+04 +1.3609061393314286e+06 -8.5919660005699471e+07 
-3.5000000000000000e+00 -6.7261959118100301e-01 +1.5172337201003552e+00 +1.2671006593494697e+01 -1.3284203412540640e+02 +1.7698789133123759e+04 +1.3393385369893759e+06 -8.8518113843805790e+07 
-3.6000000000000001e+00 -6.7262012925934545e-01 +1.5171652079811411e+00 +1.2661940004276241e+01 -1.3035434363084840e+02 +1.8065531278920287e+04 +1.3190887018835144e+06 -9.1687453448357537e+07 
-3.7000000000000002e+00 -6.7262064250900711e-01 +1.5171060203504303e+00 +1.2650225152423324e+01 -1.2811865837265921e+02 +1.8496187797251954e+04 +1.3010789024080527e+06 -9.5289674986668006e+07 
-3.7999999999999998e+00 -6.7262112889308268e-01 +1.5170581770838003e+00 +1.2636281343232262e+01 -1.2622792534217606e+02 +1.8973613245575994e+04 +1.2862314152677939e+06 -9.9186724474965394e+07 
-3.8999999999999999e+00 -6.7262158637574654e-01 +1.5170236981478140e+00 +1.2620528116044294e+01 -1.2477509346830446e+02 +1.9480654811221095e+04 +1.2754685224671911e+06 -1.0324049278236708e+08 
-4.0000000000000000e+00 -6.7262201292233281e-01 +1.5170046036147040e+00 +1.2603385257224453e+01 -1.2385311398358820e+02 +2.0000151904528451e+04 +1.2697125115541178e+06 -1.0731281274330911e+08 
-4.0999999999999996e+00 -6.7262240828743092e-01 +1.5170019391751983e+00 +1.2585279943831475e+01 -1.2351959321289115e+02 +2.0516369318578734e+04 +1.2695519255907214e+06 -1.1127961841869929e+08 
-4.2000000000000002e+00 -6.7262277862236086e-01 +1.5170130076730783e+00 +1.2566560972475951e+01 -1.2369665320774580e+02 +2.1022088841235720e+04 +1.2742848173228384e+06 -1.1508928393298300e+08 
-4.2999999999999998e+00 -6.7262313148805197e-01 +1.5170342169472473e+00 +1.2547530213716163e+01 -1.2427406939503008e+02 +2.1512939271843759e+04 +1.2828972620547891e+06 -1.1871240204819438e+08 
-4.4000000000000004e+00 -6.7262347444434334e-01 +1.5170619747592631e+00 +1.2528489347778279e+01 -1.2514161508470326e+02 +2.1984555160843782e+04 +1.2943753090841123e+06 -1.2211960727893604e+08 
-4.5000000000000000e+00 -6.7262381504992497e-01 +1.5170926887873992e+00 +1.2509739856394257e+01 -1.2618906133956330e+02 +2.2432577074775574e+04 +1.3077049823282564e+06 -1.2528157810880196e+08 
-4.5999999999999996e+00 -6.7262416086224208e-01 +1.5171227666138500e+00 +1.2491583003608264e+01 -1.2730617652478323e+02 +2.2852652148162670e+04 +1.3218722761875282e+06 -1.2816904090141280e+08 
-4.7000000000000002e+00 -6.7262451943742285e-01 +1.5171486157215455e+00 +1.2474319825308477e+01 -1.2838272624786285e+02 +2.3240434415002233e+04 +1.3358631547176561e+06 -1.3075277237760487e+08 
-4.7999999999999998e+00 -6.7262489833022043e-01 +1.5171666434874334e+00 +1.2458251119122282e+01 -1.2930847314138512e+02 +2.3591585122647113e+04 +1.3486635493991948e+06 -1.3300360193915907e+08 
-4.9000000000000004e+00 -6.7262530509393359e-01 +1.5171732571751031e+00 +1.2443677427460992e+01 -1.2997317663968363e+02 +2.3901773232121992e+04 +1.3592593569226104e+06 -1.3489241526872656e+08 
-5.0000000000000000e+00 -6.7262574728031777e-01 +1.5171648639153148e+00 +1.2430899024629941e+01 -1.3026659195512727e+02 +2.4166675870326992e+04 +1.3666364313384034e+06 -1.3639015767258939e+08 
-5.0999999999999996e+00 -6.7262622977399922e-01 +1.5171389692771371e+00 +1.2420139649005913e+01 -1.3010701976763946e+02 +2.4383406503087175e+04 +1.3700265083850774e+06 -1.3748055438495588e+08 
-5.2000000000000002e+00 -6.7262674736942574e-01 +1.5170973756894390e+00 +1.2411367453018814e+01 -1.2952818292912951e+02 +2.4553165085352728e+04 +1.3696887017313789e+06 -1.3818952994044465e+08 
-5.2999999999999998e+00 -6.7262729248103958e-01 +1.5170429347687844e+00 +1.2404499296406495e+01 -1.2859290561330690e+02 +2.4677774692565050e+04 +1.3661507175232486e+06 -1.3855158574593830e+08 
-5.4000000000000004e+00 -6.7262785752415788e-01 +1.5169784979319423e+00 +1.2399452163820424e+01 -1.2736400040752697e+02 +2.4759054669822588e+04 +1.3599401708216819e+06 -1.3860119620561761e+08 
-5.5000000000000000e+00 -6.7262843491510682e-01 +1.5169069163848161e+00 +1.2396143189760624e+01 -1.2590426732247505e+02 +2.4798819896893619e+04 +1.3515845703939802e+06 -1.3837280278347111e+08 
-5.5999999999999996e+00 -6.7262901707117384e-01 +1.5168310411146260e+00 +1.2394489644936606e+01 -1.2427649326439750e+02 +2.4798881145967367e+04 +1.3416113141439233e+06 -1.3790081635375404e+08 
-5.7000000000000002e+00 -6.7262959641071562e-01 +1.5167537228814150e+00 +1.2394408957280366e+01 -1.2254345153665002e+02 +2.4761044487519106e+04 +1.3305476851776587e+06 -1.3721961300653282e+08 
-5.7999999999999998e+00 -6.7263016535319631e-01 +1.5166778122079272e+00 +1.2395818715267529e+01 -1.2076790120142169e+02 +2.4687111173397236e+04 +1.3189208462754763e+06 -1.3636353310374972e+08 
-5.9000000000000004e+00 -6.7263071631923022e-01 +1.5166061593680471e+00 +1.2398636675625683e+01 -1.1901258644638823e+02 +2.4578877414410654e+04 +1.3072578347817503e+06 -1.3536687966816646e+08 
-6.0000000000000000e+00 -6.7263124173063682e-01 +1.5165416144053445e+00 +1.2402780771263725e+01 -1.1734023825303387e+02 +2.4438133962109958e+04 +1.2960855792051808e+06 -1.3426391464110583e+08 
-6.0999999999999996e+00 -6.7263173637370210e-01 +1.5164863759494265e+00 +1.2408195766125218e+01 -1.1580895035611799e+02 +2.4265616491608409e+04 +1.2859245118109612e+06 -1.3307398759261754e+08 
-6.2000000000000002e+00 -6.7263220439187488e-01 +1.5164401176131286e+00 +1.2414961180508104e+01 -1.1445222538314700e+02 +2.4058027100804193e+04 +1.2771668578873619e+06 -1.3175954200339048e+08 
-6.2999999999999998e+00 -6.7263265224401503e-01 +1.5164019021400541e+00 +1.2423196946623975e+01 -1.1329609159693055e+02 +2.3811073875886392e+04 +1.2701480132786143e+06 -1.3026898055301008e+08 
-6.4000000000000004e+00 -6.7263308638873121e-01 +1.5163707926285288e+00 +1.2433023008911828e+01 -1.1236659687233670e+02 +2.3520464725259302e+04 +1.2652035475220094e+06 -1.2855070719123805e+08 
-6.5000000000000000e+00 -6.7263351328441701e-01 +1.5163458525533124e+00 +1.2444559332613785e+01 -1.1168981032776226e+02 +2.3181907199778805e+04 +1.2626692278938505e+06 -1.2655312711073956e+08 
-6.5999999999999996e+00 -6.7263393938922822e-01 +1.5163261457835513e+00 +1.2457925901652937e+01 -1.1129182331532583e+02 +2.2791108550519963e+04 +1.2628810285150986e+06 -1.2422464726030673e+08 
-6.7000000000000002e+00 -6.7263437116108560e-01 +1.5163107365972044e+00 +1.2473242721658719e+01 -1.1119875024786340e+02 +2.2343775670501644e+04 +1.2661751380628955e+06 -1.2151367615305564e+08 
-6.7999999999999998e+00 -6.7263481505764722e-01 +1.5162986896996808e+00 +1.2490629818059857e+01 -1.1143672960440085e+02 +2.1835615139971302e+04 +1.2728879689438422e+06 -1.1836862426446222e+08 
-6.9000000000000004e+00 -6.7263527753630736e-01 +1.5162890702355696e+00 +1.2510207235580674e+01 -1.1203192467974401e+02 +2.1262333264059445e+04 +1.2833561644493057e+06 -1.1473790449773702e+08 
-7.0000000000000000e+00 -6.7263576505420142e-01 +1.5162809437426710e+00 +1.2532095037904352e+01 -1.1301051918482871e+02 +2.0619636551010135e+04 +1.2979165524818408e+06 -1.1056993785621199e+08 
-7.0999999999999996e+00 -6.7263628270477793e-01 +1.5162735341978151e+00 +1.2556261750941655e+01 -1.1437422349871787e+02 +1.9909474994897413e+04 +1.3166038897224241e+06 -1.0586643771965279e+08 
-7.2000000000000002e+00 -6.7263682973145078e-01 +1.5162669763123799e+00 +1.2581971788953220e+01 -1.1604770123957293e+02 +1.9159252348851525e+04 +1.3384507601013763e+06 -1.0083528211185616e+08 
-7.2999999999999998e+00 -6.7263740381531323e-01 +1.5162616975771330e+00 +1.2608287395607034e+01 -1.1794084974850891e+02 +1.8402965339551276e+04 +1.3622829431333931e+06 -9.5735193833754376e+07 
-7.4000000000000004e+00 -6.7263800263698237e-01 +1.5162581251281129e+00 +1.2634270567276557e+01 -1.1996355317995665e+02 +1.7674618440643753e+04 +1.3869261042167714e+06 -9.0824946732621253e+07 
-7.5000000000000000e+00 -6.7263862387655149e-01 +1.5162566857182342e+00 +1.2658983047419357e+01 -1.2202568179819595e+02 +1.7008224107215232e+04 +1.4112057894457539e+06 -8.6363367405134425e+07 
-7.5999999999999996e+00 -6.7263926521353867e-01 +1.5162578057093961e+00 +1.2681486308831737e+01 -1.2403709173041511e+02 +1.6437803296610484e+04 +1.4339474234271471e+06 -8.2609338694391966e+07 
-7.7000000000000002e+00 -6.7263992432689368e-01 +1.5162619110577700e+00 +1.2700841550884483e+01 -1.2590762440048681e+02 +1.5997385578181882e+04 +1.4539763043920577e+06 -7.9821800354624078e+07 
-7.7999999999999998e+00 -6.7264059889498740e-01 +1.5162694273012707e+00 +1.2716109691910804e+01 -1.2754710603190213e+02 +1.5721009373617286e+04 +1.4701175996971021e+06 -7.8259750613957256e+07 
-7.9000000000000004e+00 -6.7264128659557354e-01 +1.5162807795414317e+00 +1.2726351355132698e+01 -1.2886534698541467e+02 +1.5642722373870060e+04 +1.4811963402797473e+06 -7.8182248938026235e+07 
-8.0000000000000000e+00 -6.7264198510577122e-01 +1.5162963925963078e+00 +1.2730626883165749e+01 -1.2977215334063899e+02 +1.5796580235574751e+04 +1.4860375423816422e+06 -7.9848401918433204e+07 
-8.0999999999999996e+00 -6.7264269146644917e-01 +1.5163166727234412e+00 +1.2728362996390986e+01 -1.3021318978016095e+02 +1.6201599791936527e+04 +1.4839343663243041e+06 -8.3398374700443506e+07 
-8.1999999999999993e+00 -6.7264340076113061e-01 +1.5163408735007562e+00 +1.2720588421181384e+01 -1.3022590601842697e+02 +1.6815996909232796e+04 +1.4756288246757400e+06 -8.8512268633502617e+07 
-8.3000000000000007e+00 -6.7264410772989336e-01 +1.5163676997605837e+00 +1.2708772721855381e+01 -1.2985916619353603e+02 +1.7582336066056854e+04 +1.4621372520554953e+06 -9.4756788846849293e+07 
-8.4000000000000004e+00 -6.7264480711368013e-01 +1.5163958565838493e+00 +1.2694385855342512e+01 -1.2916183294594134e+02 +1.8443167996197692e+04 +1.4444759489020547e+06 -1.0169854154913059e+08 
-8.5000000000000000e+00 -6.7264549365427750e-01 +1.5164240493434229e+00 +1.2678898161062282e+01 -1.2818276652244143e+02 +1.9341029726625362e+04 +1.4236611425566499e+06 -1.0890403091607325e+08 
-8.5999999999999996e+00 -6.7264616209437911e-01 +1.5164509837129867e+00 +1.2663780377294152e+01 -1.2697082468054882e+02 +2.0218444031643743e+04 +1.4007089847427872e+06 -1.1593965511445336e+08 
-8.6999999999999993e+00 -6.7264680717754255e-01 +1.5164753656750201e+00 +1.2650503645069064e+01 -1.2557486255660768e+02 +2.1017919239632902e+04 +1.3766355488815445e+06 -1.2237170479974434e+08 
-8.8000000000000007e+00 -6.7264742364831753e-01 +1.5164959015354036e+00 +1.2640539534951754e+01 -1.2404373286124884e+02 +2.1681948380729420e+04 +1.3524568301615079e+06 -1.2776635695720834e+08 
-8.9000000000000004e+00 -6.7264800625219390e-01 +1.5165112979227942e+00 +1.2635360045396531e+01 -1.2242628538104573e+02 +2.2153009153295556e+04 +1.3291887397055451e+06 -1.3168967452265948e+08 
-9.0000000000000000e+00 -6.7264854973574784e-01 +1.5165202616280034e+00 +1.2636437613897717e+01 -1.2077135431112745e+02 +2.2373564448335073e+04 +1.3078469507652859e+06 -1.3370761688681836e+08 
-9.0999999999999996e+00 -6.7264905058748192e-01 +1.5165215897367488e+00 +1.2644764567291418e+01 -1.1910940706960673e+02 +2.2304081146631506e+04 +1.2891213389510976e+06 -1.3352416963484955e+08 
-9.1999999999999993e+00 -6.7264951153244579e-01 +1.5165159875395879e+00 +1.2659230084918178e+01 -1.1746082526136135e+02 +2.1980316603335170e+04 +1.2729044479922149e+06 -1.3139795411877398e+08 
-9.3000000000000007e+00 -6.7264993667167816e-01 +1.5165050250963552e+00 +1.2678141356754592e+01 -1.1585843659459857e+02 +2.1458086812092766e+04 +1.2589986424670112e+06 -1.2773007733781235e+08 
-9.4000000000000004e+00 -6.7265033010512010e-01 +1.5164902729017877e+00 +1.2699805155626944e+01 -1.1433509718241321e+02 +2.0793223853086794e+04 +1.2472065334251933e+06 -1.2292177180614215e+08 
-9.5000000000000000e+00 -6.7265069593176230e-01 +1.5164733017670826e+00 +1.2722527890355229e+01 -1.1292368987065359e+02 +2.0041574521049261e+04 +1.2373310198549393e+06 -1.1737439144102566e+08 
-9.5999999999999996e+00 -6.7265103824956329e-01 +1.5164556828274001e+00 +1.2744615586472614e+01 -1.1165712497551198e+02 +1.9259000974894789e+04 +1.2291752968728244e+06 -1.1148941653678964e+08 
-9.6999999999999993e+00 -6.7265136115551849e-01 +1.5164389875531752e+00 +1.2764373891562462e+01 -1.1056834114303409e+02 +1.8501380730217319e+04 +1.2225428647317423e+06 -1.0566845430168711e+08 
-9.8000000000000007e+00 -6.7265166874552484e-01 +1.5164247877485755e+00 +1.2780108048837574e+01 -1.0969030566607240e+02 +1.7824607511444479e+04 +1.2172375333496854e+06 -1.0031324525121027e+08 
-9.9000000000000004e+00 -6.7265196511445491e-01 +1.5164146555742501e+00 +1.2790122899421668e+01 -1.0905601587351678e+02 +1.7284591314869951e+04 +1.2130634359025634e+06 -9.5825664173412576e+07 
-1.0000000000000000e+01 -6.7265225435582310e-01 +1.5164101636077614e+00 +1.2792722833501312e+01 -1.0869850509423206e+02 +1.6937259573647672e+04 +1.2098251463613955e+06 -9.2607721395123497e+07 
-1.0100000000000000e+01 -6.7265253921206247e-01 +1.5164128469445843e+00 +1.2786660353976643e+01 -1.0865780916183611e+02 +1.6824909711183540e+04 +1.2075295431279917e+06 -9.0963324275134996e+07 
