# field on trajectory
# s[mm] rx[mm] ry[mm] rz[mm] bx[T] by[T] bz[T]
-0.0000000000000000e+00 +9.1476323485342608e+00 +0.0000000000000000e+00 -0.0000000000000000e+00 +1.1489902249964984e-02 -1.0321096667800234e+00 -5.8833004409307881e-02
-1.0000000000000001e-01 +9.1476318316365202e+00 +0.0000000000000000e+00 -9.9999999998218805e-02 +1.1489837806623366e-02 -1.0321083366633221e+00 -5.8834775653961988e-02
-2.0000000000000001e-01 +9.1476302809427192e+00 +0.0000000000000000e+00 -1.9999999998574999e-01 +1.1489773547101918e-02 -1.0321070387234175e+00 -5.8836571461901153e-02
-2.9999999999999999e-01 +9.1476276964536503e+00 +0.0000000000000000e+00 -2.9999999995190701e-01 +1.1489709377321184e-02 -1.0321057732138388e+00 -5.8838391267572641e-02
-4.0000000000000002e-01 +9.1476240781675404e+00 +0.0000000000000000e+00 -3.9999999988600199e-01 +1.1489645203196812e-02 -1.0321045403880664e+00 -5.8840234505385773e-02
-5.0000000000000000e-01 +9.1476194260861501e+00 +0.0000000000000000e+00 -4.9999999977734699e-01 +1.1489580930639209e-02 -1.0321033404995226e+00 -5.8842100609714044e-02
-5.9999999999999998e-01 +9.1476137402094899e+00 +0.0000000000000000e+00 -5.9999999961525596e-01 +1.1489516465553469e-02 -1.0321021738015870e+00 -5.8843989014898283e-02
-6.9999999999999996e-01 +9.1476070205357907e+00 +0.0000000000000000e+00 -6.9999999938904001e-01 +1.1489451713839218e-02 -1.0321010405476077e+00 -5.8845899155249577e-02
-8.0000000000000004e-01 +9.1475992670650292e+00 +0.0000000000000000e+00 -7.9999999908801400e-01 +1.1489386581390256e-02 -1.0320999409908926e+00 -5.8847830465051182e-02
-9.0000000000000002e-01 +9.1475904798007797e+00 +0.0000000000000000e+00 -8.9999999870148795e-01 +1.1489320974094341e-02 -1.0320988753847129e+00 -5.8849782378561345e-02
-1.0000000000000000e+00 +9.1475806587394892e+00 +0.0000000000000000e+00 -9.9999999821877705e-01 +1.1489254797833297e-02 -1.0320978439823354e+00 -5.8851754330016930e-02
-1.1000000000000001e+00 +9.1475698038829201e+00 +0.0000000000000000e+00 -1.0999999976291901e+00 +1.1489187958482458e-02 -1.0320968470369953e+00 -5.8853745753634862e-02
-1.2000000000000000e+00 +9.1475579152292994e+00 +0.0000000000000000e+00 -1.1999999969220501e+00 +1.1489120361910713e-02 -1.0320958848019259e+00 -5.8855756083615714e-02
-1.3000000000000000e+00 +9.1475449927804107e+00 +0.0000000000000000e+00 -1.2999999960866500e+00 +1.1489051913980112e-02 -1.0320949575303437e+00 -5.8857784754145645e-02
-1.3999999999999999e+00 +9.1475310365362503e+00 +0.0000000000000000e+00 -1.3999999951123201e+00 +1.1488982520545823e-02 -1.0320940654754716e+00 -5.8859831199399686e-02
-1.5000000000000000e+00 +9.1475160464950402e+00 +0.0000000000000000e+00 -1.4999999939883699e+00 +1.1488912087455925e-02 -1.0320932088905372e+00 -5.8861894853544219e-02
-1.6000000000000001e+00 +9.1475000226585603e+00 +0.0000000000000000e+00 -1.5999999927041100e+00 +1.1488840598964800e-02 -1.0320923871459526e+00 -5.8863975199182191e-02
-1.7000000000000000e+00 +9.1474829650268106e+00 +0.0000000000000000e+00 -1.6999999912488499e+00 +1.1488768352980926e-02 -1.0320915960809927e+00 -5.8866071912687973e-02
-1.8000000000000000e+00 +9.1474648735980093e+00 +0.0000000000000000e+00 -1.7999999896119101e+00 +1.1488695725838034e-02 -1.0320908306524887e+00 -5.8868184718886989e-02
-1.8999999999999999e+00 +9.1474457483739400e+00 +0.0000000000000000e+00 -1.8999999877825899e+00 +1.1488623093885455e-02 -1.0320900858177282e+00 -5.8870313342617275e-02
-2.0000000000000000e+00 +9.1474255893528191e+00 +0.0000000000000000e+00 -1.9999999857502100e+00 +1.1488550833491051e-02 -1.0320893565345288e+00 -5.8872457508734127e-02
-2.1000000000000001e+00 +9.1474043965364302e+00 +0.0000000000000000e+00 -2.0999999835040901e+00 +1.1488479321043771e-02 -1.0320886377612806e+00 -5.8874616942113371e-02
-2.2000000000000002e+00 +9.1473821699247697e+00 +0.0000000000000000e+00 -2.1999999810335300e+00 +1.1488408932956568e-02 -1.0320879244570216e+00 -5.8876791367656015e-02
-2.2999999999999998e+00 +9.1473589095160595e+00 +0.0000000000000000e+00 -2.2999999783278602e+00 +1.1488340045669142e-02 -1.0320872115814943e+00 -5.8878980510292264e-02
-2.3999999999999999e+00 +9.1473346153120794e+00 +0.0000000000000000e+00 -2.3999999753763701e+00 +1.1488273035650533e-02 -1.0320864940951966e+00 -5.8881184094984954e-02
-2.5000000000000000e+00 +9.1473092873128206e+00 +0.0000000000000000e+00 -2.4999999721683901e+00 +1.1488208279402059e-02 -1.0320857669594508e+00 -5.8883401846734233e-02
-2.6000000000000001e+00 +9.1472829255165191e+00 +0.0000000000000000e+00 -2.5999999686932198e+00 +1.1488146153460041e-02 -1.0320850251364662e+00 -5.8885633490581499e-02
-2.7000000000000002e+00 +9.1472555299249496e+00 +0.0000000000000000e+00 -2.6999999649401798e+00 +1.1488087034398412e-02 -1.0320842635893852e+00 -5.8887878751612895e-02
-2.7999999999999998e+00 +9.1472271005398795e+00 +0.0000000000000000e+00 -2.7999999608985902e+00 +1.1488031298831575e-02 -1.0320834772823515e+00 -5.8890137354963734e-02
-2.8999999999999999e+00 +9.1471976373559905e+00 +0.0000000000000000e+00 -2.8999999565577501e+00 +1.1487979323417377e-02 -1.0320826611805891e+00 -5.8892409025823281e-02
-3.0000000000000000e+00 +9.1471671403768209e+00 +0.0000000000000000e+00 -2.9999999519069700e+00 +1.1487931484859389e-02 -1.0320818102504208e+00 -5.8894693489437114e-02
-3.1000000000000001e+00 +9.1471356096023904e+00 +0.0000000000000000e+00 -3.0999999469355801e+00 +1.1487888159910009e-02 -1.0320809194593599e+00 -5.8896990471112375e-02
-3.2000000000000002e+00 +9.1471030450308994e+00 +0.0000000000000000e+00 -3.1999999416328699e+00 +1.1487849725373199e-02 -1.0320799837761672e+00 -5.8899299696221728e-02
-3.2999999999999998e+00 +9.1470694466641493e+00 +0.0000000000000000e+00 -3.2999999359881800e+00 +1.1487816558107057e-02 -1.0320789981708949e+00 -5.8901620890206743e-02
-3.3999999999999999e+00 +9.1470348145021205e+00 +0.0000000000000000e+00 -3.3999999299908001e+00 +1.1487789035026740e-02 -1.0320779576149630e+00 -5.8903953778582534e-02
-3.5000000000000000e+00 +9.1469991485430509e+00 +0.0000000000000000e+00 -3.4999999236300501e+00 +1.1487767533107230e-02 -1.0320768570812153e+00 -5.8906298086941748e-02
-3.6000000000000001e+00 +9.1469624487887007e+00 +0.0000000000000000e+00 -3.5999999168952499e+00 +1.1487752245477626e-02 -1.0320756926107322e+00 -5.8908653365316067e-02
-3.7000000000000002e+00 +9.1469247152390807e+00 +0.0000000000000000e+00 -3.6999999097757001e+00 +1.1487742629658584e-02 -1.0320744645126478e+00 -5.8911018461234622e-02
-3.7999999999999998e+00 +9.1468859478924092e+00 +0.0000000000000000e+00 -3.7999999022607200e+00 +1.1487737959218937e-02 -1.0320731741629239e+00 -5.8913392046620681e-02
-3.8999999999999999e+00 +9.1468461467522495e+00 +0.0000000000000000e+00 -3.8999998943396199e+00 +1.1487737507669984e-02 -1.0320718229373822e+00 -5.8915772793429431e-02
-4.0000000000000000e+00 +9.1468053118132708e+00 +0.0000000000000000e+00 -3.9999998860017101e+00 +1.1487740548460754e-02 -1.0320704122116915e+00 -5.8918159373649893e-02
-4.0999999999999996e+00 +9.1467634430807898e+00 +0.0000000000000000e+00 -4.0999998772363098e+00 +1.1487746354972052e-02 -1.0320689433612629e+00 -5.8920550459302744e-02
-4.2000000000000002e+00 +9.1467205405512608e+00 +0.0000000000000000e+00 -4.1999998680327302e+00 +1.1487754200511870e-02 -1.0320674177612499e+00 -5.8922944722442895e-02
-4.2999999999999998e+00 +9.1466766042264602e+00 +0.0000000000000000e+00 -4.2999998583802803e+00 +1.1487763358309677e-02 -1.0320658367864606e+00 -5.8925340835158116e-02
-4.4000000000000004e+00 +9.1466316341046099e+00 +0.0000000000000000e+00 -4.3999998482682798e+00 +1.1487773101511433e-02 -1.0320642018113277e+00 -5.8927737469570085e-02
-4.5000000000000000e+00 +9.1465856301892607e+00 +0.0000000000000000e+00 -4.4999998376860297e+00 +1.1487782703174071e-02 -1.0320625142098354e+00 -5.8930133297833885e-02
-4.5999999999999996e+00 +9.1465385924768707e+00 +0.0000000000000000e+00 -4.5999998266228497e+00 +1.1487791436260596e-02 -1.0320607753554971e+00 -5.8932526992139321e-02
-4.7000000000000002e+00 +9.1464905209674292e+00 +0.0000000000000000e+00 -4.6999998150680504e+00 +1.1487798573634557e-02 -1.0320589866212795e+00 -5.8934917224710177e-02
-4.7999999999999998e+00 +9.1464414156644995e+00 +0.0000000000000000e+00 -4.7999998030109499e+00 +1.1487803388054727e-02 -1.0320571493795490e+00 -5.8937302667804323e-02
-4.9000000000000004e+00 +9.1463912765645095e+00 +0.0000000000000000e+00 -4.8999997904408596e+00 +1.1487805152170216e-02 -1.0320552650020467e+00 -5.8939681993715166e-02
-5.0000000000000000e+00 +9.1463401036692602e+00 +0.0000000000000000e+00 -4.9999997773470897e+00 +1.1487803138514829e-02 -1.0320533348598075e+00 -5.8942053874770410e-02
-5.0999999999999996e+00 +9.1462878969787305e+00 +0.0000000000000000e+00 -5.0999997637189498e+00 +1.1487796619501998e-02 -1.0320513603231243e+00 -5.8944416983333213e-02
-5.2000000000000002e+00 +9.1462346564911599e+00 +0.0000000000000000e+00 -5.1999997495457499e+00 +1.1487784867419571e-02 -1.0320493427614963e+00 -5.8946769991802268e-02
-5.2999999999999998e+00 +9.1461803822083105e+00 +0.0000000000000000e+00 -5.2999997348168204e+00 +1.1487767154424349e-02 -1.0320472835435655e+00 -5.8949111572611457e-02
-5.4000000000000004e+00 +9.1461250741284204e+00 +0.0000000000000000e+00 -5.3999997195214604e+00 +1.1487742752537075e-02 -1.0320451840370817e+00 -5.8951440398230991e-02
-5.5000000000000000e+00 +9.1460687322550296e+00 +0.0000000000000000e+00 -5.4999997036489701e+00 +1.1487710933636876e-02 -1.0320430456088283e+00 -5.8953755141166422e-02
-5.5999999999999996e+00 +9.1460113565845909e+00 +0.0000000000000000e+00 -5.5999996871886903e+00 +1.1487671206802507e-02 -1.0320408699993728e+00 -5.8956054606218139e-02
-5.7000000000000002e+00 +9.1459529471188894e+00 +0.0000000000000000e+00 -5.6999996701299196e+00 +1.1487624030425315e-02 -1.0320386604470155e+00 -5.8958338127237775e-02
-5.7999999999999998e+00 +9.1458935038561293e+00 +0.0000000000000000e+00 -5.7999996524619597e+00 +1.1487570100291960e-02 -1.0320364205629138e+00 -5.8960605170317620e-02
-5.9000000000000004e+00 +9.1458330267980994e+00 +0.0000000000000000e+00 -5.8999996341741401e+00 +1.1487510112255699e-02 -1.0320341539561246e+00 -5.8962855201522314e-02
-6.0000000000000000e+00 +9.1457715159465796e+00 +0.0000000000000000e+00 -5.9999996152557697e+00 +1.1487444762240772e-02 -1.0320318642335242e+00 -5.8965087686886963e-02
-6.0999999999999996e+00 +9.1457089712962301e+00 +0.0000000000000000e+00 -6.0999995956961603e+00 +1.1487374746246956e-02 -1.0320295549997349e+00 -5.8967302092415380e-02
-6.2000000000000002e+00 +9.1456453928523906e+00 +0.0000000000000000e+00 -6.1999995754846200e+00 +1.1487300760353272e-02 -1.0320272298569915e+00 -5.8969497884075732e-02
-6.2999999999999998e+00 +9.1455807806132707e+00 +0.0000000000000000e+00 -6.2999995546104604e+00 +1.1487223500722852e-02 -1.0320248924050910e+00 -5.8971674527799993e-02
-6.4000000000000004e+00 +9.1455151345771100e+00 +0.0000000000000000e+00 -6.3999995330630002e+00 +1.1487143663607022e-02 -1.0320225462412886e+00 -5.8973831489480821e-02
-6.5000000000000000e+00 +9.1454484547456794e+00 +0.0000000000000000e+00 -6.4999995108315600e+00 +1.1487061945349469e-02 -1.0320201949601959e+00 -5.8975968234968673e-02
-6.5999999999999996e+00 +9.1453807411171901e+00 +0.0000000000000000e+00 -6.5999994879054302e+00 +1.1486979042390776e-02 -1.0320178421537094e+00 -5.8978084230070157e-02
-6.7000000000000002e+00 +9.1453119936934399e+00 +0.0000000000000000e+00 -6.6999994642739402e+00 +1.1486895651272502e-02 -1.0320154914109017e+00 -5.8980178940544865e-02
-6.7999999999999998e+00 +9.1452422124761892e+00 +0.0000000000000000e+00 -6.7999994399263999e+00 +1.1486812468641571e-02 -1.0320131463179376e+00 -5.8982251832103295e-02
-6.9000000000000004e+00 +9.1451713974618905e+00 +0.0000000000000000e+00 -6.8999994148521200e+00 +1.1486730191254757e-02 -1.0320108104580001e+00 -5.8984302370404945e-02
-7.0000000000000000e+00 +9.1450995486523308e+00 +0.0000000000000000e+00 -6.9999993890404202e+00 +1.1486649515982642e-02 -1.0320084874111715e+00 -5.8986330021054835e-02
-7.0999999999999996e+00 +9.1450266660474906e+00 +0.0000000000000000e+00 -7.0999993624805997e+00 +1.1486571139814146e-02 -1.0320061807543606e+00 -5.8988334249601843e-02
-7.2000000000000002e+00 +9.1449527496438208e+00 +0.0000000000000000e+00 -7.1999993351619702e+00 +1.1486495759860861e-02 -1.0320038940612151e+00 -5.8990314521536302e-02
-7.2999999999999998e+00 +9.1448777994484391e+00 +0.0000000000000000e+00 -7.2999993070738700e+00 +1.1486424073360925e-02 -1.0320016309019993e+00 -5.8992270302286334e-02
-7.4000000000000004e+00 +9.1448018154560096e+00 +0.0000000000000000e+00 -7.3999992782055797e+00 +1.1486356777684050e-02 -1.0319993948435568e+00 -5.8994201057217650e-02
-7.5000000000000000e+00 +9.1447247976682995e+00 +0.0000000000000000e+00 -7.4999992485464304e+00 +1.1486294570335202e-02 -1.0319971894491735e+00 -5.8996106251629161e-02
-7.5999999999999996e+00 +9.1446467460835503e+00 +0.0000000000000000e+00 -7.5999992180857303e+00 +1.1486237988439386e-02 -1.0319950176077346e+00 -5.8997985401638357e-02
-7.7000000000000002e+00 +9.1445676607035296e+00 +0.0000000000000000e+00 -7.6999991868127999e+00 +1.1486186927081048e-02 -1.0319928795226814e+00 -5.8999838226870771e-02
-7.7999999999999998e+00 +9.1444875415300100e+00 +0.0000000000000000e+00 -7.7999991547169403e+00 +1.1486141120712385e-02 -1.0319907747268933e+00 -5.9001664497846003e-02
-7.9000000000000004e+00 +9.1444063885594495e+00 +0.0000000000000000e+00 -7.8999991217874603e+00 +1.1486100303653761e-02 -1.0319887027539196e+00 -5.9003463985096462e-02
-8.0000000000000000e+00 +9.1443242017936104e+00 +0.0000000000000000e+00 -7.9999990880136904e+00 +1.1486064210088727e-02 -1.0319866631380052e+00 -5.9005236459166541e-02
-8.0999999999999996e+00 +9.1442409812307197e+00 +0.0000000000000000e+00 -8.0999990533849306e+00 +1.1486032574059691e-02 -1.0319846554141616e+00 -5.9006981690613934e-02
-8.1999999999999993e+00 +9.1441567268743391e+00 +0.0000000000000000e+00 -8.1999990178904891e+00 +1.1486005129463024e-02 -1.0319826791182005e+00 -5.9008699450008945e-02
-8.3000000000000007e+00 +9.1440714387209105e+00 +0.0000000000000000e+00 -8.2999989815196997e+00 +1.1485981610044839e-02 -1.0319807337868121e+00 -5.9010389507936155e-02
-8.4000000000000004e+00 +9.1439851167722104e+00 +0.0000000000000000e+00 -8.3999989442618492e+00 +1.1485961749395975e-02 -1.0319788189575936e+00 -5.9012051634993443e-02
-8.5000000000000000e+00 +9.1438977610300203e+00 +0.0000000000000000e+00 -8.4999989061062706e+00 +1.1485945280947516e-02 -1.0319769341691056e+00 -5.9013685601792827e-02
-8.5999999999999996e+00 +9.1438093714890005e+00 +0.0000000000000000e+00 -8.5999988670422596e+00 +1.1485931937966454e-02 -1.0319750789609476e+00 -5.9015291178961544e-02
-8.6999999999999993e+00 +9.1437199481544802e+00 +0.0000000000000000e+00 -8.6999988270591402e+00 +1.1485921453550429e-02 -1.0319732528737637e+00 -5.9016868137140507e-02
-8.8000000000000007e+00 +9.1436294910247007e+00 +0.0000000000000000e+00 -8.7999987861462294e+00 +1.1485913560623727e-02 -1.0319714554493398e+00 -5.9018416246986463e-02
-8.9000000000000004e+00 +9.1435380000978608e+00 +0.0000000000000000e+00 -8.8999987442928301e+00 +1.1485907991932394e-02 -1.0319696862306367e+00 -5.9019935279171612e-02
-9.0000000000000000e+00 +9.1434454753775292e+00 +0.0000000000000000e+00 -8.9999987014882503e+00 +1.1485904480039437e-02 -1.0319679447618297e+00 -5.9021425004383316e-02
-9.0999999999999996e+00 +9.1433519168619295e+00 +0.0000000000000000e+00 -9.0999986577218195e+00 +1.1485902757320560e-02 -1.0319662305883872e+00 -5.9022885193325540e-02
-9.1999999999999993e+00 +9.1432573245492801e+00 +0.0000000000000000e+00 -9.1999986129828297e+00 +1.1485902555959340e-02 -1.0319645432571081e+00 -5.9024315616718649e-02
-9.3000000000000007e+00 +9.1431616984413608e+00 +0.0000000000000000e+00 -9.2999985672606194e+00 +1.1485903607942478e-02 -1.0319628823161675e+00 -5.9025716045299333e-02
-9.4000000000000004e+00 +9.1430650385381700e+00 +0.0000000000000000e+00 -9.3999985205444805e+00 +1.1485905645055364e-02 -1.0319612473151798e+00 -5.9027086249821469e-02
-9.5000000000000000e+00 +9.1429673448397004e+00 +0.0000000000000000e+00 -9.4999984728237195e+00 +1.1485908398877342e-02 -1.0319596378052467e+00 -5.9028426001056275e-02
-9.5999999999999996e+00 +9.1428686173459699e+00 +0.0000000000000000e+00 -9.5999984240876799e+00 +1.1485911671577117e-02 -1.0319580538511028e+00 -5.9029735122717891e-02
-9.6999999999999993e+00 +9.1427688560551807e+00 +0.0000000000000000e+00 -9.6999983743256504e+00 +1.1485915548495802e-02 -1.0319564975669520e+00 -5.9031013650236150e-02
-9.8000000000000007e+00 +9.1426680609726798e+00 +0.0000000000000000e+00 -9.7999983235269408e+00 +1.1485920186047254e-02 -1.0319549715791210e+00 -5.9032261671951129e-02
-9.9000000000000004e+00 +9.1425662320913492e+00 +0.0000000000000000e+00 -9.8999982716808805e+00 +1.1485925740964171e-02 -1.0319534785138249e+00 -5.9033479276181140e-02
-1.0000000000000000e+01 +9.1424633694165305e+00 +0.0000000000000000e+00 -9.9999982187767706e+00 +1.1485932370306286e-02 -1.0319520209971151e+00 -5.9034666551219181e-02
-1.0100000000000000e+01 +9.1423594729446602e+00 +0.0000000000000000e+00 -1.0099998164803900e+01 +1.1485940231470025e-02 -1.0319506016549349e+00 -5.9035823585334699e-02
-1.0199999999999999e+01 +9.1422545426793000e+00 +0.0000000000000000e+00 -1.0199998109751700e+01 +1.1485949482197003e-02 -1.0319492231130882e+00 -5.9036950466771008e-02
-1.0300000000000001e+01 +9.1421485786168795e+00 +0.0000000000000000e+00 -1.0299998053609301e+01 +1.1485960280583482e-02 -1.0319478879972790e+00 -5.9038047283746301e-02
-1.0400000000000000e+01 +9.1420415807609707e+00 +0.0000000000000000e+00 -1.0399997996366100e+01 +1.1485972785088880e-02 -1.0319465989330836e+00 -5.9039114124451127e-02
-1.0500000000000000e+01 +9.1419335491080194e+00 +0.0000000000000000e+00 -1.0499997938011500e+01 +1.1485987154545236e-02 -1.0319453585459886e+00 -5.9040151077049421e-02
-1.0600000000000000e+01 +9.1418244836597893e+00 +0.0000000000000000e+00 -1.0599997878534600e+01 +1.1486003548165825e-02 -1.0319441694613694e+00 -5.9041158229676413e-02
-1.0699999999999999e+01 +9.1417143844180693e+00 +0.0000000000000000e+00 -1.0699997817925000e+01 +1.1486022125554307e-02 -1.0319430343045060e+00 -5.9042135670438402e-02
-1.0800000000000001e+01 +9.1416032513792906e+00 +0.0000000000000000e+00 -1.0799997756171701e+01 +1.1486043046713919e-02 -1.0319419557006067e+00 -5.9043083487412766e-02
-1.0900000000000000e+01 +9.1414910845470292e+00 +0.0000000000000000e+00 -1.0899997693264300e+01 +1.1486066472056067e-02 -1.0319409362747756e+00 -5.9044001768645743e-02
-1.1000000000000000e+01 +9.1413778839177091e+00 +0.0000000000000000e+00 -1.0999997629191901e+01 +1.1486092562409789e-02 -1.0319399786520607e+00 -5.9044890602153365e-02
-1.1100000000000000e+01 +9.1412636494931299e+00 +0.0000000000000000e+00 -1.1099997563943900e+01 +1.1486121479030364e-02 -1.0319390854574260e+00 -5.9045750075919431e-02
-1.1199999999999999e+01 +9.1411483812750394e+00 +0.0000000000000000e+00 -1.1199997497509599e+01 +1.1486153383608505e-02 -1.0319382593157691e+00 -5.9046580277895291e-02
-1.1300000000000001e+01 +9.1410320792599205e+00 +0.0000000000000000e+00 -1.1299997429878401e+01 +1.1486188438279530e-02 -1.0319375028519420e+00 -5.9047381295999700e-02
-1.1400000000000000e+01 +9.1409147434512903e+00 +0.0000000000000000e+00 -1.1399997361039500e+01 +1.1486226805631983e-02 -1.0319368186907267e+00 -5.9048153218116912e-02
-1.1500000000000000e+01 +9.1407963738456193e+00 +0.0000000000000000e+00 -1.1499997290982201e+01 +1.1486268648717074e-02 -1.0319362094568718e+00 -5.9048896132097323e-02
-1.1600000000000000e+01 +9.1406769704464494e+00 +0.0000000000000000e+00 -1.1599997219695799e+01 +1.1486314013627180e-02 -1.0319356777751629e+00 -5.9049610179781546e-02
-1.1699999999999999e+01 +9.1405565332520098e+00 +0.0000000000000000e+00 -1.1699997147169800e+01 +1.1486362476879737e-02 -1.0319352262714923e+00 -5.9050295719111273e-02
