# trajectory
# s[mm] rx[mm] ry[mm] rz[mm] px[rad] py[rad] pz[rad]
0.0000000000000000e+00 +9.1312999999999995e+00 +0.0000000000000000e+00 +0.0000000000000000e+00 +0.0000000000000000e+00 +0.0000000000000000e+00 +1.0000000000000000e+00
-1.0000000000000001e-01 +9.1312994834574273e+00 +0.0000000000000000e+00 -9.9999999998221220e-02 +1.0330859315904223e-05 +0.0000000000000000e+00 +9.9999999994663669e-01
-2.0000000000000001e-01 +9.1312979338265521e+00 +0.0000000000000000e+00 -1.9999999998576973e-01 +2.0661766133363606e-05 +0.0000000000000000e+00 +9.9999999978654575e-01
-3.0000000000000004e-01 +9.1312953511026009e+00 +0.0000000000000000e+00 -2.9999999995197268e-01 +3.0992720903343122e-05 +0.0000000000000000e+00 +9.9999999951972562e-01
-4.0000000000000002e-01 +9.1312917352807581e+00 +0.0000000000000000e+00 -3.9999999988615714e-01 +4.1323724067711344e-05 +0.0000000000000000e+00 +9.9999999914617488e-01
-5.0000000000000000e-01 +9.1312870863561599e+00 +0.0000000000000000e+00 -4.9999999977764992e-01 +5.1654776059238658e-05 +0.0000000000000000e+00 +9.9999999866589206e-01
-5.9999999999999998e-01 +9.1312814043239037e+00 +0.0000000000000000e+00 -5.9999999961577777e-01 +6.1985877301594784e-05 +0.0000000000000000e+00 +9.9999999807887552e-01
-6.9999999999999996e-01 +9.1312746891790439e+00 +0.0000000000000000e+00 -6.9999999938986723e-01 +7.2317028209345550e-05 +0.0000000000000000e+00 +9.9999999738512368e-01
-7.9999999999999993e-01 +9.1312669409165927e+00 +0.0000000000000000e+00 -7.9999999908924468e-01 +8.2648229187948946e-05 +0.0000000000000000e+00 +9.9999999658463512e-01
-8.9999999999999991e-01 +9.1312581595315230e+00 +0.0000000000000000e+00 -8.9999999870323633e-01 +9.2979480633750415e-05 +0.0000000000000000e+00 +9.9999999567740805e-01
-9.9999999999999989e-01 +9.1312483450187703e+00 +0.0000000000000000e+00 -9.9999999822116825e-01 +1.0331078293397747e-04 +0.0000000000000000e+00 +9.9999999466344103e-01
-1.0999999999999999e+00 +9.1312374973732293e+00 +0.0000000000000000e+00 -1.0999999976323664e+00 +1.1364213646673354e-04 +0.0000000000000000e+00 +9.9999999354273239e-01
-1.2000000000000000e+00 +9.1312256165897576e+00 +0.0000000000000000e+00 -1.1999999969261566e+00 +1.2397354160099109e-04 +0.0000000000000000e+00 +9.9999999231528047e-01
-1.3000000000000000e+00 +9.1312127026631771e+00 +0.0000000000000000e+00 -1.2999999960918642e+00 +1.3430499869658403e-04 +0.0000000000000000e+00 +9.9999999098108361e-01
-1.4000000000000001e+00 +9.1311987555882741e+00 +0.0000000000000000e+00 -1.3999999951188149e+00 +1.4463650810419941e-04 +0.0000000000000000e+00 +9.9999998954014024e-01
-1.5000000000000002e+00 +9.1311837753598013e+00 +0.0000000000000000e+00 -1.4999999939963340e+00 +1.5496807016536829e-04 +0.0000000000000000e+00 +9.9999998799244860e-01
-1.6000000000000003e+00 +9.1311677619724758e+00 +0.0000000000000000e+00 -1.5999999927137463e+00 +1.6529968521368491e-04 +0.0000000000000000e+00 +9.9999998633800702e-01
-1.7000000000000004e+00 +9.1311507154209810e+00 +0.0000000000000000e+00 -1.6999999912603769e+00 +1.7563135358831489e-04 +0.0000000000000000e+00 +9.9999998457681383e-01
-1.8000000000000005e+00 +9.1311326356999682e+00 +0.0000000000000000e+00 -1.7999999896255505e+00 +1.8596307564750801e-04 +0.0000000000000000e+00 +9.9999998270886725e-01
-1.9000000000000006e+00 +9.1311135228040499e+00 +0.0000000000000000e+00 -1.8999999877985918e+00 +1.9629485176982548e-04 +0.0000000000000000e+00 +9.9999998073416552e-01
-2.0000000000000004e+00 +9.1310933767277991e+00 +0.0000000000000000e+00 -1.9999999857688251e+00 +2.0662668235413886e-04 +0.0000000000000000e+00 +9.9999997865270696e-01
-2.1000000000000005e+00 +9.1310721974657501e+00 +0.0000000000000000e+00 -2.0999999835255747e+00 +2.1695856781962997e-04 +0.0000000000000000e+00 +9.9999997646448979e-01
-2.2000000000000006e+00 +9.1310499850123925e+00 +0.0000000000000000e+00 -2.1999999810581645e+00 +2.2729050860579116e-04 +0.0000000000000000e+00 +9.9999997416951214e-01
-2.3000000000000007e+00 +9.1310267393621700e+00 +0.0000000000000000e+00 -2.2999999783559186e+00 +2.3762250517242648e-04 +0.0000000000000000e+00 +9.9999997176777222e-01
-2.4000000000000008e+00 +9.1310024605094817e+00 +0.0000000000000000e+00 -2.3999999754081602e+00 +2.4795455799965331e-04 +0.0000000000000000e+00 +9.9999996925926826e-01
-2.5000000000000009e+00 +9.1309771484486770e+00 +0.0000000000000000e+00 -2.4999999722042134e+00 +2.5828666758790481e-04 +0.0000000000000000e+00 +9.9999996664399826e-01
-2.6000000000000010e+00 +9.1309508031740538e+00 +0.0000000000000000e+00 -2.5999999687334010e+00 +2.6861883445793280e-04 +0.0000000000000000e+00 +9.9999996392196033e-01
-2.7000000000000011e+00 +9.1309234246798567e+00 +0.0000000000000000e+00 -2.6999999649850466e+00 +2.7895105915081168e-04 +0.0000000000000000e+00 +9.9999996109315259e-01
-2.8000000000000012e+00 +9.1308950129602771e+00 +0.0000000000000000e+00 -2.7999999609484725e+00 +2.8928334222794264e-04 +0.0000000000000000e+00 +9.9999995815757314e-01
-2.9000000000000012e+00 +9.1308655680094457e+00 +0.0000000000000000e+00 -2.8999999566130019e+00 +2.9961568427105869e-04 +0.0000000000000000e+00 +9.9999995511521989e-01
-3.0000000000000013e+00 +9.1308350898214368e+00 +0.0000000000000000e+00 -2.9999999519679572e+00 +3.0994808588223030e-04 +0.0000000000000000e+00 +9.9999995196609093e-01
-3.1000000000000014e+00 +9.1308035783902621e+00 +0.0000000000000000e+00 -3.0999999470026607e+00 +3.2028054768387177e-04 +0.0000000000000000e+00 +9.9999994871018416e-01
-3.2000000000000015e+00 +9.1307710337098715e+00 +0.0000000000000000e+00 -3.1999999417064346e+00 +3.3061307031874822e-04 +0.0000000000000000e+00 +9.9999994534749748e-01
-3.3000000000000016e+00 +9.1307374557741490e+00 +0.0000000000000000e+00 -3.2999999360686010e+00 +3.4094565444998319e-04 +0.0000000000000000e+00 +9.9999994187802876e-01
-3.4000000000000017e+00 +9.1307028445769092e+00 +0.0000000000000000e+00 -3.3999999300784811e+00 +3.5127830076106699e-04 +0.0000000000000000e+00 +9.9999993830177591e-01
-3.5000000000000018e+00 +9.1306672001119011e+00 +0.0000000000000000e+00 -3.4999999237253965e+00 +3.6161100995586563e-04 +0.0000000000000000e+00 +9.9999993461873671e-01
-3.6000000000000019e+00 +9.1306305223727993e+00 +0.0000000000000000e+00 -3.5999999169986685e+00 +3.7194378275441257e-04 +0.0000000000000000e+00 +9.9999993082890892e-01
-3.7000000000000020e+00 +9.1305928113532069e+00 +0.0000000000000000e+00 -3.6999999098876186e+00 +3.8227661984652184e-04 +0.0000000000000000e+00 +9.9999992693229034e-01
-3.8000000000000020e+00 +9.1305540670466652e+00 +0.0000000000000000e+00 -3.7999999023815669e+00 +3.9260952184539641e-04 +0.0000000000000000e+00 +9.9999992292887874e-01
-3.9000000000000021e+00 +9.1305142894466567e+00 +0.0000000000000000e+00 -3.8999998944698344e+00 +4.0294248928341233e-04 +0.0000000000000000e+00 +9.9999991881867190e-01
-4.0000000000000018e+00 +9.1304734785466124e+00 +0.0000000000000000e+00 -3.9999998861417412e+00 +4.1327552261212057e-04 +0.0000000000000000e+00 +9.9999991460166759e-01
-4.1000000000000014e+00 +9.1304316343399243e+00 +0.0000000000000000e+00 -4.0999998773866073e+00 +4.2360862220224888e-04 +0.0000000000000000e+00 +9.9999991027786361e-01
-4.2000000000000011e+00 +9.1303887568199524e+00 +0.0000000000000000e+00 -4.1999998681937534e+00 +4.3394178834370376e-04 +0.0000000000000000e+00 +9.9999990584725773e-01
-4.3000000000000007e+00 +9.1303448459800300e+00 +0.0000000000000000e+00 -4.2999998585524990e+00 +4.4427502124557230e-04 +0.0000000000000000e+00 +9.9999990130984784e-01
-4.4000000000000004e+00 +9.1302999018134745e+00 +0.0000000000000000e+00 -4.3999998484521630e+00 +4.5460832103612413e-04 +0.0000000000000000e+00 +9.9999989666563183e-01
-4.5000000000000000e+00 +9.1302539243135925e+00 +0.0000000000000000e+00 -4.4999998378820649e+00 +4.6494168776281341e-04 +0.0000000000000000e+00 +9.9999989191460759e-01
-4.5999999999999996e+00 +9.1302069134736925e+00 +0.0000000000000000e+00 -4.5999998268315236e+00 +4.7527512139228099e-04 +0.0000000000000000e+00 +9.9999988705677301e-01
-4.6999999999999993e+00 +9.1301588692870883e+00 +0.0000000000000000e+00 -4.6999998152898588e+00 +4.8560862181035625e-04 +0.0000000000000000e+00 +9.9999988209212620e-01
-4.7999999999999989e+00 +9.1301097917471115e+00 +0.0000000000000000e+00 -4.7999998032463882e+00 +4.9594218882205920e-04 +0.0000000000000000e+00 +9.9999987702066506e-01
-4.8999999999999986e+00 +9.1300596808471148e+00 +0.0000000000000000e+00 -4.8999997906904307e+00 +5.0627582215160259e-04 +0.0000000000000000e+00 +9.9999987184238770e-01
-4.9999999999999982e+00 +9.1300085365804833e+00 +0.0000000000000000e+00 -4.9999997776113050e+00 +5.1660952144239416e-04 +0.0000000000000000e+00 +9.9999986655729223e-01
-5.0999999999999979e+00 +9.1299563589406425e+00 +0.0000000000000000e+00 -5.0999997639983290e+00 +5.2694328625703846e-04 +0.0000000000000000e+00 +9.9999986116537687e-01
-5.1999999999999975e+00 +9.1299031479210644e+00 +0.0000000000000000e+00 -5.1999997498408197e+00 +5.3727711607733943e-04 +0.0000000000000000e+00 +9.9999985566663985e-01
-5.2999999999999972e+00 +9.1298489035152794e+00 +0.0000000000000000e+00 -5.2999997351280959e+00 +5.4761101030430226e-04 +0.0000000000000000e+00 +9.9999985006107950e-01
-5.3999999999999968e+00 +9.1297936257168786e+00 +0.0000000000000000e+00 -5.3999997198494745e+00 +5.5794496825813578e-04 +0.0000000000000000e+00 +9.9999984434869416e-01
-5.4999999999999964e+00 +9.1297373145195273e+00 +0.0000000000000000e+00 -5.4999997039942734e+00 +5.6827898917825458e-04 +0.0000000000000000e+00 +9.9999983852948227e-01
-5.5999999999999961e+00 +9.1296799699169711e+00 +0.0000000000000000e+00 -5.5999996875518097e+00 +5.7861307222617205e-04 +0.0000000000000000e+00 +9.9999983260344238e-01
-5.6999999999999957e+00 +9.1296215919030406e+00 +0.0000000000000000e+00 -5.6999996705114011e+00 +5.8894721651729914e-04 +0.0000000000000000e+00 +9.9999982657057307e-01
-5.7999999999999954e+00 +9.1295621804716554e+00 +0.0000000000000000e+00 -5.7999996528623639e+00 +5.9928142115274127e-04 +0.0000000000000000e+00 +9.9999982043087299e-01
-5.8999999999999950e+00 +9.1295017356168273e+00 +0.0000000000000000e+00 -5.8999996345940149e+00 +6.0961568522218703e-04 +0.0000000000000000e+00 +9.9999981418434092e-01
-5.9999999999999947e+00 +9.1294402573326590e+00 +0.0000000000000000e+00 -5.9999996156956712e+00 +6.1995000780390615e-04 +0.0000000000000000e+00 +9.9999980783097542e-01
-6.0999999999999943e+00 +9.1293777456133469e+00 +0.0000000000000000e+00 -6.0999995961566489e+00 +6.3028438796474719e-04 +0.0000000000000000e+00 +9.9999980137077538e-01
-6.1999999999999940e+00 +9.1293142004531784e+00 +0.0000000000000000e+00 -6.1999995759662649e+00 +6.4061882476013543e-04 +0.0000000000000000e+00 +9.9999979480373957e-01
-6.2999999999999936e+00 +9.1292496218465384e+00 +0.0000000000000000e+00 -6.2999995551138355e+00 +6.5095331723406986e-04 +0.0000000000000000e+00 +9.9999978812986690e-01
-6.3999999999999932e+00 +9.1291840097879078e+00 +0.0000000000000000e+00 -6.3999995335886766e+00 +6.6128786441912090e-04 +0.0000000000000000e+00 +9.9999978134915624e-01
-6.4999999999999929e+00 +9.1291173642718633e+00 +0.0000000000000000e+00 -6.4999995113801052e+00 +6.7162246533642746e-04 +0.0000000000000000e+00 +9.9999977446160659e-01
-6.5999999999999925e+00 +9.1290496852930811e+00 +0.0000000000000000e+00 -6.5999994884774367e+00 +6.8195711899569369e-04 +0.0000000000000000e+00 +9.9999976746721686e-01
-6.6999999999999922e+00 +9.1289809728463389e+00 +0.0000000000000000e+00 -6.6999994648699870e+00 +6.9229182439518627e-04 +0.0000000000000000e+00 +9.9999976036598615e-01
-6.7999999999999918e+00 +9.1289112269265118e+00 +0.0000000000000000e+00 -6.7999994405470723e+00 +7.0262658052173065e-04 +0.0000000000000000e+00 +9.9999975315791367e-01
-6.8999999999999915e+00 +9.1288404475285780e+00 +0.0000000000000000e+00 -6.8999994154980087e+00 +7.1296138635070806e-04 +0.0000000000000000e+00 +9.9999974584299844e-01
-6.9999999999999911e+00 +9.1287686346476189e+00 +0.0000000000000000e+00 -6.9999993897121113e+00 +7.2329624084605144e-04 +0.0000000000000000e+00 +9.9999973842123968e-01
-7.0999999999999908e+00 +9.1286957882788204e+00 +0.0000000000000000e+00 -7.0999993631786955e+00 +7.3363114296024195e-04 +0.0000000000000000e+00 +9.9999973089263672e-01
-7.1999999999999904e+00 +9.1286219084174736e+00 +0.0000000000000000e+00 -7.1999993358870773e+00 +7.4396609163430506e-04 +0.0000000000000000e+00 +9.9999972325718889e-01
-7.2999999999999901e+00 +9.1285469950589757e+00 +0.0000000000000000e+00 -7.2999993078265719e+00 +7.5430108579780655e-04 +0.0000000000000000e+00 +9.9999971551489542e-01
-7.3999999999999897e+00 +9.1284710481988327e+00 +0.0000000000000000e+00 -7.3999992789864946e+00 +7.6463612436884797e-04 +0.0000000000000000e+00 +9.9999970766575585e-01
-7.4999999999999893e+00 +9.1283940678326587e+00 +0.0000000000000000e+00 -7.4999992493561614e+00 +7.7497120625406282e-04 +0.0000000000000000e+00 +9.9999969970976954e-01
-7.5999999999999890e+00 +9.1283160539561763e+00 +0.0000000000000000e+00 -7.5999992189248866e+00 +7.8530633035136437e-04 +0.0000000000000000e+00 +9.9999969164693614e-01
-7.6999999999999886e+00 +9.1282370065652181e+00 +0.0000000000000000e+00 -7.6999991876819864e+00 +7.9564149558022533e-04 +0.0000000000000000e+00 +9.9999968347725510e-01
-7.7999999999999883e+00 +9.1281569256557233e+00 +0.0000000000000000e+00 -7.7999991556167760e+00 +8.0597670091196348e-04 +0.0000000000000000e+00 +9.9999967520072597e-01
-7.8999999999999879e+00 +9.1280758112237308e+00 +0.0000000000000000e+00 -7.8999991227185697e+00 +8.1631194537250035e-04 +0.0000000000000000e+00 +9.9999966681734831e-01
-7.9999999999999876e+00 +9.1279936632653751e+00 +0.0000000000000000e+00 -7.9999990889766837e+00 +8.2664722804236767e-04 +0.0000000000000000e+00 +9.9999965832712168e-01
-8.0999999999999872e+00 +9.1279104817768779e+00 +0.0000000000000000e+00 -8.0999990543804330e+00 +8.3698254805671362e-04 +0.0000000000000000e+00 +9.9999964973004563e-01
-8.1999999999999869e+00 +9.1278262667545462e+00 +0.0000000000000000e+00 -8.1999990189191312e+00 +8.4731790460530949e-04 +0.0000000000000000e+00 +9.9999964102611971e-01
-8.2999999999999865e+00 +9.1277410181947651e+00 +0.0000000000000000e+00 -8.2999989825820943e+00 +8.5765329693255623e-04 +0.0000000000000000e+00 +9.9999963221534338e-01
-8.3999999999999861e+00 +9.1276547360939908e+00 +0.0000000000000000e+00 -8.3999989453586377e+00 +8.6798872433749188e-04 +0.0000000000000000e+00 +9.9999962329771619e-01
-8.4999999999999858e+00 +9.1275674204487505e+00 +0.0000000000000000e+00 -8.4999989072380764e+00 +8.7832418617379826e-04 +0.0000000000000000e+00 +9.9999961427323758e-01
-8.5999999999999854e+00 +9.1274790712556282e+00 +0.0000000000000000e+00 -8.5999988682097239e+00 +8.8865968184980869e-04 +0.0000000000000000e+00 +9.9999960514190700e-01
-8.6999999999999851e+00 +9.1273896885112702e+00 +0.0000000000000000e+00 -8.6999988282628955e+00 +8.9899521082851543e-04 +0.0000000000000000e+00 +9.9999959590372378e-01
-8.7999999999999847e+00 +9.1272992722123689e+00 +0.0000000000000000e+00 -8.7999987873869063e+00 +9.0933077262757745e-04 +0.0000000000000000e+00 +9.9999958655868748e-01
-8.8999999999999844e+00 +9.1272078223556647e+00 +0.0000000000000000e+00 -8.8999987455710716e+00 +9.1966636681932836e-04 +0.0000000000000000e+00 +9.9999957710679743e-01
-8.9999999999999840e+00 +9.1271153389379371e+00 +0.0000000000000000e+00 -8.9999987028047048e+00 +9.3000199303078441e-04 +0.0000000000000000e+00 +9.9999956754805297e-01
-9.0999999999999837e+00 +9.1270218219560011e+00 +0.0000000000000000e+00 -9.0999986590771211e+00 +9.4033765094365322e-04 +0.0000000000000000e+00 +9.9999955788245343e-01
-9.1999999999999833e+00 +9.1269272714067000e+00 +0.0000000000000000e+00 -9.1999986143776340e+00 +9.5067334029434183e-04 +0.0000000000000000e+00 +9.9999954810999803e-01
-9.2999999999999829e+00 +9.1268316872869004e+00 +0.0000000000000000e+00 -9.2999985686955586e+00 +9.6100906087396578e-04 +0.0000000000000000e+00 +9.9999953823068599e-01
-9.3999999999999826e+00 +9.1267350695934883e+00 +0.0000000000000000e+00 -9.3999985220202085e+00 +9.7134481252835793e-04 +0.0000000000000000e+00 +9.9999952824451643e-01
-9.4999999999999822e+00 +9.1266374183233623e+00 +0.0000000000000000e+00 -9.4999984743408987e+00 +9.8168059515807730e-04 +0.0000000000000000e+00 +9.9999951815148858e-01
-9.5999999999999819e+00 +9.1265387334734260e+00 +0.0000000000000000e+00 -9.5999984256469446e+00 +9.9201640871492114e-04 +0.0000000000000000e+00 +9.9999950795160153e-01
-9.6999999999999815e+00 +9.1264390150405887e+00 +0.0000000000000000e+00 -9.6999983759276578e+00 +1.0023522531634520e-03 +0.0000000000000000e+00 +9.9999949764485430e-01
-9.7999999999999812e+00 +9.1263382630217649e+00 +0.0000000000000000e+00 -9.7999983251723535e+00 +1.0126881284425102e-03 +0.0000000000000000e+00 +9.9999948723124599e-01
-9.8999999999999808e+00 +9.1262364774138760e+00 +0.0000000000000000e+00 -9.8999982733703451e+00 +1.0230240344616995e-03 +0.0000000000000000e+00 +9.9999947671077571e-01
-9.9999999999999805e+00 +9.1261336582138526e+00 +0.0000000000000000e+00 -9.9999982205109461e+00 +1.0333599711013694e-03 +0.0000000000000000e+00 +9.9999946608344270e-01
-1.0099999999999980e+01 +9.1260298054186393e+00 +0.0000000000000000e+00 -1.0099998166583472e+01 +1.0436959382125978e-03 +0.0000000000000000e+00 +9.9999945534924617e-01
-1.0199999999999980e+01 +9.1259249190251985e+00 +0.0000000000000000e+00 -1.0199998111577234e+01 +1.0540319356171727e-03 +0.0000000000000000e+00 +9.9999944450818523e-01
-1.0299999999999979e+01 +9.1258189990305123e+00 +0.0000000000000000e+00 -1.0299998055481547e+01 +1.0643679631075738e-03 +0.0000000000000000e+00 +9.9999943356025933e-01
-1.0399999999999979e+01 +9.1257120454315821e+00 +0.0000000000000000e+00 -1.0399997998285723e+01 +1.0747040204469533e-03 +0.0000000000000000e+00 +9.9999942250546769e-01
-1.0499999999999979e+01 +9.1256040582254361e+00 +0.0000000000000000e+00 -1.0499997939979078e+01 +1.0850401073691160e-03 +0.0000000000000000e+00 +9.9999941134380965e-01
-1.0599999999999978e+01 +9.1254950374091308e+00 +0.0000000000000000e+00 -1.0599997880550923e+01 +1.0953762235784994e-03 +0.0000000000000000e+00 +9.9999940007528465e-01
-1.0699999999999978e+01 +9.1253849829797549e+00 +0.0000000000000000e+00 -1.0699997819990573e+01 +1.1057123687501533e-03 +0.0000000000000000e+00 +9.9999938869989213e-01
-1.0799999999999978e+01 +9.1252738949344270e+00 +0.0000000000000000e+00 -1.0799997758287340e+01 +1.1160485425297185e-03 +0.0000000000000000e+00 +9.9999937721763166e-01
-1.0899999999999977e+01 +9.1251617732703068e+00 +0.0000000000000000e+00 -1.0899997695430537e+01 +1.1263847445334059e-03 +0.0000000000000000e+00 +9.9999936562850267e-01
-1.0999999999999977e+01 +9.1250486179845929e+00 +0.0000000000000000e+00 -1.0999997631409478e+01 +1.1367209743479733e-03 +0.0000000000000000e+00 +9.9999935393250483e-01
-1.1099999999999977e+01 +9.1249344290745249e+00 +0.0000000000000000e+00 -1.1099997566213476e+01 +1.1470572315307041e-03 +0.0000000000000000e+00 +9.9999934212963770e-01
-1.1199999999999976e+01 +9.1248192065373903e+00 +0.0000000000000000e+00 -1.1199997499831843e+01 +1.1573935156093836e-03 +0.0000000000000000e+00 +9.9999933021990106e-01
-1.1299999999999976e+01 +9.1247029503705228e+00 +0.0000000000000000e+00 -1.1299997432253894e+01 +1.1677298260822761e-03 +0.0000000000000000e+00 +9.9999931820329457e-01
-1.1399999999999975e+01 +9.1245856605713112e+00 +0.0000000000000000e+00 -1.1399997363468941e+01 +1.1780661624181004e-03 +0.0000000000000000e+00 +9.9999930607981813e-01
-1.1499999999999975e+01 +9.1244673371371956e+00 +0.0000000000000000e+00 -1.1499997293466297e+01 +1.1884025240560061e-03 +0.0000000000000000e+00 +9.9999929384947150e-01
-1.1599999999999975e+01 +9.1243479800656750e+00 +0.0000000000000000e+00 -1.1599997222235274e+01 +1.1987389104047904e-03 +0.0000000000000000e+00 +9.9999928151225470e-01
-1.1699999999999974e+01 +9.1242275893543106e+00 +0.0000000000000000e+00 -1.1699997149765185e+01 +1.2090753208345445e-03 +0.0000000000000000e+00 +9.9999926906816761e-01
