# multipoles
# s[mm] polynom_b[n=0][T/m^n] polynom_b[n=1][T/m^n] polynom_b[n=2][T/m^n] polynom_b[n=3][T/m^n] polynom_b[n=4][T/m^n] polynom_b[n=5][T/m^n] polynom_b[n=6][T/m^n] 
+0.0000000000000000e+00 -1.0155034779050292e+00 +2.2412048369435160e+00 +2.2673468413540707e+01 +1.6741012145599763e+02 -4.7062542206416729e+04 -1.0782966704755997e+05 +2.1984846382826748e+08 
+1.0000000000000001e-01 -1.0155027975119921e+00 +2.2411761204923630e+00 +2.2681459206690942e+01 +1.6838350794832954e+02 -4.7232915797672082e+04 -1.1338526373425851e+05 +2.2060930615861776e+08 
+2.0000000000000001e-01 -1.0155020888177897e+00 +2.2411453974228124e+00 +2.2687215023572179e+01 +1.6935675295518831e+02 -4.7372904403396271e+04 -1.1869051956121458e+05 +2.2125504658815083e+08 
+3.0000000000000004e-01 -1.0155013533786232e+00 +2.2411128945546741e+00 +2.2690878430135598e+01 +1.7032628097919081e+02 -4.7484180183928715e+04 -1.2373874319389826e+05 +2.2179134310882202e+08 
+4.0000000000000002e-01 -1.0155005927506560e+00 +2.2410788387275895e+00 +2.2692591988619061e+01 +1.7128851603544501e+02 -4.7568415244107884e+04 -1.2852324084244708e+05 +2.2222385347833943e+08 
+5.0000000000000000e-01 -1.0154998084901017e+00 +2.2410434567978390e+00 +2.2692498270827247e+01 +1.7223988171409516e+02 -4.7627281904702948e+04 -1.3303731651506800e+05 +2.2255823657084572e+08 
+5.9999999999999998e-01 -1.0154990021531884e+00 +2.2410069756336024e+00 +2.2690739852586365e+01 +1.7317680132515210e+02 -4.7662452587334119e+04 -1.3727427287890407e+05 +2.2280015180321863e+08 
+6.9999999999999996e-01 -1.0154981752961472e+00 +2.2409696221126545e+00 +2.2687459311483973e+01 +1.7409569791537916e+02 -4.7675599765615996e+04 -1.4122741118321809e+05 +2.2295525889117315e+08 
+7.9999999999999993e-01 -1.0154973294752607e+00 +2.2409316231219694e+00 +2.2682799233965621e+01 +1.7499299427820145e+02 -4.7668396106629079e+04 -1.4489003130417498e+05 +2.2302921854451177e+08 
+8.9999999999999991e-01 -1.0154964662467973e+00 +2.2408932055566195e+00 +2.2676902205949546e+01 +1.7586511294919248e+02 -4.7642514283634810e+04 -1.4825543159349984e+05 +2.2302769155224466e+08 
+9.9999999999999989e-01 -1.0154955871670890e+00 +2.2408545963115007e+00 +2.2669910822972859e+01 +1.7670847644007458e+02 -4.7599627173256471e+04 -1.5131691021022413e+05 +2.2295633973931044e+08 
+1.0999999999999999e+00 -1.0154946937924627e+00 +2.2408160222784157e+00 +2.2661967681328544e+01 +1.7751950729772133e+02 -4.7541407681956371e+04 -1.5406776536688543e+05 +2.2282082512872484e+08 
+1.2000000000000000e+00 -1.0154937876792949e+00 +2.2407777103546014e+00 +2.2653215384075477e+01 +1.7829462783428923e+02 -4.7469528856613768e+04 -1.5650129368302933e+05 +2.2262681046100575e+08 
+1.3000000000000000e+00 -1.0154928703840225e+00 +2.2407398874252378e+00 +2.2643796543587285e+01 +1.7903026061044676e+02 -4.7385663938523699e+04 -1.5861079290933866e+05 +2.2237995946867034e+08 
+1.4000000000000001e+00 -1.0154919434630654e+00 +2.2407027803732023e+00 +2.2633853770086308e+01 +1.7972282813825541e+02 -4.7291486135351261e+04 -1.6038956014037397e+05 +2.2208593577067792e+08 
+1.5000000000000002e+00 -1.0154910084729352e+00 +2.2406666160683466e+00 +2.2623529686274310e+01 +1.8036875316791847e+02 -4.7188668901808807e+04 -1.6183089339653979e+05 +2.2175040421265200e+08 
+1.6000000000000003e+00 -1.0154900669701339e+00 +2.2406316213698148e+00 +2.2612966913920943e+01 +1.8096445859698605e+02 -4.7078885683932116e+04 -1.6292809101396921e+05 +2.2137902965596208e+08 
+1.7000000000000004e+00 -1.0154891205112750e+00 +2.2405980231191549e+00 +2.2602308088995553e+01 +1.8150636766013196e+02 -4.6963810204161702e+04 -1.6367445269687445e+05 +2.2097747832906538e+08 
+1.8000000000000005e+00 -1.0154881706529477e+00 +2.2405660481430170e+00 +2.2591695844277869e+01 +1.8199090382171866e+02 -4.6845116125167478e+04 -1.6406327880047812e+05 +2.2055141621400058e+08 
+1.9000000000000006e+00 -1.0154872189518114e+00 +2.2405359232454152e+00 +2.2581272821602660e+01 +1.8241449097648479e+02 -4.6724477288685601e+04 -1.6408787140575272e+05 +2.2010651020531586e+08 
+2.0000000000000004e+00 -1.0154862669646110e+00 +2.2405078752114242e+00 +2.2571181672872733e+01 +1.8277355331845641e+02 -4.6603567727920679e+04 -1.6374153348011171e+05 +2.1964842815354830e+08 
+2.1000000000000005e+00 -1.0154853159659034e+00 +2.2404820991903596e+00 +2.2561542200416703e+01 +1.8306512004709981e+02 -4.6483835498781475e+04 -1.6302013529216027e+05 +2.1918223709637836e+08 
+2.2000000000000006e+00 -1.0154843660647301e+00 +2.2404586611195647e+00 +2.2552378390256372e+01 +1.8328895537714689e+02 -4.6365735245450516e+04 -1.6193178377361962e+05 +2.1871014849320656e+08 
+2.3000000000000007e+00 -1.0154834170695684e+00 +2.2404375940523940e+00 +2.2543689171770200e+01 +1.8344558264957055e+02 -4.6249451284293595e+04 -1.6048811327808729e+05 +2.1823354934694451e+08 
+2.4000000000000008e+00 -1.0154824687888049e+00 +2.2404189310423805e+00 +2.2535473460105969e+01 +1.8353552511893122e+02 -4.6135167621902583e+04 -1.5870075738747235e+05 +2.1775382506205109e+08 
+2.5000000000000009e+00 -1.0154815210308792e+00 +2.2404027051402813e+00 +2.2527730175117004e+01 +1.8355930602094747e+02 -4.6023068325703774e+04 -1.5658134928144224e+05 +2.1727236123733607e+08 
+2.6000000000000010e+00 -1.0154805736041983e+00 +2.2403889493954625e+00 +2.2520458230188208e+01 +1.8351744855382788e+02 -4.5913337298508668e+04 -1.5414152168556504e+05 +2.1679054254961532e+08 
+2.7000000000000011e+00 -1.0154796263171777e+00 +2.2403776968572737e+00 +2.2513656536809204e+01 +1.8341047583667728e+02 -4.5806158363556104e+04 -1.5139290662575507e+05 +2.1630975315145019e+08 
+2.8000000000000012e+00 -1.0154786789782348e+00 +2.2403689805738480e+00 +2.2507324004081362e+01 +1.8323891093033424e+02 -4.5701715255019255e+04 -1.4834713551699842e+05 +2.1583137662224105e+08 
+2.9000000000000012e+00 -1.0154777313957517e+00 +2.2403628335935726e+00 +2.2501459532703773e+01 +1.8300327682543499e+02 -4.5600191490979916e+04 -1.4501583918029626e+05 +2.1535679532249963e+08 
+3.0000000000000013e+00 -1.0154767833780887e+00 +2.2403592889671380e+00 +2.2496062017404185e+01 +1.8270409636421576e+02 -4.5501770422010530e+04 -1.4141064734144794e+05 +2.1488739063159475e+08 
+3.1000000000000014e+00 -1.0154758347336044e+00 +2.2403583797432312e+00 +2.2491130349219425e+01 +1.8234189237392707e+02 -4.5406635272333449e+04 -1.3754318942435243e+05 +2.1442454313003638e+08 
+3.2000000000000015e+00 -1.0154748852706426e+00 +2.2403601389740517e+00 +2.2486663412255439e+01 +1.8191718752128261e+02 -4.5314969063497687e+04 -1.3342509376005695e+05 +2.1396963219418988e+08 
+3.3000000000000016e+00 -1.0154739347974708e+00 +2.2403645997123180e+00 +2.2482660077549699e+01 +1.8143050438116984e+02 -4.5226954505813315e+04 -1.2906798792882473e+05 +2.1352403549669334e+08 
+3.4000000000000017e+00 -1.0154729831223848e+00 +2.2403717950173756e+00 +2.2479119215051963e+01 +1.8088236527088372e+02 -4.5142774218121580e+04 -1.2448349783245714e+05 +2.1308913002792972e+08 
+3.5000000000000018e+00 -1.0154720300535895e+00 +2.2403817579480880e+00 +2.2476039676961499e+01 +1.8027329246656737e+02 -4.5062610394349009e+04 -1.1968324898673328e+05 +2.1266629045860168e+08 
+3.6000000000000019e+00 -1.0154710753993235e+00 +2.2403945215674459e+00 +2.2473420316482564e+01 +1.7960380806640686e+02 -4.4986645181810592e+04 -1.1467886571851926e+05 +2.1225689099523211e+08 
+3.7000000000000020e+00 -1.0154701189677151e+00 +2.2404101189418877e+00 +2.2471259966399085e+01 +1.7887443401465657e+02 -4.4915060245404959e+04 -1.0948197132178022e+05 +2.1186230322649151e+08 
+3.8000000000000020e+00 -1.0154691605668800e+00 +2.2404285831467856e+00 +2.2469557452066663e+01 +1.7808569193412697e+02 -4.4848037021407596e+04 -1.0410418705507980e+05 +2.1148389734366962e+08 
+3.9000000000000021e+00 -1.0154682000049042e+00 +2.2404499472570789e+00 +2.2468311589437310e+01 +1.7723810342032596e+02 -4.4785756674155928e+04 -9.8557133927982533e+04 +2.1112304191503865e+08 
+4.0000000000000018e+00 -1.0154672370897675e+00 +2.2404742443542403e+00 +2.2467521174904697e+01 +1.7633218982555991e+02 -4.4728399900399338e+04 -9.2852431389258010e+04 +2.1078110294575053e+08 
+4.1000000000000014e+00 -1.0154662715609026e+00 +2.2405014467096707e+00 +2.2467173789150479e+01 +1.7536932236561495e+02 -4.4675954302645048e+04 -8.7002969037534553e+04 +2.1045851710659185e+08 
+4.2000000000000011e+00 -1.0154653029905847e+00 +2.2405312900970533e+00 +2.2467230324131094e+01 +1.7435413508350049e+02 -4.4627984568418738e+04 -8.1025469305610604e+04 +2.1015358514350608e+08 
+4.3000000000000007e+00 -1.0154643309358655e+00 +2.2405634519385407e+00 +2.2467649498526924e+01 +1.7329206453171201e+02 -4.4584036081580525e+04 -7.4937379719662262e+04 +2.0986446244320399e+08 
+4.4000000000000004e+00 -1.0154633549537648e+00 +2.2405976096561977e+00 +2.2468390029247161e+01 +1.7218854735691448e+02 -4.4543654209579101e+04 -6.8756148292255253e+04 +2.0958930432895920e+08 
+4.5000000000000000e+00 -1.0154623746012432e+00 +2.2406334406804151e+00 +2.2469410629532259e+01 +1.7104902007889996e+02 -4.4506384275943892e+04 -6.2499222423516163e+04 +2.0932626596115592e+08 
+4.5999999999999996e+00 -1.0154613894352271e+00 +2.2406706224538819e+00 +2.2470670012208192e+01 +1.6987891897644226e+02 -4.4471771625915178e+04 -5.6184048238817777e+04 +2.0907350266079703e+08 
+4.6999999999999993e+00 -1.0154603990125757e+00 +2.2407088324240583e+00 +2.2472126885419698e+01 +1.6868368032794376e+02 -4.4439361547082473e+04 -4.9828072034353383e+04 +2.0882916953952906e+08 
+4.7999999999999989e+00 -1.0154594028901309e+00 +2.2407477480459623e+00 +2.2473739959165155e+01 +1.6746874031942275e+02 -4.4408699395034026e+04 -4.3448739696842997e+04 +2.0859142209894127e+08 
+4.8999999999999986e+00 -1.0154584006245975e+00 +2.2407870467893640e+00 +2.2475467931088911e+01 +1.6623953487399820e+02 -4.4379330329349381e+04 -3.7063495827279054e+04 +2.0835841498962301e+08 
+4.9999999999999982e+00 -1.0154573917727019e+00 +2.2408264061307070e+00 +2.2477269506151231e+01 +1.6500149987382301e+02 -4.4350799689240477e+04 -3.0689784964869181e+04 +2.0812830380754375e+08 
+5.0999999999999979e+00 -1.0154563758910762e+00 +2.2408655035587826e+00 +2.2479103383019854e+01 +1.6376007102107042e+02 -4.4322652742453392e+04 -2.4345050861054551e+04 +2.0789924391639486e+08 
+5.1999999999999975e+00 -1.0154553525362797e+00 +2.2409040165709291e+00 +2.2480928256461226e+01 +1.6252068394551847e+02 -4.4294434727170999e+04 -1.8046737071683234e+04 +2.0766939063815856e+08 
+5.2999999999999972e+00 -1.0154543212648359e+00 +2.2409416226771293e+00 +2.2482702822285976e+01 +1.6128877411191240e+02 -4.4265690951962963e+04 -1.1812286497000541e+04 +2.0743689974538127e+08 
+5.3999999999999968e+00 -1.0154532816331436e+00 +2.2409779994016823e+00 +2.2484385767060939e+01 +1.6006977676291083e+02 -4.4235966607010785e+04 -5.6591410038607492e+03 +2.0719992658299434e+08 
+5.4999999999999964e+00 -1.0154522331975964e+00 +2.2410128242762952e+00 +2.2485935783176934e+01 +1.5886912714387236e+02 -4.4204807051153948e+04 +3.9525719476371023e+02 +2.0695662743160897e+08 
+5.5999999999999961e+00 -1.0154511755144779e+00 +2.2410457748489052e+00 +2.2487311555851612e+01 +1.5769226025874872e+02 -4.4171757568489258e+04 +6.3334669514033640e+03 +2.0670515836364841e+08 
+5.6999999999999957e+00 -1.0154501081400009e+00 +2.2410765286824845e+00 +2.2488471768082302e+01 +1.5654461089575986e+02 -4.4136363462820176e+04 +1.2138048055410167e+04 +2.0644367569216943e+08 
+5.7999999999999954e+00 -1.0154490306303181e+00 +2.2411047633495480e+00 +2.2489375102885045e+01 +1.5543161382394004e+02 -4.4098170108871025e+04 +1.7791560000480018e+04 +2.0617033623734218e+08 
+5.8999999999999950e+00 -1.0154479425414686e+00 +2.2411301564415704e+00 +2.2489980236895121e+01 +1.5435870350471077e+02 -4.4056722832898471e+04 +2.3276563720351773e+04 +2.0588329676615539e+08 
+5.9999999999999947e+00 -1.0154468434294515e+00 +2.2411523855622248e+00 +2.2490245849664706e+01 +1.5333131435434953e+02 -4.4011567085008879e+04 +2.8575620104145408e+04 +2.0558071481409618e+08 
+6.0999999999999943e+00 -1.0154457329593889e+00 +2.2411711999492323e+00 +2.2490141746091194e+01 +1.5235416794509635e+02 -4.3962403947366853e+04 +3.3672257655939793e+04 +2.0526146650239176e+08 
+6.1999999999999940e+00 -1.0154446111908322e+00 +2.2411866306073418e+00 +2.2489670953805074e+01 +1.5142917238822170e+02 -4.3909382555714263e+04 +3.8552525139874866e+04 +2.0492663960660699e+08 
+6.2999999999999936e+00 -1.0154434782720403e+00 +2.2411987783789367e+00 +2.2488842095530945e+01 +1.5055754589670687e+02 -4.3852722606963544e+04 +4.3202675533923575e+04 +2.0457772593334553e+08 
+6.3999999999999932e+00 -1.0154423343512877e+00 +2.2412077441086447e+00 +2.2487663795092327e+01 +1.4974050680523760e+02 -4.3792643867322258e+04 +4.7608959700745087e+04 +2.0421621792288268e+08 
+6.4999999999999929e+00 -1.0154411795769196e+00 +2.2412136286419058e+00 +2.2486144683681690e+01 +1.4897927355387526e+02 -4.3729366280912262e+04 +5.1757626939805516e+04 +2.0384360910674089e+08 
+6.5999999999999925e+00 -1.0154400140972815e+00 +2.2412165328241098e+00 +2.2484293390991898e+01 +1.4827506471650190e+02 -4.3663109802096151e+04 +5.5634924773950661e+04 +2.0346139331859571e+08 
+6.6999999999999922e+00 -1.0154388380608019e+00 +2.2412165575044143e+00 +2.2482118555913747e+01 +1.4762909888802821e+02 -4.3594094606659717e+04 +5.9227099602981762e+04 +2.0307106572897801e+08 
+6.7999999999999918e+00 -1.0154376516158892e+00 +2.2412138035285487e+00 +2.2479628813234928e+01 +1.4704259488932544e+02 -4.3522540832962193e+04 +6.2520395477355436e+04 +2.0267412159835389e+08 
+6.8999999999999915e+00 -1.0154364549110333e+00 +2.2412083717435198e+00 +2.2476832806035222e+01 +1.4651677165098806e+02 -4.3448668822552507e+04 +6.5501054700365537e+04 +2.0227205744737101e+08 
+6.9999999999999911e+00 -1.0154352480947615e+00 +2.2412003630003459e+00 +2.2473739180540871e+01 +1.4605284813145974e+02 -4.3372699023167770e+04 +6.8155318283872446e+04 +2.0186637059857106e+08 
+7.0999999999999908e+00 -1.0154340313156371e+00 +2.2411898781476229e+00 +2.2470356585362314e+01 +1.4565204349706929e+02 -4.3294851974553800e+04 +7.0469424890317649e+04 +2.0145855912056074e+08 
+7.1999999999999904e+00 -1.0154328047223125e+00 +2.2411770180327397e+00 +2.2466693678917533e+01 +1.4531557709849554e+02 -4.3215348456436244e+04 +7.2429610907631795e+04 +2.0105012255311140e+08 
+7.2999999999999901e+00 -1.0154315684634312e+00 +2.2411618835064138e+00 +2.2462759115859754e+01 +1.4504466834910596e+02 -4.3134409222022834e+04 +7.4022111109496283e+04 +2.0064256062428737e+08 
+7.3999999999999897e+00 -1.0154303226877432e+00 +2.2411445754154160e+00 +2.2458561562251599e+01 +1.4484053691968501e+02 -4.3052255296598116e+04 +7.5233157534671162e+04 +2.0023737470430034e+08 
+7.4999999999999893e+00 -1.0154290675440447e+00 +2.2411251946099608e+00 +2.2454109687758830e+01 +1.4470440255338877e+02 -4.2969107827652544e+04 +7.6048980456997451e+04 +1.9983606709525147e+08 
+7.5999999999999890e+00 -1.0154278031811590e+00 +2.2411038419407201e+00 +2.2449412163156339e+01 +1.4463748512195878e+02 -4.2885188035053463e+04 +7.6455808115731314e+04 +1.9944014078947580e+08 
+7.6999999999999886e+00 -1.0154265297479954e+00 +2.2410806182531018e+00 +2.2444477667451284e+01 +1.4464100483537081e+02 -4.2800717356024899e+04 +7.6439865347925748e+04 +1.9905110019993326e+08 
+7.7999999999999883e+00 -1.0154252473935383e+00 +2.2410556243947672e+00 +2.2439314886942029e+01 +1.4471618198907211e+02 -4.2715917422604580e+04 +7.5987375125948703e+04 +1.9867045103726852e+08 
+7.8999999999999879e+00 -1.0154239562668461e+00 +2.2410289612144370e+00 +2.2433932514066488e+01 +1.4486423702653261e+02 -4.2631010040316643e+04 +7.5084558092829451e+04 +1.9829970022135958e+08 
+7.9999999999999876e+00 -1.0154226565170283e+00 +2.2410007295661947e+00 +2.2428339246269964e+01 +1.4508639030058319e+02 -4.2546217196159116e+04 +7.3717633676385958e+04 +1.9794035597006983e+08 
+8.0999999999999872e+00 -1.0154213485004187e+00 +2.2409710235637297e+00 +2.2422548143805408e+01 +1.4538317068130019e+02 -4.2461800311864863e+04 +7.1878360292820566e+04 +1.9759394650501996e+08 
+8.1999999999999869e+00 -1.0154200333268131e+00 +2.2409399351813390e+00 +2.2416579401413752e+01 +1.4575172297950502e+02 -4.2377886282761378e+04 +6.9585507031712143e+04 +1.9726040022048748e+08 
+8.2999999999999865e+00 -1.0154187122755245e+00 +2.2409075643097123e+00 +2.2410452243127281e+01 +1.4618808939294169e+02 -4.2294490478268788e+04 +6.6866491446917818e+04 +1.9693878941235709e+08 
+8.3999999999999861e+00 -1.0154173866259353e+00 +2.2408740108436973e+00 +2.2404185900048990e+01 +1.4668831155264328e+02 -4.2211628354916320e+04 +6.3748736733444544e+04 +1.9662818650624013e+08 
+8.4999999999999858e+00 -1.0154160576574187e+00 +2.2408393746521327e+00 +2.2397799601511807e+01 +1.4724843164385584e+02 -4.2129315321712966e+04 +6.0259664016684605e+04 +1.9632766357552952e+08 
+8.5999999999999854e+00 -1.0154147266494402e+00 +2.2408037555897060e+00 +2.2391312588934785e+01 +1.4786449204529941e+02 -4.2047567011774277e+04 +5.6426694523548511e+04 +1.9603629365485600e+08 
+8.6999999999999851e+00 -1.0154133948814776e+00 +2.2407672534864336e+00 +2.2384744105156713e+01 +1.4853253563862816e+02 -4.1966399069132618e+04 +5.2277247787045235e+04 +1.9575314968803200e+08 
+8.7999999999999847e+00 -1.0154120636330433e+00 +2.2407299681508652e+00 +2.2378113397566008e+01 +1.4924860569769746e+02 -4.1885827219041741e+04 +4.7838742366149629e+04 +1.9547730489533776e+08 
+8.8999999999999844e+00 -1.0154107341836875e+00 +2.2406919993681003e+00 +2.2371439718316143e+01 +1.5000874594040729e+02 -4.1805867258656071e+04 +4.3138595585313553e+04 +1.9520783268094724e+08 
+8.9999999999999840e+00 -1.0154094078130236e+00 +2.2406534469056130e+00 +2.2364742327491438e+01 +1.5080900034920560e+02 -4.1726535126409042e+04 +3.8204224628242162e+04 +1.9494380699000248e+08 
+9.0999999999999837e+00 -1.0154080858007108e+00 +2.2406144105028774e+00 +2.2358040491300105e+01 +1.5164541347362928e+02 -4.1647846863892526e+04 +3.3063044792015651e+04 +1.9468430211104602e+08 
+9.1999999999999833e+00 -1.0154067694264375e+00 +2.2405749898736746e+00 +2.2351353479325343e+01 +1.5251403034211128e+02 -4.1569818558932631e+04 +2.7742470089092909e+04 +1.9442839238667956e+08 
+9.2999999999999829e+00 -1.0154054599699032e+00 +2.2405352847122595e+00 +2.2344700562611237e+01 +1.5341089628657863e+02 -4.1492466312634599e+04 +2.2269914275846848e+04 +1.9417515206568405e+08 
+9.3999999999999826e+00 -1.0154041587109199e+00 +2.2404953946818842e+00 +2.2338101026846861e+01 +1.5433205726451919e+02 -4.1415806490235074e+04 +1.6672789032806399e+04 +1.9392365648964268e+08 
+9.4999999999999822e+00 -1.0154028669293285e+00 +2.2404554194230251e+00 +2.2331574160807644e+01 +1.5527355960624800e+02 -4.1339855495696291e+04 +1.0978505498555354e+04 +1.9367298100466675e+08 
+9.5999999999999819e+00 -1.0154015859049876e+00 +2.2404154585477531e+00 +2.2325139256275317e+01 +1.5623145017532968e+02 -4.1264629775494257e+04 +5.2144733630961618e+03 +1.9342220098608181e+08 
+9.6999999999999815e+00 -1.0154003169178449e+00 +2.2403756116411593e+00 +2.2318815615582139e+01 +1.5720177632429838e+02 -4.1190145954393018e+04 -5.9189884142037522e+02 +1.9317039246280029e+08 
+9.7999999999999812e+00 -1.0153990612478740e+00 +2.2403359782604255e+00 +2.2312622544828816e+01 +1.5818058589744589e+02 -4.1116420712192812e+04 -6.4132036629359718e+03 +1.9291663154057452e+08 
+9.8999999999999808e+00 -1.0153978201751142e+00 +2.2402966579327286e+00 +2.2306579358199855e+01 +1.5916392730928305e+02 -4.1043470860355061e+04 -1.2222035223826424e+04 +1.9265999474912676e+08 
+9.9999999999999805e+00 -1.0153965949796273e+00 +2.2402577501537744e+00 +2.2300705373044178e+01 +1.6014784963573729e+02 -4.0971313238372888e+04 -1.7990989632576326e+04 +1.9239955852429709e+08 
+1.0099999999999980e+01 -1.0153953867103709e+00 +2.2402193631150475e+00 +2.2295020781479781e+01 +1.6112831755955452e+02 -4.0900039571612913e+04 -2.3693109788966667e+04 +1.9213489140951759e+08 
