# multipoles
# s[mm] polynom_b[n=0][T/m^n] polynom_b[n=1][T/m^n] polynom_b[n=2][T/m^n] polynom_b[n=3][T/m^n] polynom_b[n=4][T/m^n] polynom_b[n=5][T/m^n] polynom_b[n=6][T/m^n] 
+0.0000000000000000e+00 -1.0319754381292416e+00 +2.2205726824367864e+00 +1.5195905291810929e+01 +1.4097543665129615e+03 +7.9792322706204592e+04 -6.5159409461072991e+06 -3.7783701375175905e+08 
+1.0000000000000001e-01 -1.0319728516079076e+00 +2.2207436289411584e+00 +1.5287234871415155e+01 +1.4083138926456816e+03 +7.8142309001781861e+04 -6.5098719813321037e+06 -3.6942685688577205e+08 
+2.0000000000000001e-01 -1.0319703646963883e+00 +2.2209148288725036e+00 +1.5389967558492355e+01 +1.4068357193092554e+03 +7.6311658804752835e+04 -6.5032975492235199e+06 -3.6026479909722334e+08 
+3.0000000000000004e-01 -1.0319679778283006e+00 +2.2210846875036014e+00 +1.5504048830267960e+01 +1.4053559047891667e+03 +7.4300788024101435e+04 -6.4964063058341509e+06 -3.5035458228396368e+08 
+4.0000000000000002e-01 -1.0319656914372943e+00 +2.2212516100149453e+00 +1.5629424170720005e+01 +1.4039105099850622e+03 +7.2110112393151096e+04 -6.4893869215455176e+06 -3.3969994736920017e+08 
+5.0000000000000000e-01 -1.0319635059570045e+00 +2.2214140014758406e+00 +1.5766039067830198e+01 +1.4025355990051410e+03 +6.9740047496747939e+04 -6.4824280845151935e+06 -3.2830463435023749e+08 
+5.9999999999999998e-01 -1.0319614205305723e+00 +2.2215704803991922e+00 +1.5913683870210342e+01 +1.4012622490109391e+03 +6.7193722493044959e+04 -6.4756955625289762e+06 -3.1618385343966067e+08 
+6.9999999999999996e-01 -1.0319594291454472e+00 +2.2217205301510519e+00 +1.6071527919451995e+01 +1.4001013991719005e+03 +6.4485134185426279e+04 -6.4692632161182147e+06 -3.0339875078808624e+08 
+7.9999999999999993e-01 -1.0319575245016976e+00 +2.2218638529883221e+00 +1.6238585189574092e+01 +1.3990589091468260e+03 +6.1630999615717439e+04 -6.4631818862641687e+06 -2.9002196977069378e+08 
+8.9999999999999991e-01 -1.0319556992993597e+00 +2.2220001511346839e+00 +1.6413869655485279e+01 +1.3981406392890005e+03 +5.8648035761153202e+04 -6.4575024160027476e+06 -2.7612615331449580e+08 
+9.9999999999999989e-01 -1.0319539462384093e+00 +2.2221291268040821e+00 +1.6596395286811436e+01 +1.3973524498811064e+03 +5.5552959673789446e+04 -6.4522756456297860e+06 -2.6178394462400693e+08 
+1.0999999999999999e+00 -1.0319522580187555e+00 +2.2222504822126661e+00 +1.6785176049924356e+01 +1.3967002007338517e+03 +5.2362488429063022e+04 -6.4475524101152755e+06 -2.4706798690497318e+08 
+1.2000000000000000e+00 -1.0319506273402552e+00 +2.2223639195930160e+00 +1.6979225907129258e+01 +1.3961897506900866e+03 +4.9093339162434764e+04 -6.4433835358810537e+06 -2.3205092360110986e+08 
+1.3000000000000000e+00 -1.0319490469026695e+00 +2.2224691412246114e+00 +1.7177558812598956e+01 +1.3958269567244561e+03 +4.5762229144465164e+04 -6.4398198354203487e+06 -2.1680539874608392e+08 
+1.4000000000000001e+00 -1.0319475094056711e+00 +2.2225658494336464e+00 +1.7379188712551567e+01 +1.3956176738287031e+03 +4.2385875782970266e+04 -6.4369121061928757e+06 -2.0140405699160618e+08 
+1.5000000000000002e+00 -1.0319460075488560e+00 +2.2226537466228620e+00 +1.7583129546213460e+01 +1.3955677541196644e+03 +3.8980996615996664e+04 -6.4347111252607107e+06 -1.8591954360816944e+08 
+1.6000000000000003e+00 -1.0319445340316784e+00 +2.2227325352839875e+00 +1.7788395238616317e+01 +1.3956830463988995e+03 +3.5564309447758467e+04 -6.4332676463984149e+06 -1.7042450513417375e+08 
+1.7000000000000004e+00 -1.0319430815535044e+00 +2.2228019180152789e+00 +1.7993999706073897e+01 +1.3959693955908438e+03 +3.2152532254239875e+04 -6.4326323965810863e+06 -1.5499158895261696e+08 
+1.8000000000000005e+00 -1.0319416428135570e+00 +2.2228615975386088e+00 +1.8198956849715554e+01 +1.3964326421715880e+03 +2.8762383310098208e+04 -6.4328560723523684e+06 -1.3969344390964860e+08 
+1.9000000000000006e+00 -1.0319402105109305e+00 +2.2229112767198780e+00 +1.8402280556915208e+01 +1.3970786215197957e+03 +2.5410581169787423e+04 -6.4339893357731188e+06 -1.2460272025275552e+08 
+2.0000000000000004e+00 -1.0319387773445612e+00 +2.2229506585801704e+00 +1.8602984697641741e+01 +1.3979131635241376e+03 +2.2113844740451532e+04 -6.4360828118637819e+06 -1.0979206998744798e+08 
+2.1000000000000005e+00 -1.0319373360132411e+00 +2.2229794463218977e+00 +1.8800083126053242e+01 +1.3989420917672103e+03 +1.8888893256131501e+04 -6.4391870835793605e+06 -9.5334146769786984e+07 
+2.2000000000000006e+00 -1.0319358792156192e+00 +2.2229973433344465e+00 +1.8992589680232481e+01 +1.4001712232968605e+03 +1.5752446290882886e+04 -6.4433526902018515e+06 -8.1301605994593918e+07 
+2.3000000000000007e+00 -1.0319343996501382e+00 +2.2230040532203299e+00 +1.9179518174468324e+01 +1.4016063677994391e+03 +1.2721223911385801e+04 -6.4486301222429471e+06 -6.7767105541459516e+07 
+2.4000000000000008e+00 -1.0319328900150799e+00 +2.2229992798107419e+00 +1.9359882404570079e+01 +1.4032533270904860e+03 +9.8119465785186967e+03 -6.4550698182102637e+06 -5.4803305314144917e+07 
+2.5000000000000009e+00 -1.0319313430085131e+00 +2.2229827271843914e+00 +1.9532696141550659e+01 +1.4051178944922881e+03 +7.0413352744711019e+03 -6.4627221605986590e+06 -4.2482867861249782e+07 
+2.6000000000000010e+00 -1.0319297528154339e+00 +2.2229545564338231e+00 +1.9697199777733054e+01 +1.4071932745740023e+03 +4.4222960221239546e+03 -6.4715624840811323e+06 -3.0861818123305619e+07 
+2.7000000000000011e+00 -1.0319281196069181e+00 +2.2229166678413983e+00 +1.9853531842119597e+01 +1.4094235329277849e+03 +1.9527493482033306e+03 -6.4812705887893289e+06 -1.9931387322575111e+07 
+2.8000000000000012e+00 -1.0319264450631476e+00 +2.2228713754071556e+00 +2.0002053900179501e+01 +1.4117407094224316e+03 -3.7307259649539083e+02 -6.4914532288728533e+06 -9.6669986878793817e+06 
+2.9000000000000012e+00 -1.0319247308646262e+00 +2.2228209931722125e+00 +2.0143127555724824e+01 +1.4140768419447984e+03 -2.5609382535091922e+03 -6.5017171429557241e+06 -4.4073317992509685e+04 
+3.0000000000000013e+00 -1.0319229786921298e+00 +2.2227678352024114e+00 +2.0277114443703329e+01 +1.4163639669286565e+03 -4.6166165095233255e+03 -6.5116690574080907e+06 +8.9619690722284261e+06 
+3.1000000000000014e+00 -1.0319211902267877e+00 +2.2227142155955648e+00 +2.0404376240922037e+01 +1.4185341191221469e+03 -6.5458768951138827e+03 -6.5209156849536672e+06 +1.7375711056523323e+07 
+3.2000000000000015e+00 -1.0319193671501197e+00 +2.2226624484597868e+00 +2.0525274669910175e+01 +1.4205193322470407e+03 -8.3544896436624203e+03 -6.5290637286143862e+06 +2.5221737714909822e+07 
+3.3000000000000016e+00 -1.0319175111439789e+00 +2.2226148479203891e+00 +2.0640171491035918e+01 +1.4222516387753103e+03 -1.0048225530618312e+04 -6.5357198803668069e+06 +3.2524635812681451e+07 
+3.4000000000000017e+00 -1.0319156238907088e+00 +2.2225737281083413e+00 +2.0749428522574497e+01 +1.4236630702984098e+03 -1.1632856247897711e+04 -6.5404908234123634e+06 +3.9308995539313726e+07 
+3.5000000000000018e+00 -1.0319137070731375e+00 +2.2225414031535031e+00 +2.0853407638454396e+01 +1.4246856576948255e+03 -1.3114154346268044e+04 -6.5429832330866093e+06 +4.5599410169044629e+07 
+3.6000000000000019e+00 -1.0319117623745273e+00 +2.2225201871811984e+00 +2.0952470762426284e+01 +1.4252514312553228e+03 -1.4497893113799955e+04 -6.5428037776973601e+06 +5.1420475426590428e+07 
+3.7000000000000020e+00 -1.0319097914787347e+00 +2.2225123943089500e+00 +2.1046979887833523e+01 +1.4252924207715398e+03 -1.5789846946966118e+04 -6.5395591190292891e+06 +5.6796791217199683e+07 
+3.8000000000000020e+00 -1.0319077960701359e+00 +2.2225203386320964e+00 +2.1137297067092192e+01 +1.4247406559549509e+03 -1.6995791134654279e+04 -6.5328559148239410e+06 +6.1752960530961014e+07 
+3.9000000000000021e+00 -1.0319057778337142e+00 +2.2225463342264549e+00 +2.1223784422410692e+01 +1.4235281663740568e+03 -1.8121502046024016e+04 -6.5223008184649982e+06 +6.6313590264868297e+07 
+4.0000000000000018e+00 -1.0319037384550980e+00 +2.2225926951356860e+00 +2.1306804151402030e+01 +1.4215869818121307e+03 -1.9172757243631866e+04 -6.5075004810629217e+06 +7.0503291757601202e+07 
+4.1000000000000014e+00 -1.0319016796205760e+00 +2.2226617353719860e+00 +2.1386718526487861e+01 +1.4188491322617747e+03 -2.0155335441788811e+04 -6.4880615514911748e+06 +7.4346680483404502e+07 
+4.2000000000000011e+00 -1.0318996030171033e+00 +2.2227557689023900e+00 +2.1463889897066146e+01 +1.4152466483136664e+03 -2.1075016550837488e+04 -6.4635906786400620e+06 +7.7868376243372068e+07 
+4.3000000000000007e+00 -1.0318975103323809e+00 +2.2228771096513085e+00 +2.1538680697922185e+01 +1.4107115610935832e+03 -2.1937581817000526e+04 -6.4336945111017944e+06 +8.1093003753558829e+07 
+4.4000000000000004e+00 -1.0318954032548708e+00 +2.2230280714889545e+00 +2.1611453451714819e+01 +1.4051759026088200e+03 -2.2748813869532984e+04 -6.3979796992502008e+06 +8.4045192844680697e+07 
+4.5000000000000000e+00 -1.0318932834738037e+00 +2.2232109682132650e+00 +2.1682570766793180e+01 +1.3985717062763199e+03 -2.3514496644496812e+04 -6.3560528986997893e+06 +8.6749577943821386e+07 
+4.5999999999999996e+00 -1.0318911527375030e+00 +2.2234275024417633e+00 +2.1752334628187679e+01 +1.3908495506271563e+03 -2.4239842459017895e+04 -6.3076244442683244e+06 +8.9229271945151627e+07 
+4.6999999999999993e+00 -1.0318890130237448e+00 +2.2236769468634141e+00 +2.1820837513904507e+01 +1.3820366371767002e+03 -2.4928809252995354e+04 -6.2528335039279908e+06 +9.1507091740466937e+07 
+4.7999999999999989e+00 -1.0318868663647449e+00 +2.2239579650064423e+00 +2.1888127581203388e+01 +1.3721801469372474e+03 -2.5585305519526035e+04 -6.1919312253706325e+06 +9.3607266035497338e+07 
+4.8999999999999986e+00 -1.0318847147930728e+00 +2.2242692203230523e+00 +2.1954253051193582e+01 +1.3613272662668392e+03 -2.6213241429290836e+04 -6.1251687998439204e+06 +9.5554033298599854e+07 
+4.9999999999999982e+00 -1.0318825603414361e+00 +2.2246093761766881e+00 +2.2019262178806780e+01 +1.3495251871889625e+03 -2.6816528220571312e+04 -6.0527974654218731e+06 +9.7371638872111112e+07 
+5.0999999999999979e+00 -1.0318804050428181e+00 +2.2249770958606674e+00 +2.2083203272650611e+01 +1.3368211069820302e+03 -2.7399078616402632e+04 -5.9750685052959239e+06 +9.9084337111288175e+07 
+5.1999999999999975e+00 -1.0318782509303928e+00 +2.2253710425782653e+00 +2.2146124683785004e+01 +1.3232622289847798e+03 -2.7964806625123485e+04 -5.8922332534515178e+06 +1.0071639051741152e+08 
+5.2999999999999972e+00 -1.0318761000375911e+00 +2.2257898794408937e+00 +2.2208074816770672e+01 +1.3088957628068140e+03 -2.8517627792766620e+04 -5.8045430966514777e+06 +1.0229207109977797e+08 
+5.3999999999999968e+00 -1.0318739543980306e+00 +2.2262322694631091e+00 +2.2269102119820911e+01 +1.2937689246632474e+03 -2.9061459027221037e+04 -5.7122494772634320e+06 +1.0383565961601694e+08 
+5.4999999999999964e+00 -1.0318718160455440e+00 +2.2266968755613834e+00 +2.2329255090216709e+01 +1.2779289375853850e+03 -2.9600218736932868e+04 -5.6156038952981802e+06 +1.0537144637506191e+08 
+5.5999999999999961e+00 -1.0318696870142254e+00 +2.2271823605388756e+00 +2.2388582281781012e+01 +1.2614230320671586e+03 -3.0137827000014429e+04 -5.5148579130819067e+06 +1.0692373215817240e+08 
+5.6999999999999957e+00 -1.0318675693382922e+00 +2.2276873870917351e+00 +2.2447132287013147e+01 +1.2442984460305927e+03 -3.0678205248253966e+04 -5.4102631558063002e+06 +1.0851682682912566e+08 
+5.7999999999999954e+00 -1.0318654650522654e+00 +2.2282106177954404e+00 +2.2504953761880820e+01 +1.2266024254327633e+03 -3.1225276768699736e+04 -5.3020713159791706e+06 +1.1017505184553076e+08 
+5.8999999999999950e+00 -1.0318633761908207e+00 +2.2287507151019019e+00 +2.2562095407008510e+01 +1.2083822245214596e+03 -3.1782966367399396e+04 -5.1905341557343779e+06 +1.1192273876456475e+08 
+5.9999999999999947e+00 -1.0318613047888490e+00 +2.2293063413376859e+00 +2.2618605977025744e+01 +1.1896851060663116e+03 -3.2355200580831628e+04 -5.0759035090046236e+06 +1.1378423038543849e+08 
+6.0999999999999943e+00 -1.0318592528814376e+00 +2.2298761586887923e+00 +2.2674534279047851e+01 +1.1705583419880836e+03 -3.2945907670568864e+04 -4.9584312860563938e+06 +1.1578388083253703e+08 
+6.1999999999999940e+00 -1.0318572225038849e+00 +2.2304588292128376e+00 +2.2729929174458125e+01 +1.1510492131901781e+03 -3.3559017682026722e+04 -4.8383694733440829e+06 +1.1794605595047809e+08 
+6.2999999999999936e+00 -1.0318552156916823e+00 +2.2310530148126397e+00 +2.2784839579260197e+01 +1.1312050104940365e+03 -3.4198462484361735e+04 -4.7159701397769591e+06 +1.2029513362850814e+08 
+6.3999999999999932e+00 -1.0318532344805158e+00 +2.2316573772466279e+00 +2.2839314463341239e+01 +1.1110730345369057e+03 -3.4868175774572177e+04 -4.5914854370125346e+06 +1.2285550391585872e+08 
+6.4999999999999929e+00 -1.0318512809063158e+00 +2.2322705781073466e+00 +2.2893402859343276e+01 +1.0907005971833669e+03 -3.5572093198699113e+04 -4.4651676087009283e+06 +1.2565156957380217e+08 
+6.5999999999999925e+00 -1.0318493563959816e+00 +2.2328914507731441e+00 +2.2947152645717797e+01 +1.0701345910278810e+03 -3.6313464832996360e+04 -4.3372817610676847e+06 +1.2870320835596822e+08 
+6.6999999999999922e+00 -1.0318474595071687e+00 +2.2335195737272926e+00 +2.3000531137269505e+01 +1.0494143254895205e+03 -3.7091453368949209e+04 -4.2081126596620250e+06 +1.3200669917174724e+08 
+6.7999999999999918e+00 -1.0318455879574857e+00 +2.2341547318175956e+00 +2.3053464142371951e+01 +1.0285756532286177e+03 -3.7903793053125984e+04 -4.0779421130519300e+06 +1.3555069307548237e+08 
+6.8999999999999915e+00 -1.0318437394638444e+00 +2.2347967100319108e+00 +2.3105877319304767e+01 +1.0076544219468849e+03 -3.8748214797322275e+04 -3.9470519024108686e+06 +1.3932382449211201e+08 
+6.9999999999999911e+00 -1.0318419117426041e+00 +2.2354452934383970e+00 +2.3157696200212996e+01 +9.8668647621059324e+02 -3.9622446720600819e+04 -3.8157237877069139e+06 +1.4331471366090682e+08 
+7.0999999999999908e+00 -1.0318401025095287e+00 +2.2361002672024473e+00 +2.3208846182386885e+01 +9.6570765690675830e+02 -4.0524213953932456e+04 -3.6842395043019559e+06 +1.4751196562206960e+08 
+7.1999999999999904e+00 -1.0318383094797696e+00 +2.2367614165778362e+00 +2.3259252524383033e+01 +9.4475380140472225e+02 -4.1451238551585215e+04 -3.5528807635181728e+06 +1.5190416975333068e+08 
+7.2999999999999901e+00 -1.0318365303678609e+00 +2.2374285269246839e+00 +2.3308840343658471e+01 +9.2386074295990079e+02 -4.2401239429155103e+04 -3.4219292488550222e+06 +1.5647989942778742e+08 
+7.3999999999999897e+00 -1.0318347628876108e+00 +2.2381013836961565e+00 +2.3357534599231137e+01 +9.0306431104207400e+02 -4.3371932000380315e+04 -3.2916666176378219e+06 +1.6122771018911904e+08 
+7.4999999999999893e+00 -1.0318330047521309e+00 +2.2387797724611569e+00 +2.3405260094043967e+01 +8.8240033056204027e+02 -4.4361028214895625e+04 -3.1623744960934506e+06 +1.6613613991465679e+08 
+7.5999999999999890e+00 -1.0318312536738559e+00 +2.2394634788943693e+00 +2.3451941475366620e+01 +8.6190462211874831e+02 -4.5366236542624414e+04 -3.0343344805701780e+06 +1.7119370867244998e+08 
+7.6999999999999886e+00 -1.0318295073643931e+00 +2.2401522887850600e+00 +2.3497503212997131e+01 +8.4161300164239276e+02 -4.6385261533855541e+04 -2.9078281350730527e+06 +1.7638891655518895e+08 
+7.7999999999999883e+00 -1.0318277635345809e+00 +2.2408459880438980e+00 +2.3541869604296668e+01 +8.2156128013796717e+02 -4.7415803897832317e+04 -2.7831369895063126e+06 +1.8171024401046166e+08 
+7.8999999999999879e+00 -1.0318260198945011e+00 +2.2415443627020215e+00 +2.3584964774297738e+01 +8.0178526361920910e+02 -4.8455560490074502e+04 -2.6605425389242177e+06 +1.8714615173412600e+08 
+7.9999999999999876e+00 -1.0318242741532988e+00 +2.2422471989173767e+00 +2.3626712649401934e+01 +7.8232075285729888e+02 -4.9502223777305175e+04 -2.5403262417799300e+06 +1.9268507802725115e+08 
+8.0999999999999872e+00 -1.0318225240193339e+00 +2.2429542829798987e+00 +2.3667036975961906e+01 +7.6320354313895120e+02 -5.0553482190458373e+04 -2.4227695181534095e+06 +1.9831544047556832e+08 
+8.1999999999999869e+00 -1.0318207672000301e+00 +2.2436654013141148e+00 +2.3705861296867685e+01 +7.4446942413203885e+02 -5.1607019639153550e+04 -2.3081537487129881e+06 +2.0402563352415887e+08 
+8.2999999999999865e+00 -1.0318190014018744e+00 +2.2443803404805238e+00 +2.3743108951088328e+01 +7.2615417975664172e+02 -5.2660515497622124e+04 -2.1967602735970411e+06 +2.0980402839665762e+08 
+8.3999999999999861e+00 -1.0318172243304244e+00 +2.2450988871883917e+00 +2.3778703071291059e+01 +7.0829358773262618e+02 -5.3711644530419449e+04 -2.0888703894666038e+06 +2.1563897265806761e+08 
+8.4999999999999858e+00 -1.0318154336901724e+00 +2.2458208283058312e+00 +2.3812566564512775e+01 +6.9092341787056444e+02 -5.4758076679371145e+04 -1.9847653371878159e+06 +2.2151878961944279e+08 
+8.5999999999999854e+00 -1.0318136277566703e+00 +2.2465459890161217e+00 +2.3844625392812322e+01 +6.7406896924193859e+02 -5.5797411301995809e+04 -1.8846473731001993e+06 +2.2743122070923978e+08 
+8.6999999999999851e+00 -1.0318118077361600e+00 +2.2472744294650497e+00 +2.3874904587637758e+01 +6.5771135475806818e+02 -5.6827702376672474e+04 -1.7883881855918225e+06 +2.3336244297812414e+08 
+8.7999999999999847e+00 -1.0318099757406063e+00 +2.2480062919600701e+00 +2.3903476670435797e+01 +6.4181957807303604e+02 -5.7847312303306222e+04 -1.6957695227403231e+06 +2.3929844827451131e+08 
+8.8999999999999844e+00 -1.0318081338823377e+00 +2.2487417188201624e+00 +2.3930414232173362e+01 +6.2636263682851904e+02 -5.8854604546240953e+04 -1.6065730768230001e+06 +2.4522523221434674e+08 
+8.9999999999999840e+00 -1.0318062842739317e+00 +2.2494808523589147e+00 +2.3955789921963905e+01 +6.1130952492203949e+02 -5.9847943666829662e+04 -1.5205805015336159e+06 +2.5112879513011134e+08 
+9.0999999999999837e+00 -1.0318044290282198e+00 +2.2502238348825623e+00 +2.3979676447921037e+01 +5.9662923243755836e+02 -6.0825695328713904e+04 -1.4375734110243034e+06 +2.5699514204601985e+08 
+9.1999999999999833e+00 -1.0318025702583073e+00 +2.2509708086849325e+00 +2.4002146581395319e+01 +5.8229074569274053e+02 -6.1786226387064351e+04 -1.3573333797321343e+06 +2.6281028310966897e+08 
+9.2999999999999829e+00 -1.0318007100775859e+00 +2.2517219160459305e+00 +2.4023273160507696e+01 +5.6826304714076105e+02 -6.2727904958966363e+04 -1.2796419412061949e+06 +2.6856023391372663e+08 
+9.3999999999999826e+00 -1.0317988505996798e+00 +2.2524772992447080e+00 +2.4043129082149033e+01 +5.5451511487545451e+02 -6.3649100256571881e+04 -1.2042805847383419e+06 +2.7423101464551884e+08 
+9.4999999999999822e+00 -1.0317969939385787e+00 +2.2532371005375826e+00 +2.4061787323131458e+01 +5.4101592317145310e+02 -6.4548183013939968e+04 -1.1310307580353245e+06 +2.7980865216589141e+08 
+9.5999999999999819e+00 -1.0317951422085270e+00 +2.2540014621757041e+00 +2.4079320924814741e+01 +5.2773444182407377e+02 -6.5423525175663468e+04 -1.0596738627681378e+06 +2.8527917845578671e+08 
+9.6999999999999815e+00 -1.0317932975240953e+00 +2.2547705263914599e+00 +2.4095803004540628e+01 +5.1463963644356306e+02 -6.6273500123278340e+04 -9.8999125582790328e+05 +2.9062863169952983e+08 
+9.7999999999999812e+00 -1.0317914620001585e+00 +2.2555444354057506e+00 +2.4111306754091981e+01 +5.0170046811930428e+02 -6.7096482648402438e+04 -9.2176424683140835e+05 +2.9584305614473498e+08 
+9.8999999999999808e+00 -1.0317896377519571e+00 +2.2563233314231277e+00 +2.4125905448317592e+01 +4.8888589343936604e+02 -6.7890849117310136e+04 -8.5477409770383802e+05 +3.0090850287056881e+08 
+9.9999999999999805e+00 -1.0317878268950309e+00 +2.2571073566307178e+00 +2.4139672438218859e+01 +4.7616486440448523e+02 -6.8654977338218261e+04 -7.8880202166913950e+05 +3.0581102912915802e+08 
+1.0099999999999980e+01 -1.0317860315453198e+00 +2.2578966532026521e+00 +2.4152681164747609e+01 +4.6350632818998315e+02 -6.9387246826428440e+04 -7.2362918136910175e+05 +3.1053669959859890e+08 
