# trajectory
# s[mm] rx[mm] ry[mm] rz[mm] px[rad] py[rad] pz[rad]
0.0000000000000000e+00 +9.0449999999999999e+00 +0.0000000000000000e+00 +0.0000000000000000e+00 +0.0000000000000000e+00 +0.0000000000000000e+00 +1.0000000000000000e+00
-1.0000000000000001e-01 +9.0449994835517362e+00 +0.0000000000000000e+00 -9.9999999998221872e-02 +1.0328966045039009e-05 +0.0000000000000000e+00 +9.9999999994665623e-01
-2.0000000000000001e-01 +9.0449979342066449e+00 +0.0000000000000000e+00 -1.9999999998577500e-01 +2.0657936461741603e-05 +0.0000000000000000e+00 +9.9999999978662479e-01
-3.0000000000000004e-01 +9.0449953519643174e+00 +0.0000000000000000e+00 -2.9999999995199056e-01 +3.0986910649438850e-05 +0.0000000000000000e+00 +9.9999999951990570e-01
-4.0000000000000002e-01 +9.0449917368244126e+00 +0.0000000000000000e+00 -3.9999999988619983e-01 +4.1315887882054710e-05 +0.0000000000000000e+00 +9.9999999914649873e-01
-5.0000000000000000e-01 +9.0449870887866677e+00 +0.0000000000000000e+00 -4.9999999977773402e-01 +5.1644867308104434e-05 +0.0000000000000000e+00 +9.9999999866640388e-01
-5.9999999999999998e-01 +9.0449814078509103e+00 +0.0000000000000000e+00 -5.9999999961592432e-01 +6.1973847950692326e-05 +0.0000000000000000e+00 +9.9999999807962114e-01
-6.9999999999999996e-01 +9.0449746940170730e+00 +0.0000000000000000e+00 -6.9999999939010193e-01 +7.2302828707508865e-05 +0.0000000000000000e+00 +9.9999999738615053e-01
-7.9999999999999993e-01 +9.0449669472852054e+00 +0.0000000000000000e+00 -7.9999999908959818e-01 +8.2631808350827087e-05 +0.0000000000000000e+00 +9.9999999658599215e-01
-8.9999999999999991e-01 +9.0449581676554853e+00 +0.0000000000000000e+00 -8.9999999870374414e-01 +9.2960785527498386e-05 +0.0000000000000000e+00 +9.9999999567914621e-01
-9.9999999999999989e-01 +9.0449483551282324e+00 +0.0000000000000000e+00 -9.9999999822187113e-01 +1.0328975875894766e-04 +0.0000000000000000e+00 +9.9999999466561285e-01
-1.0999999999999999e+00 +9.0449375097039191e+00 +0.0000000000000000e+00 -1.0999999976333106e+00 +1.1361872644116769e-04 +0.0000000000000000e+00 +9.9999999354539248e-01
-1.2000000000000000e+00 +9.0449256313831867e+00 +0.0000000000000000e+00 -1.1999999969273936e+00 +1.2394768684471301e-04 +0.0000000000000000e+00 +9.9999999231848546e-01
-1.3000000000000000e+00 +9.0449127201668542e+00 +0.0000000000000000e+00 -1.2999999960934514e+00 +1.3427663811469299e-04 +0.0000000000000000e+00 +9.9999999098489223e-01
-1.4000000000000001e+00 +9.0448987760559341e+00 +0.0000000000000000e+00 -1.3999999951208157e+00 +1.4460557827076435e-04 +0.0000000000000000e+00 +9.9999998954461333e-01
-1.5000000000000002e+00 +9.0448837990516413e+00 +0.0000000000000000e+00 -1.4999999939988180e+00 +1.5493450520712295e-04 +0.0000000000000000e+00 +9.9999998799764944e-01
-1.6000000000000003e+00 +9.0448677891554077e+00 +0.0000000000000000e+00 -1.5999999927167896e+00 +1.6526341670406873e-04 +0.0000000000000000e+00 +9.9999998634400145e-01
-1.7000000000000004e+00 +9.0448507463688887e+00 +0.0000000000000000e+00 -1.6999999912640622e+00 +1.7559231055530933e-04 +0.0000000000000000e+00 +9.9999998458367012e-01
-1.8000000000000005e+00 +9.0448326706939532e+00 +0.0000000000000000e+00 -1.7999999896299674e+00 +1.8592118469526773e-04 +0.0000000000000000e+00 +9.9999998271665635e-01
-1.9000000000000006e+00 +9.0448135621326706e+00 +0.0000000000000000e+00 -1.8999999878038374e+00 +1.9625003721065461e-04 +0.0000000000000000e+00 +9.9999998074296126e-01
-2.0000000000000004e+00 +9.0447934206872915e+00 +0.0000000000000000e+00 -1.9999999857750037e+00 +2.0657886634046753e-04 +0.0000000000000000e+00 +9.9999997866258572e-01
-2.1000000000000005e+00 +9.0447722463602354e+00 +0.0000000000000000e+00 -2.0999999835327987e+00 +2.1690767047599074e-04 +0.0000000000000000e+00 +9.9999997647553096e-01
-2.2000000000000006e+00 +9.0447500391540778e+00 +0.0000000000000000e+00 -2.1999999810665543e+00 +2.2723644816079560e-04 +0.0000000000000000e+00 +9.9999997418179798e-01
-2.3000000000000007e+00 +9.0447267990715297e+00 +0.0000000000000000e+00 -2.2999999783656024e+00 +2.3756519809074156e-04 +0.0000000000000000e+00 +9.9999997178138789e-01
-2.4000000000000008e+00 +9.0447025261154241e+00 +0.0000000000000000e+00 -2.3999999754192758e+00 +2.4789391911397775e-04 +0.0000000000000000e+00 +9.9999996927430190e-01
-2.5000000000000009e+00 +9.0446772202887047e+00 +0.0000000000000000e+00 -2.4999999722169068e+00 +2.5822261023094521e-04 +0.0000000000000000e+00 +9.9999996666054114e-01
-2.6000000000000010e+00 +9.0446508815944036e+00 +0.0000000000000000e+00 -2.5999999687478281e+00 +2.6855127059437976e-04 +0.0000000000000000e+00 +9.9999996394010682e-01
-2.7000000000000011e+00 +9.0446235100356347e+00 +0.0000000000000000e+00 -2.6999999650013722e+00 +2.7887989950931523e-04 +0.0000000000000000e+00 +9.9999996111300005e-01
-2.8000000000000012e+00 +9.0445951056155689e+00 +0.0000000000000000e+00 -2.7999999609668720e+00 +2.8920849643308756e-04 +0.0000000000000000e+00 +9.9999995817922194e-01
-2.9000000000000012e+00 +9.0445656683374267e+00 +0.0000000000000000e+00 -2.8999999566336605e+00 +2.9953706097533942e-04 +0.0000000000000000e+00 +9.9999995513877360e-01
-3.0000000000000013e+00 +9.0445351982044606e+00 +0.0000000000000000e+00 -2.9999999519910707e+00 +3.0986559289802537e-04 +0.0000000000000000e+00 +9.9999995199165603e-01
-3.1000000000000014e+00 +9.0445036952199374e+00 +0.0000000000000000e+00 -3.0999999470284361e+00 +3.2019409211541761e-04 +0.0000000000000000e+00 +9.9999994873787035e-01
-3.2000000000000015e+00 +9.0444711593871254e+00 +0.0000000000000000e+00 -3.1999999417350895e+00 +3.3052255869411244e-04 +0.0000000000000000e+00 +9.9999994537741754e-01
-3.3000000000000016e+00 +9.0444375907092791e+00 +0.0000000000000000e+00 -3.2999999361003640e+00 +3.4085099285303722e-04 +0.0000000000000000e+00 +9.9999994191029862e-01
-3.4000000000000017e+00 +9.0444029891896225e+00 +0.0000000000000000e+00 -3.3999999301135935e+00 +3.5117939496345790e-04 +0.0000000000000000e+00 +9.9999993833651435e-01
-3.5000000000000018e+00 +9.0443673548313370e+00 +0.0000000000000000e+00 -3.4999999237641113e+00 +3.6150776554898727e-04 +0.0000000000000000e+00 +9.9999993465606551e-01
-3.6000000000000019e+00 +9.0443306876375420e+00 +0.0000000000000000e+00 -3.5999999170412509e+00 +3.7183610528020655e-04 +0.0000000000000000e+00 +9.9999993086895289e-01
-3.7000000000000020e+00 +9.0442929876112839e+00 +0.0000000000000000e+00 -3.6999999099343461e+00 +3.8216441491541685e-04 +0.0000000000000000e+00 +9.9999992697517714e-01
-3.8000000000000020e+00 +9.0442542547555345e+00 +0.0000000000000000e+00 -3.7999999024327309e+00 +3.9249269524139335e-04 +0.0000000000000000e+00 +9.9999992297473894e-01
-3.9000000000000021e+00 +9.0442144890731857e+00 +0.0000000000000000e+00 -3.8999998945257386e+00 +4.0282094706801355e-04 +0.0000000000000000e+00 +9.9999991886763884e-01
-4.0000000000000018e+00 +9.0441736905670442e+00 +0.0000000000000000e+00 -3.9999998862027031e+00 +4.1314917122827350e-04 +0.0000000000000000e+00 +9.9999991465387739e-01
-4.1000000000000014e+00 +9.0441318592398350e+00 +0.0000000000000000e+00 -4.0999998774529587e+00 +4.2347736857830482e-04 +0.0000000000000000e+00 +9.9999991033345503e-01
-4.2000000000000011e+00 +9.0440889950941941e+00 +0.0000000000000000e+00 -4.1999998682658388e+00 +4.3380553999739299e-04 +0.0000000000000000e+00 +9.9999990590637222e-01
-4.3000000000000007e+00 +9.0440450981326705e+00 +0.0000000000000000e+00 -4.2999998586306774e+00 +4.4413368638799618e-04 +0.0000000000000000e+00 +9.9999990137262940e-01
-4.4000000000000004e+00 +9.0440001683577211e+00 +0.0000000000000000e+00 -4.3999998485368090e+00 +4.5446180867576505e-04 +0.0000000000000000e+00 +9.9999989673222689e-01
-4.5000000000000000e+00 +9.0439542057717084e+00 +0.0000000000000000e+00 -4.4999998379735677e+00 +4.6478990780956370e-04 +0.0000000000000000e+00 +9.9999989198516492e-01
-4.5999999999999996e+00 +9.0439072103768989e+00 +0.0000000000000000e+00 -4.5999998269302873e+00 +4.7511798476149121e-04 +0.0000000000000000e+00 +9.9999988713144383e-01
-4.6999999999999993e+00 +9.0438591821754617e+00 +0.0000000000000000e+00 -4.6999998153963016e+00 +4.8544604052690437e-04 +0.0000000000000000e+00 +9.9999988217106384e-01
-4.7999999999999989e+00 +9.0438101211694661e+00 +0.0000000000000000e+00 -4.7999998033609446e+00 +4.9577407612444088e-04 +0.0000000000000000e+00 +9.9999987710402505e-01
-4.8999999999999986e+00 +9.0437600273608751e+00 +0.0000000000000000e+00 -4.8999997908135509e+00 +5.0610209259604425e-04 +0.0000000000000000e+00 +9.9999987193032758e-01
-4.9999999999999982e+00 +9.0437089007515485e+00 +0.0000000000000000e+00 -4.9999997777434544e+00 +5.1643009100698842e-04 +0.0000000000000000e+00 +9.9999986664997154e-01
-5.0999999999999979e+00 +9.0436567413432396e+00 +0.0000000000000000e+00 -5.0999997641399899e+00 +5.2675807244590464e-04 +0.0000000000000000e+00 +9.9999986126295681e-01
-5.1999999999999975e+00 +9.0436035491375879e+00 +0.0000000000000000e+00 -5.1999997499924904e+00 +5.3708603802480822e-04 +0.0000000000000000e+00 +9.9999985576928341e-01
-5.2999999999999972e+00 +9.0435493241361247e+00 +0.0000000000000000e+00 -5.2999997352902906e+00 +5.4741398887912655e-04 +0.0000000000000000e+00 +9.9999985016895110e-01
-5.3999999999999968e+00 +9.0434940663402639e+00 +0.0000000000000000e+00 -5.3999997200227252e+00 +5.5774192616772807e-04 +0.0000000000000000e+00 +9.9999984446195977e-01
-5.4999999999999964e+00 +9.0434377757513040e+00 +0.0000000000000000e+00 -5.4999997041791273e+00 +5.6806985107295217e-04 +0.0000000000000000e+00 +9.9999983864830910e-01
-5.5999999999999961e+00 +9.0433804523704229e+00 +0.0000000000000000e+00 -5.5999996877488316e+00 +5.7839776479925965e-04 +0.0000000000000000e+00 +9.9999983272799886e-01
-5.6999999999999957e+00 +9.0433220961986773e+00 +0.0000000000000000e+00 -5.6999996707211720e+00 +5.8872566855807697e-04 +0.0000000000000000e+00 +9.9999982670102860e-01
-5.7999999999999954e+00 +9.0432627072370035e+00 +0.0000000000000000e+00 -5.7999996530854823e+00 +5.9905356355260931e-04 +0.0000000000000000e+00 +9.9999982056739789e-01
-5.8999999999999950e+00 +9.0432022854862186e+00 +0.0000000000000000e+00 -5.8999996348310964e+00 +6.0938145097643717e-04 +0.0000000000000000e+00 +9.9999981432710638e-01
-5.9999999999999947e+00 +9.0431408309470207e+00 +0.0000000000000000e+00 -5.9999996159473481e+00 +6.1970933201349035e-04 +0.0000000000000000e+00 +9.9999980798015353e-01
-6.0999999999999943e+00 +9.0430783436199889e+00 +0.0000000000000000e+00 -6.0999995964235714e+00 +6.3003720783802008e-04 +0.0000000000000000e+00 +9.9999980152653878e-01
-6.1999999999999940e+00 +9.0430148235055867e+00 +0.0000000000000000e+00 -6.1999995762491000e+00 +6.4036507961457020e-04 +0.0000000000000000e+00 +9.9999979496626146e-01
-6.2999999999999936e+00 +9.0429502706041625e+00 +0.0000000000000000e+00 -6.2999995554132679e+00 +6.5069294849794590e-04 +0.0000000000000000e+00 +9.9999978829932101e-01
-6.3999999999999932e+00 +9.0428846849159452e+00 +0.0000000000000000e+00 -6.3999995339054090e+00 +6.6102081563318188e-04 +0.0000000000000000e+00 +9.9999978152571678e-01
-6.4999999999999929e+00 +9.0428180664410558e+00 +0.0000000000000000e+00 -6.4999995117148561e+00 +6.7134868215550829e-04 +0.0000000000000000e+00 +9.9999977464544809e-01
-6.5999999999999925e+00 +9.0427504151794977e+00 +0.0000000000000000e+00 -6.5999994888309432e+00 +6.8167654919031528e-04 +0.0000000000000000e+00 +9.9999976765851417e-01
-6.6999999999999922e+00 +9.0426817311311645e+00 +0.0000000000000000e+00 -6.6999994652430033e+00 +6.9200441785311590e-04 +0.0000000000000000e+00 +9.9999976056491424e-01
-6.7999999999999918e+00 +9.0426120142958375e+00 +0.0000000000000000e+00 -6.7999994409403701e+00 +7.0233228924950777e-04 +0.0000000000000000e+00 +9.9999975336464741e-01
-6.8999999999999915e+00 +9.0425412646731882e+00 +0.0000000000000000e+00 -6.8999994159123768e+00 +7.1266016447513278e-04 +0.0000000000000000e+00 +9.9999974605771280e-01
-6.9999999999999911e+00 +9.0424694822627796e+00 +0.0000000000000000e+00 -6.9999993901483570e+00 +7.2298804461563555e-04 +0.0000000000000000e+00 +9.9999973864410963e-01
-7.0999999999999908e+00 +9.0423966670640663e+00 +0.0000000000000000e+00 -7.0999993636376431e+00 +7.3331593074662019e-04 +0.0000000000000000e+00 +9.9999973112383678e-01
-7.1999999999999904e+00 +9.0423228190763947e+00 +0.0000000000000000e+00 -7.1999993363695687e+00 +7.4364382393360547e-04 +0.0000000000000000e+00 +9.9999972349689337e-01
-7.2999999999999901e+00 +9.0422479382990080e+00 +0.0000000000000000e+00 -7.2999993083334660e+00 +7.5397172523197829e-04 +0.0000000000000000e+00 +9.9999971576327840e-01
-7.3999999999999897e+00 +9.0421720247310429e+00 +0.0000000000000000e+00 -7.3999992795186680e+00 +7.6429963568694598e-04 +0.0000000000000000e+00 +9.9999970792299075e-01
-7.4999999999999893e+00 +9.0420950783715313e+00 +0.0000000000000000e+00 -7.4999992499145076e+00 +7.7462755633348683e-04 +0.0000000000000000e+00 +9.9999969997602944e-01
-7.5999999999999890e+00 +9.0420170992194020e+00 +0.0000000000000000e+00 -7.5999992195103179e+00 +7.8495548819232082e-04 +0.0000000000000000e+00 +9.9999969192239324e-01
-7.6999999999999886e+00 +9.0419380872734862e+00 +0.0000000000000000e+00 -7.6999991882954308e+00 +7.9528343222610759e-04 +0.0000000000000000e+00 +9.9999968376208115e-01
-7.7999999999999883e+00 +9.0418580425325228e+00 +0.0000000000000000e+00 -7.7999991562591786e+00 +8.0561138929568534e-04 +0.0000000000000000e+00 +9.9999967549509206e-01
-7.8999999999999879e+00 +9.0417769649951687e+00 +0.0000000000000000e+00 -7.8999991233908933e+00 +8.1593936015611631e-04 +0.0000000000000000e+00 +9.9999966712142485e-01
-7.9999999999999876e+00 +9.0416948546600100e+00 +0.0000000000000000e+00 -7.9999990896799078e+00 +8.2626734545671228e-04 +0.0000000000000000e+00 +9.9999965864107865e-01
-8.0999999999999872e+00 +9.0416117115255776e+00 +0.0000000000000000e+00 -8.0999990551155534e+00 +8.3659534574106152e-04 +0.0000000000000000e+00 +9.9999965005405256e-01
-8.1999999999999869e+00 +9.0415275355903475e+00 +0.0000000000000000e+00 -8.1999990196871622e+00 +8.4692336144705682e-04 +0.0000000000000000e+00 +9.9999964136034569e-01
-8.2999999999999865e+00 +9.0414423268527617e+00 +0.0000000000000000e+00 -8.2999989833840662e+00 +8.5725139290692396e-04 +0.0000000000000000e+00 +9.9999963255995727e-01
-8.3999999999999861e+00 +9.0413560853112322e+00 +0.0000000000000000e+00 -8.3999989461955966e+00 +8.6757944034725188e-04 +0.0000000000000000e+00 +9.9999962365288664e-01
-8.4999999999999858e+00 +9.0412688109641550e+00 +0.0000000000000000e+00 -8.4999989081110865e+00 +8.7790750388902321e-04 +0.0000000000000000e+00 +9.9999961463913312e-01
-8.5999999999999854e+00 +9.0411805038099171e+00 +0.0000000000000000e+00 -8.5999988691198670e+00 +8.8823558354764632e-04 +0.0000000000000000e+00 +9.9999960551869627e-01
-8.6999999999999851e+00 +9.0410911638469109e+00 +0.0000000000000000e+00 -8.6999988292112693e+00 +8.9856367923298790e-04 +0.0000000000000000e+00 +9.9999959629157575e-01
-8.7999999999999847e+00 +9.0410007910735430e+00 +0.0000000000000000e+00 -8.7999987883746265e+00 +9.0889179074940703e-04 +0.0000000000000000e+00 +9.9999958695777114e-01
-8.8999999999999844e+00 +9.0409093854882432e+00 +0.0000000000000000e+00 -8.8999987465992678e+00 +9.1921991779578976e-04 +0.0000000000000000e+00 +9.9999957751728219e-01
-8.9999999999999840e+00 +9.0408169470894784e+00 +0.0000000000000000e+00 -8.9999987038745264e+00 +9.2954805996558511e-04 +0.0000000000000000e+00 +9.9999956797010880e-01
-9.0999999999999837e+00 +9.0407234758757617e+00 +0.0000000000000000e+00 -9.0999986601897334e+00 +9.3987621674684180e-04 +0.0000000000000000e+00 +9.9999955831625109e-01
-9.1999999999999833e+00 +9.0406289718456616e+00 +0.0000000000000000e+00 -9.1999986155342199e+00 +9.5020438752224613e-04 +0.0000000000000000e+00 +9.9999954855570905e-01
-9.2999999999999829e+00 +9.0405334349978137e+00 +0.0000000000000000e+00 -9.2999985698973191e+00 +9.6053257156916054e-04 +0.0000000000000000e+00 +9.9999953868848301e-01
-9.3999999999999826e+00 +9.0404368653309319e+00 +0.0000000000000000e+00 -9.3999985232683603e+00 +9.7086076805966376e-04 +0.0000000000000000e+00 +9.9999952871457343e-01
-9.4999999999999822e+00 +9.0403392628438173e+00 +0.0000000000000000e+00 -9.4999984756366764e+00 +9.8118897606059153e-04 +0.0000000000000000e+00 +9.9999951863398073e-01
-9.5999999999999819e+00 +9.0402406275353702e+00 +0.0000000000000000e+00 -9.5999984269916006e+00 +9.9151719453916681e-04 +0.0000000000000000e+00 +9.9999950844670560e-01
-9.6999999999999815e+00 +9.0401409594045958e+00 +0.0000000000000000e+00 -9.6999983773224621e+00 +1.0018454224245126e-03 +0.0000000000000000e+00 +9.9999949815274880e-01
-9.7999999999999812e+00 +9.0400402584506061e+00 +0.0000000000000000e+00 -9.7999983266185939e+00 +1.0121736586691280e-03 +0.0000000000000000e+00 +9.9999948775211112e-01
-9.8999999999999808e+00 +9.0399385246726176e+00 +0.0000000000000000e+00 -9.8999982748693274e+00 +1.0225019022544527e-03 +0.0000000000000000e+00 +9.9999947724479332e-01
-9.9999999999999805e+00 +9.0398357580699447e+00 +0.0000000000000000e+00 -9.9999982220639954e+00 +1.0328301521908389e-03 +0.0000000000000000e+00 +9.9999946663079609e-01
-1.0099999999999980e+01 +9.0397319586420011e+00 +0.0000000000000000e+00 -1.0099998168191931e+01 +1.0431584075175238e-03 +0.0000000000000000e+00 +9.9999945591012041e-01
-1.0199999999999980e+01 +9.0396271263882930e+00 +0.0000000000000000e+00 -1.0199998113242465e+01 +1.0534866673026005e-03 +0.0000000000000000e+00 +9.9999944508276695e-01
-1.0299999999999979e+01 +9.0395212613084208e+00 +0.0000000000000000e+00 -1.0299998057204929e+01 +1.0638149306429878e-03 +0.0000000000000000e+00 +9.9999943414873660e-01
-1.0399999999999979e+01 +9.0394143634020736e+00 +0.0000000000000000e+00 -1.0399998000068656e+01 +1.0741431966643999e-03 +0.0000000000000000e+00 +9.9999942310803014e-01
-1.0499999999999979e+01 +9.0393064326690258e+00 +0.0000000000000000e+00 -1.0499997941822979e+01 +1.0844714645213151e-03 +0.0000000000000000e+00 +9.9999941196064845e-01
-1.0599999999999978e+01 +9.0391974691091352e+00 +0.0000000000000000e+00 -1.0599997882457231e+01 +1.0947997333969435e-03 +0.0000000000000000e+00 +9.9999940070659232e-01
-1.0699999999999978e+01 +9.0390874727223398e+00 +0.0000000000000000e+00 -1.0699997821960743e+01 +1.1051280025031931e-03 +0.0000000000000000e+00 +9.9999938934586263e-01
-1.0799999999999978e+01 +9.0389764435086537e+00 +0.0000000000000000e+00 -1.0799997760322848e+01 +1.1154562710806375e-03 +0.0000000000000000e+00 +9.9999937787846016e-01
-1.0899999999999977e+01 +9.0388643814681657e+00 +0.0000000000000000e+00 -1.0899997697532879e+01 +1.1257845383984796e-03 +0.0000000000000000e+00 +9.9999936630438579e-01
-1.0999999999999977e+01 +9.0387512866010393e+00 +0.0000000000000000e+00 -1.0999997633580168e+01 +1.1361128037545173e-03 +0.0000000000000000e+00 +9.9999935462364031e-01
-1.1099999999999977e+01 +9.0386371589075036e+00 +0.0000000000000000e+00 -1.1099997568454050e+01 +1.1464410664751064e-03 +0.0000000000000000e+00 +9.9999934283622460e-01
-1.1199999999999976e+01 +9.0385219983878535e+00 +0.0000000000000000e+00 -1.1199997502143857e+01 +1.1567693259151243e-03 +0.0000000000000000e+00 +9.9999933094213944e-01
-1.1299999999999976e+01 +9.0384058050424496e+00 +0.0000000000000000e+00 -1.1299997434638922e+01 +1.1670975814579310e-03 +0.0000000000000000e+00 +9.9999931894138572e-01
-1.1399999999999975e+01 +9.0382885788717111e+00 +0.0000000000000000e+00 -1.1399997365928577e+01 +1.1774258325153309e-03 +0.0000000000000000e+00 +9.9999930683396421e-01
-1.1499999999999975e+01 +9.0381703198761141e+00 +0.0000000000000000e+00 -1.1499997296002158e+01 +1.1877540785275337e-03 +0.0000000000000000e+00 +9.9999929461987569e-01
-1.1599999999999975e+01 +9.0380510280561914e+00 +0.0000000000000000e+00 -1.1599997224848996e+01 +1.1980823189660635e-03 +0.0000000000000000e+00 +9.9999928229912094e-01
-1.1699999999999974e+01 +9.0379307034125222e+00 +0.0000000000000000e+00 -1.1699997152458426e+01 +1.2084105533661804e-03 +0.0000000000000000e+00 +9.9999926987170074e-01
