# trajectory
# s[mm] rx[mm] ry[mm] rz[mm] px[rad] py[rad] pz[rad]
0.0000000000000000e+00 +9.0449999999999999e+00 +0.0000000000000000e+00 +0.0000000000000000e+00 +0.0000000000000000e+00 +0.0000000000000000e+00 +1.0000000000000000e+00
1.0000000000000001e-01 +9.0449994837949337e+00 +0.0000000000000000e+00 +9.9999999998223552e-02 -1.0324104636852683e-05 +0.0000000000000000e+00 +9.9999999994670641e-01
2.0000000000000001e-01 +9.0449979351784187e+00 +0.0000000000000000e+00 +1.9999999998578838e-01 -2.0648228887659358e-05 +0.0000000000000000e+00 +9.9999999978682530e-01
3.0000000000000004e-01 +9.0449953541485169e+00 +0.0000000000000000e+00 +2.9999999995203569e-01 -3.0972372284559213e-05 +0.0000000000000000e+00 +9.9999999952035601e-01
4.0000000000000002e-01 +9.0449917407033382e+00 +0.0000000000000000e+00 +3.9999999988630663e-01 -4.1296534367608796e-05 +0.0000000000000000e+00 +9.9999999914729809e-01
5.0000000000000000e-01 +9.0449870948410354e+00 +0.0000000000000000e+00 +4.9999999977794229e-01 -5.1620714684782258e-05 +0.0000000000000000e+00 +9.9999999866765088e-01
5.9999999999999998e-01 +9.0449814165598088e+00 +0.0000000000000000e+00 +5.9999999961628381e-01 -6.1944912791971540e-05 +0.0000000000000000e+00 +9.9999999808141382e-01
6.9999999999999996e-01 +9.0449747058579000e+00 +0.0000000000000000e+00 +6.9999999939067203e-01 -7.2269128252986487e-05 +0.0000000000000000e+00 +9.9999999738858647e-01
7.9999999999999993e-01 +9.0449669627335947e+00 +0.0000000000000000e+00 +7.9999999909044806e-01 -8.2593360639554936e-05 +0.0000000000000000e+00 +9.9999999658916827e-01
8.9999999999999991e-01 +9.0449581871852214e+00 +0.0000000000000000e+00 +8.9999999870495273e-01 -9.2917609531322772e-05 +0.0000000000000000e+00 +9.9999999568315878e-01
9.9999999999999989e-01 +9.0449483792111511e+00 +0.0000000000000000e+00 +9.9999999822352681e-01 -1.0324187451585392e-04 +0.0000000000000000e+00 +9.9999999467055756e-01
1.0999999999999999e+00 +9.0449375388097941e+00 +0.0000000000000000e+00 +1.0999999976355110e+00 -1.1356615518863025e-04 +0.0000000000000000e+00 +9.9999999355136404e-01
1.2000000000000000e+00 +9.0449256659796031e+00 +0.0000000000000000e+00 +1.1999999969302464e+00 -1.2389045115305150e-04 +0.0000000000000000e+00 +9.9999999232557790e-01
1.3000000000000000e+00 +9.0449127607190665e+00 +0.0000000000000000e+00 +1.2999999960970734e+00 -1.3421476202043518e-04 +0.0000000000000000e+00 +9.9999999099319870e-01
1.4000000000000001e+00 +9.0448988230267151e+00 +0.0000000000000000e+00 +1.3999999951253328e+00 -1.4453908741001624e-04 +0.0000000000000000e+00 +9.9999998955422598e-01
1.5000000000000002e+00 +9.0448838529011137e+00 +0.0000000000000000e+00 +1.4999999940043653e+00 -1.5486342694894691e-04 +0.0000000000000000e+00 +9.9999998800865930e-01
1.6000000000000003e+00 +9.0448678503408662e+00 +0.0000000000000000e+00 +1.5999999927235116e+00 -1.6518778027229642e-04 +0.0000000000000000e+00 +9.9999998635649845e-01
1.7000000000000004e+00 +9.0448508153446117e+00 +0.0000000000000000e+00 +1.6999999912721120e+00 -1.7551214702305062e-04 +0.0000000000000000e+00 +9.9999998459774297e-01
1.8000000000000005e+00 +9.0448327479110251e+00 +0.0000000000000000e+00 +1.7999999896395071e+00 -1.8583652685211159e-04 +0.0000000000000000e+00 +9.9999998273239243e-01
1.9000000000000006e+00 +9.0448136480388168e+00 +0.0000000000000000e+00 +1.8999999878150373e+00 -1.9616091941829721e-04 +0.0000000000000000e+00 +9.9999998076044661e-01
2.0000000000000004e+00 +9.0447935157267292e+00 +0.0000000000000000e+00 +1.9999999857880433e+00 -2.0648532438834066e-04 +0.0000000000000000e+00 +9.9999997868190516e-01
2.1000000000000005e+00 +9.0447723509735365e+00 +0.0000000000000000e+00 +2.0999999835478653e+00 -2.1680974143669854e-04 +0.0000000000000000e+00 +9.9999997649676775e-01
2.2000000000000006e+00 +9.0447501537780486e+00 +0.0000000000000000e+00 +2.1999999810838435e+00 -2.2713417024344519e-04 +0.0000000000000000e+00 +9.9999997420503406e-01
2.3000000000000007e+00 +9.0447269241391055e+00 +0.0000000000000000e+00 +2.2999999783853187e+00 -2.3745861049216698e-04 +0.0000000000000000e+00 +9.9999997180670375e-01
2.4000000000000008e+00 +9.0447026620555793e+00 +0.0000000000000000e+00 +2.3999999754416308e+00 -2.4778306186977038e-04 +0.0000000000000000e+00 +9.9999996930177659e-01
2.5000000000000009e+00 +9.0446773675263721e+00 +0.0000000000000000e+00 +2.4999999722421204e+00 -2.5810752406648144e-04 +0.0000000000000000e+00 +9.9999996669025237e-01
2.6000000000000010e+00 +9.0446510405504164e+00 +0.0000000000000000e+00 +2.5999999687761277e+00 -2.6843199677584493e-04 +0.0000000000000000e+00 +9.9999996397213087e-01
2.7000000000000011e+00 +9.0446236811266765e+00 +0.0000000000000000e+00 +2.6999999650329931e+00 -2.7875647969472384e-04 +0.0000000000000000e+00 +9.9999996114741174e-01
2.8000000000000012e+00 +9.0445952892541470e+00 +0.0000000000000000e+00 +2.7999999610020567e+00 -2.8908097252329859e-04 +0.0000000000000000e+00 +9.9999995821609478e-01
2.9000000000000012e+00 +9.0445658649318510e+00 +0.0000000000000000e+00 +2.8999999566726586e+00 -2.9940547496506628e-04 +0.0000000000000000e+00 +9.9999995517817974e-01
3.0000000000000013e+00 +9.0445354081588434e+00 +0.0000000000000000e+00 +2.9999999520341394e+00 -3.0972998672683985e-04 +0.0000000000000000e+00 +9.9999995203366643e-01
3.1000000000000014e+00 +9.0445039189342058e+00 +0.0000000000000000e+00 +3.0999999470758386e+00 -3.2005450751874725e-04 +0.0000000000000000e+00 +9.9999994878255472e-01
3.2000000000000015e+00 +9.0444713972570483e+00 +0.0000000000000000e+00 +3.1999999417870968e+00 -3.3037903705423067e-04 +0.0000000000000000e+00 +9.9999994542484438e-01
3.3000000000000016e+00 +9.0444378431265129e+00 +0.0000000000000000e+00 +3.2999999361572541e+00 -3.4070357505004543e-04 +0.0000000000000000e+00 +9.9999994196053521e-01
3.4000000000000017e+00 +9.0444032565417665e+00 +0.0000000000000000e+00 +3.3999999301756505e+00 -3.5102812122625926e-04 +0.0000000000000000e+00 +9.9999993838962709e-01
3.5000000000000018e+00 +9.0443676375020043e+00 +0.0000000000000000e+00 +3.4999999238316262e+00 -3.6135267530625119e-04 +0.0000000000000000e+00 +9.9999993471211979e-01
3.6000000000000019e+00 +9.0443309860064502e+00 +0.0000000000000000e+00 +3.5999999171145212e+00 -3.7167723701671051e-04 +0.0000000000000000e+00 +9.9999993092801320e-01
3.7000000000000020e+00 +9.0442933020543546e+00 +0.0000000000000000e+00 +3.6999999100136756e+00 -3.8200180608763575e-04 +0.0000000000000000e+00 +9.9999992703730722e-01
3.8000000000000020e+00 +9.0442545856449961e+00 +0.0000000000000000e+00 +3.7999999025184295e+00 -3.9232638225233354e-04 +0.0000000000000000e+00 +9.9999992304000174e-01
3.9000000000000021e+00 +9.0442148367776767e+00 +0.0000000000000000e+00 +3.8999998946181229e+00 -4.0265096524741764e-04 +0.0000000000000000e+00 +9.9999991893609663e-01
4.0000000000000018e+00 +9.0441740554517267e+00 +0.0000000000000000e+00 +3.9999998863020956e+00 -4.1297555481280751e-04 +0.0000000000000000e+00 +9.9999991472559180e-01
4.1000000000000014e+00 +9.0441322416665031e+00 +0.0000000000000000e+00 +4.0999998775596875e+00 -4.2330015069283044e-04 +0.0000000000000000e+00 +9.9999991040848701e-01
4.2000000000000011e+00 +9.0440893954213859e+00 +0.0000000000000000e+00 +4.1999998683802398e+00 -4.3362475264835496e-04 +0.0000000000000000e+00 +9.9999990598478239e-01
4.3000000000000007e+00 +9.0440455167157783e+00 +0.0000000000000000e+00 +4.2999998587530914e+00 -4.4394936046892632e-04 +0.0000000000000000e+00 +9.9999990145447770e-01
4.4000000000000004e+00 +9.0440006055491029e+00 +0.0000000000000000e+00 +4.3999998486675826e+00 -4.5427397397387209e-04 +0.0000000000000000e+00 +9.9999989681757284e-01
4.5000000000000000e+00 +9.0439546619207984e+00 +0.0000000000000000e+00 +4.4999998381130526e+00 -4.6459859301230483e-04 +0.0000000000000000e+00 +9.9999989207406770e-01
4.5999999999999996e+00 +9.0439076858303196e+00 +0.0000000000000000e+00 +4.5999998270788423e+00 -4.7492321746312501e-04 +0.0000000000000000e+00 +9.9999988722396227e-01
4.6999999999999993e+00 +9.0438596772771280e+00 +0.0000000000000000e+00 +4.6999998155542917e+00 -4.8524784723502401e-04 +0.0000000000000000e+00 +9.9999988226725633e-01
4.7999999999999989e+00 +9.0438106362606963e+00 +0.0000000000000000e+00 +4.7999998035287401e+00 -4.9557248226648727e-04 +0.0000000000000000e+00 +9.9999987720394978e-01
4.8999999999999986e+00 +9.0437605627805002e+00 +0.0000000000000000e+00 +4.8999997909915285e+00 -5.0589712252579772e-04 +0.0000000000000000e+00 +9.9999987203404239e-01
4.9999999999999982e+00 +9.0437094568360177e+00 +0.0000000000000000e+00 +4.9999997779319960e+00 -5.1622176801103961e-04 +0.0000000000000000e+00 +9.9999986675753416e-01
5.0999999999999979e+00 +9.0436573184267228e+00 +0.0000000000000000e+00 +5.0999997643394819e+00 -5.2654641875010189e-04 +0.0000000000000000e+00 +9.9999986137442476e-01
5.1999999999999975e+00 +9.0436041475520899e+00 +0.0000000000000000e+00 +5.1999997502033271e+00 -5.3687107480068232e-04 +0.0000000000000000e+00 +9.9999985588471407e-01
5.2999999999999972e+00 +9.0435499442115823e+00 +0.0000000000000000e+00 +5.2999997355128716e+00 -5.4719573625029174e-04 +0.0000000000000000e+00 +9.9999985028840188e-01
5.3999999999999968e+00 +9.0434947084046549e+00 +0.0000000000000000e+00 +5.3999997202574548e+00 -5.5752040321625828e-04 +0.0000000000000000e+00 +9.9999984458548785e-01
5.4999999999999964e+00 +9.0434384401307497e+00 +0.0000000000000000e+00 +5.4999997044264157e+00 -5.6784507584573159e-04 +0.0000000000000000e+00 +9.9999983877597187e-01
5.5999999999999961e+00 +9.0433811393892913e+00 +0.0000000000000000e+00 +5.5999996880090954e+00 -5.7816975431568805e-04 +0.0000000000000000e+00 +9.9999983285985361e-01
5.6999999999999957e+00 +9.0433228061796846e+00 +0.0000000000000000e+00 +5.6999996709948331e+00 -5.8849443883293511e-04 +0.0000000000000000e+00 +9.9999982683713273e-01
5.7999999999999954e+00 +9.0432634405013150e+00 +0.0000000000000000e+00 +5.7999996533729687e+00 -5.9881912963411659e-04 +0.0000000000000000e+00 +9.9999982070780891e-01
5.8999999999999950e+00 +9.0432030423535394e+00 +0.0000000000000000e+00 +5.8999996351328416e+00 -6.0914382698571779e-04 +0.0000000000000000e+00 +9.9999981447188180e-01
5.9999999999999947e+00 +9.0431416117356900e+00 +0.0000000000000000e+00 +5.9999996162637919e+00 -6.1946853118407109e-04 +0.0000000000000000e+00 +9.9999980812935096e-01
6.0999999999999943e+00 +9.0430791486470650e+00 +0.0000000000000000e+00 +6.0999995967551586e+00 -6.2979324255348578e-04 +0.0000000000000000e+00 +9.9999980168021607e-01
6.1999999999999940e+00 +9.0430156530869290e+00 +0.0000000000000000e+00 +6.1999995765962819e+00 -6.4011796142562200e-04 +0.0000000000000000e+00 +9.9999979512447668e-01
6.2999999999999936e+00 +9.0429511250545183e+00 +0.0000000000000000e+00 +6.2999995557765009e+00 -6.5044268811885908e-04 +0.0000000000000000e+00 +9.9999978846213233e-01
6.3999999999999932e+00 +9.0428855645490351e+00 +0.0000000000000000e+00 +6.3999995342851550e+00 -6.6076742293641640e-04 +0.0000000000000000e+00 +9.9999978169318249e-01
6.4999999999999929e+00 +9.0428189715696519e+00 +0.0000000000000000e+00 +6.4999995121115841e+00 -6.7109216616634889e-04 +0.0000000000000000e+00 +9.9999977481762681e-01
6.5999999999999925e+00 +9.0427513461155122e+00 +0.0000000000000000e+00 +6.5999994892451275e+00 -6.8141691808154320e-04 +0.0000000000000000e+00 +9.9999976783546485e-01
6.6999999999999922e+00 +9.0426826881857370e+00 +0.0000000000000000e+00 +6.6999994656751243e+00 -6.9174167893971245e-04 +0.0000000000000000e+00 +9.9999976074669616e-01
6.7999999999999918e+00 +9.0426129977794183e+00 +0.0000000000000000e+00 +6.7999994413909137e+00 -7.0206644898339202e-04 +0.0000000000000000e+00 +9.9999975355132020e-01
6.8999999999999915e+00 +9.0425422748956272e+00 +0.0000000000000000e+00 +6.8999994163818350e+00 -7.1239122843993401e-04 +0.0000000000000000e+00 +9.9999974624933663e-01
6.9999999999999911e+00 +9.0424705195334099e+00 +0.0000000000000000e+00 +6.9999993906372273e+00 -7.2271601752150246e-04 +0.0000000000000000e+00 +9.9999973884074489e-01
7.0999999999999908e+00 +9.0423977316917945e+00 +0.0000000000000000e+00 +7.0999993641464298e+00 -7.3304081642506765e-04 +0.0000000000000000e+00 +9.9999973132554465e-01
7.1999999999999904e+00 +9.0423239113697900e+00 +0.0000000000000000e+00 +7.1999993368987827e+00 -7.4336562533240051e-04 +0.0000000000000000e+00 +9.9999972370373535e-01
7.2999999999999901e+00 +9.0422490585663891e+00 +0.0000000000000000e+00 +7.2999993088836241e+00 -7.5369044441006680e-04 +0.0000000000000000e+00 +9.9999971597531667e-01
7.3999999999999897e+00 +9.0421731732805650e+00 +0.0000000000000000e+00 +7.3999992800902925e+00 -7.6401527380942082e-04 +0.0000000000000000e+00 +9.9999970814028816e-01
7.4999999999999893e+00 +9.0420962555112787e+00 +0.0000000000000000e+00 +7.4999992505081279e+00 -7.7434011366659934e-04 +0.0000000000000000e+00 +9.9999970019864926e-01
7.5999999999999890e+00 +9.0420183052574785e+00 +0.0000000000000000e+00 +7.5999992201264686e+00 -7.8466496410251507e-04 +0.0000000000000000e+00 +9.9999969215039963e-01
7.6999999999999886e+00 +9.0419393225181022e+00 +0.0000000000000000e+00 +7.6999991889346537e+00 -7.9498982522284976e-04 +0.0000000000000000e+00 +9.9999968399553896e-01
7.7999999999999883e+00 +9.0418593072920750e+00 +0.0000000000000000e+00 +7.7999991569220226e+00 -8.0531469711804732e-04 +0.0000000000000000e+00 +9.9999967573406667e-01
7.8999999999999879e+00 +9.0417782595783169e+00 +0.0000000000000000e+00 +7.8999991240779135e+00 -8.1563957986330673e-04 +0.0000000000000000e+00 +9.9999966736598245e-01
7.9999999999999876e+00 +9.0416961793757391e+00 +0.0000000000000000e+00 +7.9999990903916656e+00 -8.2596447351857471e-04 +0.0000000000000000e+00 +9.9999965889128595e-01
8.0999999999999872e+00 +9.0416130666832490e+00 +0.0000000000000000e+00 +8.0999990558526171e+00 -8.3628937812962954e-04 +0.0000000000000000e+00 +9.9999965030997673e-01
8.1999999999999869e+00 +9.0415289214997472e+00 +0.0000000000000000e+00 +8.1999990204501074e+00 -8.4661429374008118e-04 +0.0000000000000000e+00 +9.9999964162205446e-01
8.2999999999999865e+00 +9.0414437438241322e+00 +0.0000000000000000e+00 +8.2999989841734738e+00 -8.5693922040337397e-04 +0.0000000000000000e+00 +9.9999963282751869e-01
8.3999999999999861e+00 +9.0413575336552956e+00 +0.0000000000000000e+00 +8.3999989470120564e+00 -8.6726415818387547e-04 +0.0000000000000000e+00 +9.9999962392636910e-01
8.4999999999999858e+00 +9.0412702909921219e+00 +0.0000000000000000e+00 +8.4999989089551935e+00 -8.7758910715687324e-04 +0.0000000000000000e+00 +9.9999961491860523e-01
8.5999999999999854e+00 +9.0411820158334884e+00 +0.0000000000000000e+00 +8.5999988699922234e+00 -8.8791406740857206e-04 +0.0000000000000000e+00 +9.9999960580422664e-01
8.6999999999999851e+00 +9.0410927081782617e+00 +0.0000000000000000e+00 +8.6999988301124844e+00 -8.9823903903609044e-04 +0.0000000000000000e+00 +9.9999959658323290e-01
8.7999999999999847e+00 +9.0410023680252980e+00 +0.0000000000000000e+00 +8.7999987893053149e+00 -9.0856402214745775e-04 +0.0000000000000000e+00 +9.9999958725562355e-01
8.8999999999999844e+00 +9.0409109953734443e+00 +0.0000000000000000e+00 +8.8999987475600548e+00 -9.1888901686161084e-04 +0.0000000000000000e+00 +9.9999957782139814e-01
8.9999999999999840e+00 +9.0408185902215337e+00 +0.0000000000000000e+00 +8.9999987048660408e+00 -9.2921402330839095e-04 +0.0000000000000000e+00 +9.9999956828055614e-01
9.0999999999999837e+00 +9.0407251525683865e+00 +0.0000000000000000e+00 +9.0999986612126111e+00 -9.3953904162854033e-04 +0.0000000000000000e+00 +9.9999955863309709e-01
9.1999999999999833e+00 +9.0406306824128073e+00 +0.0000000000000000e+00 +9.1999986165891059e+00 -9.4986407197369851e-04 +0.0000000000000000e+00 +9.9999954887902054e-01
9.2999999999999829e+00 +9.0405351797535864e+00 +0.0000000000000000e+00 +9.2999985709848616e+00 -9.6018911450639934e-04 +0.0000000000000000e+00 +9.9999953901832583e-01
9.3999999999999826e+00 +9.0404386445894946e+00 +0.0000000000000000e+00 +9.3999985243892166e+00 -9.7051416940006723e-04 +0.0000000000000000e+00 +9.9999952905101253e-01
9.4999999999999822e+00 +9.0403410769192885e+00 +0.0000000000000000e+00 +9.4999984767915091e+00 -9.8083923683901352e-04 +0.0000000000000000e+00 +9.9999951897707995e-01
9.5999999999999819e+00 +9.0402424767417031e+00 +0.0000000000000000e+00 +9.5999984281810775e+00 -9.9116431701843310e-04 +0.0000000000000000e+00 +9.9999950879652755e-01
9.6999999999999815e+00 +9.0401428440554543e+00 +0.0000000000000000e+00 +9.6999983785472601e+00 -1.0014894101444008e-03 +0.0000000000000000e+00 +9.9999949850935477e-01
9.7999999999999812e+00 +9.0400421788592364e+00 +0.0000000000000000e+00 +9.7999983278793952e+00 -1.0118145164338672e-03 +0.0000000000000000e+00 +9.9999948811556094e-01
9.8999999999999808e+00 +9.0399404811517208e+00 +0.0000000000000000e+00 +9.8999982761668193e+00 -1.0221396361146553e-03 +0.0000000000000000e+00 +9.9999947761514552e-01
9.9999999999999805e+00 +9.0398377509315591e+00 +0.0000000000000000e+00 +9.9999982233988707e+00 -1.0324647694254564e-03 +0.0000000000000000e+00 +9.9999946700810771e-01
1.0099999999999980e+01 +9.0397339881973746e+00 +0.0000000000000000e+00 +1.0099998169564888e+01 -1.0427899166152294e-03 +0.0000000000000000e+00 +9.9999945629444686e-01
1.0199999999999980e+01 +9.0396291929477659e+00 +0.0000000000000000e+00 +1.0199998114654207e+01 -1.0531150779366292e-03 +0.0000000000000000e+00 +9.9999944547416231e-01
1.0299999999999979e+01 +9.0395233651813083e+00 +0.0000000000000000e+00 +1.0299998058656167e+01 -1.0634402536394459e-03 +0.0000000000000000e+00 +9.9999943454725337e-01
1.0399999999999979e+01 +9.0394165048965505e+00 +0.0000000000000000e+00 +1.0399998001560103e+01 -1.0737654439700196e-03 +0.0000000000000000e+00 +9.9999942351371929e-01
1.0499999999999979e+01 +9.0393086120920181e+00 +0.0000000000000000e+00 +1.0499997943355355e+01 -1.0840906491712552e-03 +0.0000000000000000e+00 +9.9999941237355927e-01
1.0599999999999978e+01 +9.0391996867662119e+00 +0.0000000000000000e+00 +1.0599997884031261e+01 -1.0944158694826363e-03 +0.0000000000000000e+00 +9.9999940112677277e-01
1.0699999999999978e+01 +9.0390897289176095e+00 +0.0000000000000000e+00 +1.0699997823577156e+01 -1.1047411051402398e-03 +0.0000000000000000e+00 +9.9999938977335889e-01
1.0799999999999978e+01 +9.0389787385446638e+00 +0.0000000000000000e+00 +1.0799997761982379e+01 -1.1150663563767513e-03 +0.0000000000000000e+00 +9.9999937831331698e-01
1.0899999999999977e+01 +9.0388667156458062e+00 +0.0000000000000000e+00 +1.0899997699236266e+01 -1.1253916234214797e-03 +0.0000000000000000e+00 +9.9999936674664625e-01
1.0999999999999977e+01 +9.0387536602194452e+00 +0.0000000000000000e+00 +1.0999997635328155e+01 -1.1357169065003736e-03 +0.0000000000000000e+00 +9.9999935507334592e-01
1.1099999999999977e+01 +9.0386395722639641e+00 +0.0000000000000000e+00 +1.1099997570247382e+01 -1.1460422058360373e-03 +0.0000000000000000e+00 +9.9999934329341533e-01
1.1199999999999976e+01 +9.0385244517777288e+00 +0.0000000000000000e+00 +1.1199997503983283e+01 -1.1563675216477471e-03 +0.0000000000000000e+00 +9.9999933140685371e-01
1.1299999999999976e+01 +9.0384082987590784e+00 +0.0000000000000000e+00 +1.1299997436525198e+01 -1.1666928541514679e-03 +0.0000000000000000e+00 +9.9999931941366027e-01
1.1399999999999975e+01 +9.0382911132063342e+00 +0.0000000000000000e+00 +1.1399997367862461e+01 -1.1770182035598709e-03 +0.0000000000000000e+00 +9.9999930731383413e-01
1.1499999999999975e+01 +9.0381728951177962e+00 +0.0000000000000000e+00 +1.1499997297984411e+01 -1.1873435700823513e-03 +0.0000000000000000e+00 +9.9999929510737462e-01
1.1599999999999975e+01 +9.0380536444917414e+00 +0.0000000000000000e+00 +1.1599997226880383e+01 -1.1976689539250453e-03 +0.0000000000000000e+00 +9.9999928279428096e-01
1.1699999999999974e+01 +9.0379333613264272e+00 +0.0000000000000000e+00 +1.1699997154539714e+01 -1.2079943552908495e-03 +0.0000000000000000e+00 +9.9999927037455238e-01
1.1799999999999974e+01 +9.0378120456200914e+00 +0.0000000000000000e+00 +1.1799997080951739e+01 -1.2183197743794387e-03 +0.0000000000000000e+00 +9.9999925784818811e-01
