# multipoles
# s[mm] polynom_b[n=0][T/m^n] polynom_b[n=1][T/m^n] polynom_b[n=2][T/m^n] polynom_b[n=3][T/m^n] polynom_b[n=4][T/m^n] polynom_b[n=5][T/m^n] polynom_b[n=6][T/m^n] 
+0.0000000000000000e+00 -1.0330626544611952e+00 +2.2920673930345203e+00 +1.7415251150880714e+01 -2.5997645927522836e+01 +2.7948608197233702e+04 +7.6720166291508859e+05 -3.0627661870747279e+07 
+1.0000000000000001e-01 -1.0330666435115243e+00 +2.2919617539544523e+00 +1.7488043795197580e+01 -3.3471286036243832e+01 +2.8076285314848374e+04 +8.2404361237669166e+05 -3.4395992240303636e+07 
+2.0000000000000001e-01 -1.0330705893310352e+00 +2.2918490171206622e+00 +1.7559828137070532e+01 -4.0845648231088809e+01 +2.8205340347110876e+04 +8.8091338019042090e+05 -3.8116474335006058e+07 
+2.9999999999999999e-01 -1.0330744857799634e+00 +2.2917303850356010e+00 +1.7630464250940783e+01 -4.8138156752384909e+01 +2.8335025804088928e+04 +9.3788905842161307e+05 -4.1776346395244211e+07 
+4.0000000000000002e-01 -1.0330783267185493e+00 +2.2916070602450169e+00 +1.7699812212638186e+01 -5.5366236935865700e+01 +2.8464594159030621e+04 +9.9504874456148571e+05 -4.5362846605911411e+07 
+5.0000000000000000e-01 -1.0330821060069335e+00 +2.2914802453467482e+00 +1.7767732085407975e+01 -6.2547315370817493e+01 +2.8593298140859402e+04 +1.0524705419009947e+06 -4.8863214584231578e+07 
+5.9999999999999998e-01 -1.0330858189517120e+00 +2.2913510868474471e+00 +1.7834118834490525e+01 -6.9698093682410089e+01 +2.8720601816031991e+04 +1.1102205863285600e+06 -5.2267934177003160e+07 
+6.9999999999999996e-01 -1.0330894666665011e+00 +2.2912205209574501e+00 +1.7899010378427619e+01 -7.6832908107041234e+01 +2.8846749587983602e+04 +1.1683206107126693e+06 -5.5580092494950354e+07 
+8.0000000000000004e-01 -1.0330930517218531e+00 +2.2910894348748898e+00 +1.7962481186675095e+01 -8.3965637901363522e+01 +2.8972165295239924e+04 +1.2267821124153147e+06 -5.8805837657162264e+07 
+9.0000000000000002e-01 -1.0330965766883389e+00 +2.2909587158242410e+00 +1.8024605727798047e+01 -9.1110162958042409e+01 +2.9097272850735455e+04 +1.2856165914750057e+06 -6.1951318423345029e+07 
+1.0000000000000000e+00 -1.0331000441364921e+00 +2.2908292510596584e+00 +1.8085458458477067e+01 -9.8280363935928847e+01 +2.9222496461596216e+04 +1.3448355514414413e+06 -6.5022685258242339e+07 
+1.1000000000000001e+00 -1.0331034566368333e+00 +2.2907019278639211e+00 +1.8145113828854939e+01 -1.0549012227553224e+02 +2.9348260539558127e+04 +1.4044504996656694e+06 -6.8026089925790712e+07 
+1.2000000000000000e+00 -1.0331068167598942e+00 +2.2905776335372381e+00 +1.8203646282841667e+01 -1.1275331988607782e+02 +2.9474989705493499e+04 +1.4644729455047187e+06 -7.0967685533441722e+07 
+1.3000000000000000e+00 -1.0331101270761840e+00 +2.2904572553975959e+00 +1.8261130254607128e+01 -1.2008383920761788e+02 +2.9603108864426034e+04 +1.5249144008831615e+06 -7.3853626894908816e+07 
+1.3999999999999999e+00 -1.0331133901562226e+00 +2.2903416807785089e+00 +1.8317640169860386e+01 -1.2749556317042149e+02 +2.9733043201590754e+04 +1.5857863801302002e+06 -7.6690070562768161e+07 
+1.5000000000000000e+00 -1.0331166085705314e+00 +2.2902317970225661e+00 +1.8373250444722235e+01 -1.3500237505177375e+02 +2.9865218205509245e+04 +1.6471003992950125e+06 -7.9483174929334983e+07 
+1.6000000000000001e+00 -1.0331197848897018e+00 +2.2901284914710227e+00 +1.8428035494060090e+01 -1.4261815819890333e+02 +3.0000059524626755e+04 +1.7088679746513225e+06 -8.2239099573861718e+07 
+1.7000000000000000e+00 -1.0331229216842730e+00 +2.2900326514772082e+00 +1.8482069714062202e+01 -1.5035679645519292e+02 +3.0137993312665163e+04 +1.7711006252873458e+06 -8.4964006937354594e+07 
+1.8000000000000000e+00 -1.0331260215248443e+00 +2.2899451643830733e+00 +1.8535427495563859e+01 -1.5823217351889656e+02 +3.0279445982933605e+04 +1.8338098695059561e+06 -8.7664061162487909e+07 
+1.8999999999999999e+00 -1.0331290869820531e+00 +2.2898669175286703e+00 +1.8588183221148558e+01 -1.6625817324869931e+02 +3.0424844278265427e+04 +1.8970072267386531e+06 -9.0345428455276653e+07 
+2.0000000000000000e+00 -1.0331321206265653e+00 +2.2897987982413968e+00 +1.8640411262228103e+01 -1.7444867938098042e+02 +3.0574615332995163e+04 +1.9607042159835761e+06 -9.3014277389250055e+07 
+2.1000000000000001e+00 -1.0331351250291121e+00 +2.2897416938363691e+00 +1.8692185984070001e+01 -1.8281757558359678e+02 +3.0729186590213325e+04 +2.0249123562810344e+06 -9.5676778534819528e+07 
+2.2000000000000002e+00 -1.0331381027604318e+00 +2.2896964916058535e+00 +1.8743581735164803e+01 -1.9137874518376884e+02 +3.0888986023143090e+04 +2.0896431652479081e+06 -9.8339105555661321e+07 
+2.2999999999999998e+00 -1.0331410563913570e+00 +2.2896640788249787e+00 +1.8794672859036702e+01 -2.0014607135763859e+02 +3.1054441909830912e+04 +2.1549081602548654e+06 -1.0100743412446240e+08 
+2.3999999999999999e+00 -1.0331439884927611e+00 +2.2896453427421735e+00 +1.8845533686859248e+01 -2.0913343690016541e+02 +3.1225982991886653e+04 +2.2207188572816765e+06 -1.0368794271595526e+08 
+2.5000000000000000e+00 -1.0331469016356007e+00 +2.2896411705697042e+00 +1.8896238540619301e+01 -2.1835472399777603e+02 +3.1404038422809346e+04 +2.2870867697700402e+06 -1.0638681236976598e+08 
+2.6000000000000001e+00 -1.0331497974975474e+00 +2.2896522397524106e+00 +1.8946837770237885e+01 -2.2782095960835375e+02 +3.1588875113809467e+04 +2.3540240528453230e+06 -1.0910834733653656e+08 
+2.7000000000000002e+00 -1.0331526742438679e+00 +2.2896783449600107e+00 +1.8997301201724458e+01 -2.3753007525730314e+02 +3.1779839062235314e+04 +2.4215367798193395e+06 -1.1184845338876376e+08 
+2.7999999999999998e+00 -1.0331555291771508e+00 +2.2897190488861034e+00 +1.9047582471381343e+01 -2.4747631103786904e+02 +3.1975974733015351e+04 +2.4896274489021464e+06 -1.1460069754733641e+08 
+2.8999999999999999e+00 -1.0331583596000775e+00 +2.2897739142300040e+00 +1.9097635224027723e+01 -2.5765390655616750e+02 +3.2176326428209781e+04 +2.5582985535115344e+06 -1.1735864603477447e+08 
+3.0000000000000000e+00 -1.0331611628153707e+00 +2.2898425037050369e+00 +1.9147413111798002e+01 -2.6805710106304070e+02 +3.2379938301016016e+04 +2.6275525826164312e+06 -1.2011586429476206e+08 
+3.1000000000000001e+00 -1.0331639361258822e+00 +2.2899243800425277e+00 +1.9196869802745095e+01 -2.7868013353162360e+02 +3.2585854173377575e+04 +2.6973920210600179e+06 -1.2286591606365691e+08 
+3.2000000000000002e+00 -1.0331666768344430e+00 +2.2900191059812149e+00 +1.9245958962330757e+01 -2.8951724226438643e+02 +3.2793117888904730e+04 +2.7678193470462025e+06 -1.2560236504820241e+08 
+3.2999999999999998e+00 -1.0331693822440700e+00 +2.2901262442795658e+00 +1.9294634283354132e+01 -3.0056266518049438e+02 +3.3000772713678227e+04 +2.8388370336495442e+06 -1.2831877198159896e+08 
+3.3999999999999999e+00 -1.0331720496578050e+00 +2.2902453577080535e+00 +1.9342849463671698e+01 -3.1181063953538552e+02 +3.3207861766550457e+04 +2.9104475470329304e+06 -1.3100869668825459e+08 
+3.5000000000000000e+00 -1.0331746763788150e+00 +2.2903760090588872e+00 +1.9390558220385849e+01 -3.2325540212077823e+02 +3.3413427720591739e+04 +2.9826533473790102e+06 -1.3366569656930573e+08 
+3.6000000000000001e+00 -1.0331772597103313e+00 +2.2905177611358800e+00 +1.9437714284297307e+01 -3.3489118891209148e+02 +3.3616512908708522e+04 +3.0554568867259426e+06 -1.3628332710613298e+08 
+3.7000000000000002e+00 -1.0331797969557113e+00 +2.2906701767631197e+00 +1.9484271407510217e+01 -3.4671223523723609e+02 +3.3816159157156959e+04 +3.1288606097016903e+06 -1.3885514099639010e+08 
+3.7999999999999998e+00 -1.0331822854183812e+00 +2.2908328187887759e+00 +1.9530183356147766e+01 -3.5871277584633231e+02 +3.4011407920001941e+04 +3.2028669538339321e+06 -1.4137468877906319e+08 
+3.8999999999999999e+00 -1.0331847224019097e+00 +2.2910052500720135e+00 +1.9575403923216662e+01 -3.7088704442912717e+02 +3.4201300018062160e+04 +3.2774783464980060e+06 -1.4383551753761253e+08 
+4.0000000000000000e+00 -1.0331871052099673e+00 +2.2911870335008935e+00 +1.9619886920400333e+01 -3.8322927409456463e+02 +3.4384875780327464e+04 +3.3526972075568601e+06 -1.4623117152784932e+08 
+4.0999999999999996e+00 -1.0331894311462844e+00 +2.2913777319788564e+00 +1.9663586178575738e+01 -3.9573369687818598e+02 +3.4561175029590959e+04 +3.4285259462958681e+06 -1.4855519209067568e+08 
+4.2000000000000002e+00 -1.0331916975148074e+00 +2.2915769084369750e+00 +1.9706455563632225e+01 -4.0839454406530223e+02 +3.4729236758121719e+04 +3.5049669631638904e+06 -1.5080111603410208e+08 
+4.2999999999999998e+00 -1.0331939016195173e+00 +2.2917841258258052e+00 +1.9748448957409543e+01 -4.2120604586533062e+02 +3.4888099490348082e+04 +3.5820226476909420e+06 -1.5296247735718727e+08 
+4.4000000000000004e+00 -1.0331960407645597e+00 +2.2919989471232887e+00 +1.9789520273313517e+01 -4.3416243156407046e+02 +3.5036800966450304e+04 +3.6596953791382723e+06 -1.5503280568060192e+08 
+4.5000000000000000e+00 -1.0331981122542120e+00 +2.2922209353270100e+00 +1.9829623455025242e+01 -4.4725792918905972e+02 +3.5174378164419737e+04 +3.7379875247885985e+06 -1.5700562630354896e+08 
+4.5999999999999996e+00 -1.0332001139470881e+00 +2.2924496444182885e+00 +1.9868695228266169e+01 -4.6048396275716766e+02 +3.5300671155156342e+04 +3.8168825944431215e+06 -1.5887896704266974e+08 
+4.7000000000000002e+00 -1.0332020456848761e+00 +2.2926846924126112e+00 +1.9906569980710959e+01 -4.7382385925677710e+02 +3.5419272424270304e+04 +3.8963042087692847e+06 -1.6067126315391240e+08 
+4.7999999999999998e+00 -1.0332039077450099e+00 +2.2929257398609098e+00 +1.9943047593830084e+01 -4.8725972143369609e+02 +3.5534862248555175e+04 +3.9761650195535542e+06 -1.6240672354072419e+08 
+4.9000000000000004e+00 -1.0332057004048982e+00 +2.2931724473309401e+00 +1.9977927937265022e+01 -5.0077365225217642e+02 +3.5652121054599433e+04 +4.0563776789286528e+06 -1.6410955753476274e+08 
+5.0000000000000000e+00 -1.0332074239418700e+00 +2.2934244753848168e+00 +2.0011010865881211e+01 -5.1434775423583540e+02 +3.5775729463699463e+04 +4.1368548357095541e+06 -1.6580397508672875e+08 
+5.0999999999999996e+00 -1.0332090786332415e+00 +2.2936814845849547e+00 +2.0042096227123952e+01 -5.2796412967187075e+02 +3.5910368141588893e+04 +4.2175091366609819e+06 -1.6751418602401194e+08 
+5.2000000000000002e+00 -1.0332106647562571e+00 +2.2939431354941169e+00 +2.0070983852009800e+01 -5.4160488062928664e+02 +3.6060717975071544e+04 +4.2982532266625827e+06 -1.6926440090291956e+08 
+5.2999999999999998e+00 -1.0332121825880940e+00 +2.2942090886730524e+00 +2.0097473558077287e+01 -5.5525210891244240e+02 +3.6231460000889136e+04 +4.3789997485341392e+06 -1.7107883062525415e+08 
+5.4000000000000004e+00 -1.0332136324058938e+00 +2.2944790046797561e+00 +2.0121365150553299e+01 -5.6888791603893162e+02 +3.6427275389788359e+04 +4.4596613428920358e+06 -1.7298168638382226e+08 
+5.5000000000000000e+00 -1.0332150144866563e+00 +2.2947525440697896e+00 +2.0142458411727720e+01 -5.8249440330447783e+02 +3.6652845633756617e+04 +4.5401506487283893e+06 -1.7499718050367278e+08 
+5.5999999999999996e+00 -1.0332163291074077e+00 +2.2950293673956859e+00 +2.0160553117947636e+01 -5.9605367175416927e+02 +3.6912852227245428e+04 +4.6203803031849517e+06 -1.7714952494247526e+08 
+5.7000000000000002e+00 -1.0332175765450053e+00 +2.2953091352061867e+00 +2.0175449018556009e+01 -6.0954782219534854e+02 +3.7211977058760895e+04 +4.7002629417762123e+06 -1.7946293312374225e+08 
+5.7999999999999998e+00 -1.0332187570762756e+00 +2.2955915080464759e+00 +2.0186945850775579e+01 -6.2295895521647606e+02 +3.7554902125961278e+04 +4.7797111985199051e+06 -1.8196161857744825e+08 
+5.9000000000000004e+00 -1.0332198709779170e+00 +2.2958761464557806e+00 +2.0194843328783247e+01 -6.3626917114126013e+02 +3.7946309735079849e+04 +4.8586377057777932e+06 -1.8466979585924023e+08 
+6.0000000000000000e+00 -1.0332209185265540e+00 +2.2961627109691016e+00 +2.0198941149597765e+01 -6.4946057009245487e+02 +3.8390882391231818e+04 +4.9369550946596963e+06 -1.8761168003992510e+08 
+6.0999999999999996e+00 -1.0332218999987182e+00 +2.2964508621146247e+00 +2.0199038988895815e+01 -6.6251525194344072e+02 +3.8893302866171900e+04 +5.0145759948074762e+06 -1.9081148698987249e+08 
+6.2000000000000002e+00 -1.0332228156707577e+00 +2.2967402604147096e+00 +2.0194936493063715e+01 -6.7541531635823765e+02 +3.9458254354120203e+04 +5.0914130347402599e+06 -1.9429343413209501e+08 
+6.2999999999999998e+00 -1.0332236658190330e+00 +2.2970305663838477e+00 +2.0186433300315233e+01 -6.8814286276239818e+02 +4.0090420055421520e+04 +5.1673788417115407e+06 -1.9808173841868055e+08 
+6.4000000000000004e+00 -1.0332244507196775e+00 +2.2973214405280520e+00 +2.0173329011141181e+01 -7.0067999032754017e+02 +4.0794483744117540e+04 +5.2423860416697338e+06 -2.0220061904900381e+08 
+6.5000000000000000e+00 -1.0332251706487396e+00 +2.2976125433323711e+00 +2.0155423206152197e+01 -7.1300879743023017e+02 +4.1575129442989979e+04 +5.3163472531580590e+06 -2.0667429619550341e+08 
+6.5999999999999996e+00 -1.0332258264766765e+00 +2.2979035714612688e+00 +2.0132591488481559e+01 -7.2511480929301638e+02 +4.2435841041693799e+04 +5.3891867554511847e+06 -2.1152217855773532e+08 
+6.7000000000000002e+00 -1.0332264218493996e+00 +2.2981943027315550e+00 +2.0105067697787902e+01 -7.3699691783878893e+02 +4.3374433254271287e+04 +5.4608767588398522e+06 -2.1673974184711051e+08 
+6.7999999999999998e+00 -1.0332269612042446e+00 +2.2984845152520004e+00 +2.0073188855273568e+01 -7.4865717390185785e+02 +4.4387088928102654e+04 +5.5314006024374394e+06 -2.2231532658266258e+08 
+6.9000000000000004e+00 -1.0332274489784588e+00 +2.2987739870426567e+00 +2.0037291977553124e+01 -7.6009762785397788e+02 +4.5469991016034532e+04 +5.6007416308417246e+06 -2.2823727324056870e+08 
+7.0000000000000000e+00 -1.0332278896092275e+00 +2.2990624960389376e+00 +1.9997714080049359e+01 -7.7132032979618555e+02 +4.6619322515211643e+04 +5.6688831989882030e+06 -2.3449392224331731e+08 
+7.0999999999999996e+00 -1.0332282875336685e+00 +2.2993498200944766e+00 +1.9954792176662504e+01 -7.8232732971551388e+02 +4.7831266463517648e+04 +5.7358086734487023e+06 -2.4107361390922651e+08 
+7.2000000000000002e+00 -1.0332286471888492e+00 +2.2996357369781113e+00 +1.9908863280141752e+01 -7.9312067751788686e+02 +4.9102005944047123e+04 +5.8015014331611125e+06 -2.4796468849513760e+08 
+7.2999999999999998e+00 -1.0332289730117374e+00 +2.2999200243675948e+00 +1.9860264400640379e+01 -8.0370242289403450e+02 +5.0427724115292796e+04 +5.8659448690295462e+06 -2.5515548633745113e+08 
+7.4000000000000004e+00 -1.0332292694392378e+00 +2.3002024598530659e+00 +1.9809332544408935e+01 -8.1407461555698342e+02 +5.1804604232057769e+04 +5.9291223858174141e+06 -2.6263434793384916e+08 
+7.5000000000000000e+00 -1.0332295409081771e+00 +2.3004828209237576e+00 +1.9756404718143322e+01 -8.2423930491420515e+02 +5.3228829568240697e+04 +5.9910174006747287e+06 -2.7038961358091092e+08 
+7.5999999999999996e+00 -1.0332297918553250e+00 +2.3007608849733439e+00 +1.9701817927671637e+01 -8.3419854033174079e+02 +5.4696583445995602e+04 +6.0516133451460805e+06 -2.7840962351456809e+08 
+7.7000000000000002e+00 -1.0332300267173284e+00 +2.3010364292974148e+00 +1.9645909173388926e+01 -8.4395437113795083e+02 +5.6204049322038132e+04 +6.1108936656338423e+06 -2.8668271831055772e+08 
+7.7999999999999998e+00 -1.0332302499307522e+00 +2.3013092310862313e+00 +1.9589015453959572e+01 -8.5350884651619299e+02 +5.7747410719814434e+04 +6.1688418232559552e+06 -2.9519723856034636e+08 
+7.9000000000000004e+00 -1.0332304659321203e+00 +2.3015790674205281e+00 +1.9531473770728436e+01 -8.6286401547233152e+02 +5.9322851148667898e+04 +6.2254412940954100e+06 -3.0394152448586857e+08 
+8.0000000000000000e+00 -1.0332306791578405e+00 +2.3018457152791165e+00 +1.9473621121002409e+01 -8.7202192713900638e+02 +6.0926554235258664e+04 +6.2806755714357086e+06 -3.1290391656429631e+08 
+8.0999999999999996e+00 -1.0332308940442247e+00 +2.3021089515199695e+00 +1.9415794499474391e+01 -8.8098463032558709e+02 +6.2554703694917538e+04 +6.3345281636062656e+06 -3.2207275538188690e+08 
+8.1999999999999993e+00 -1.0332311150274798e+00 +2.3023685528912305e+00 +1.9358330898692657e+01 -8.8975417391594021e+02 +6.4203483329547955e+04 +6.3869825967393909e+06 -3.3143638162866926e+08 
+8.3000000000000007e+00 -1.0332313465437508e+00 +2.3026242960216114e+00 +1.9301567312632404e+01 -8.9833260670533912e+02 +6.5869076955872399e+04 +6.4380224143117378e+06 -3.4098313574146253e+08 
+8.4000000000000004e+00 -1.0332315930290581e+00 +2.3028759574192454e+00 +1.9245840731442502e+01 -9.0672197743307311e+02 +6.7547668514989768e+04 +6.4876311777639743e+06 -3.5070135844151300e+08 
+8.5000000000000000e+00 -1.0332318589194374e+00 +2.3031233135646918e+00 +1.9191488168644455e+01 -9.1492433911428168e+02 +6.9235441318960962e+04 +6.5357925022026598e+06 -3.6057938582513809e+08 
+8.5999999999999996e+00 -1.0332321475097483e+00 +2.3033660907047224e+00 +1.9138820678458611e+01 -9.2293895854015693e+02 +7.0927883087684982e+04 +6.5824848482464245e+06 -3.7059874512216598e+08 
+8.6999999999999993e+00 -1.0332324574316665e+00 +2.3036035038550815e+00 +1.9088041080245731e+01 -9.3073961706621162e+02 +7.2617490115909430e+04 +6.6275697334380308e+06 -3.8071324074832064e+08 
+8.8000000000000007e+00 -1.0332327861461432e+00 +2.3038345584370892e+00 +1.9039328827034641e+01 -9.3828993811113526e+02 +7.4295809517403337e+04 +6.6708550943579609e+06 -3.9086873718477356e+08 
+8.9000000000000004e+00 -1.0332331311136633e+00 +2.3040582598778649e+00 +1.8992863323086745e+01 -9.4555353884943099e+02 +7.5954388748584461e+04 +6.7121488091616165e+06 -4.0101109903922331e+08 
+9.0000000000000000e+00 -1.0332334897940585e+00 +2.3042736137402571e+00 +1.8948823887076475e+01 -9.5249403558773190e+02 +7.7584776658483417e+04 +6.7512587260727920e+06 -4.1108619658844966e+08 
+9.0999999999999996e+00 -1.0332338596465647e+00 +2.3044796257306022e+00 +1.8907389755450783e+01 -9.5907504387568815e+02 +7.9178523422043334e+04 +6.7879926633090256e+06 -4.2103990545024049e+08 
+9.1999999999999993e+00 -1.0332342381297996e+00 +2.3046753016923014e+00 +1.8868740081566418e+01 -9.6526017817937725e+02 +8.0727180552046077e+04 +6.8221584064414380e+06 -4.3081810662738186e+08 
+9.3000000000000007e+00 -1.0332346227016991e+00 +2.3048596476260461e+00 +1.8833053928434378e+01 -9.7101305229495927e+02 +8.2222301028678849e+04 +6.8535637099493500e+06 -4.4036668709432262e+08 
+9.4000000000000004e+00 -1.0332350108195310e+00 +2.3050316696844919e+00 +1.8800510268761293e+01 -9.7629727906945413e+02 +8.3655439292272567e+04 +6.8820162948672082e+06 -4.4963153973997802e+08 
+9.5000000000000000e+00 -1.0332353999398947e+00 +2.3051903741769224e+00 +1.8771287985088055e+01 -9.8107647037931190e+02 +8.5018151239932937e+04 +6.9073238478435744e+06 -4.5855856334842688e+08 
+9.5999999999999996e+00 -1.0332357875186855e+00 +2.3053347675797333e+00 +1.8745565865138285e+01 -9.8531423729383255e+02 +8.6301994305495420e+04 +6.9292940213396121e+06 -4.6709366295116276e+08 
+9.6999999999999993e+00 -1.0332361710110671e+00 +2.3054638565325662e+00 +1.8723522597898391e+01 -9.8897418982133286e+02 +8.7498527528571052e+04 +6.9477344313735683e+06 -4.7518275013588959e+08 
+9.8000000000000007e+00 -1.0332365478714749e+00 +2.3055766478506294e+00 +1.8705336775930878e+01 -9.9201993710103034e+02 +8.8599311508770465e+04 +6.9624526578368004e+06 -4.8277174282183152e+08 
+9.9000000000000004e+00 -1.0332369155536132e+00 +2.3056721485235276e+00 +1.8691186890761326e+01 -9.9441508725198207e+02 +8.9595908476796234e+04 +6.9732562428392274e+06 -4.8980656554685122e+08 
+1.0000000000000000e+01 -1.0332372715103988e+00 +2.3057493657281531e+00 +1.8681251330207946e+01 -9.9612324757009299e+02 +9.0479882357161376e+04 +6.9799526910907524e+06 -4.9623314979500449e+08 
+1.0100000000000000e+01 -1.0332376131940000e+00 +2.3058073068187417e+00 +1.8675708379002391e+01 -9.9710802412392411e+02 +9.1242798737432284e+04 +6.9823494667707905e+06 -5.0199743379479319e+08 
