# field on trajectory
# s[mm] rx[mm] ry[mm] rz[mm] bx[T] by[T] bz[T]
0.0000000000000000e+00 +9.1196999999999999e+00 +0.0000000000000000e+00 +0.0000000000000000e+00 +7.8458755769271384e-03 -1.0334454474237493e+00 -5.8606268896007847e-02
1.0000000000000001e-01 +9.1196994836348200e+00 +0.0000000000000000e+00 +9.9999999998222455e-02 +7.8458651543106966e-03 -1.0334449238145702e+00 -5.8606720040909145e-02
2.0000000000000001e-01 +9.1196979345396318e+00 +0.0000000000000000e+00 +1.9999999998577958e-01 +7.8458412745450665e-03 -1.0334443710527628e+00 -5.8607158474438627e-02
3.0000000000000004e-01 +9.1196953527149880e+00 +0.0000000000000000e+00 +2.9999999995200610e-01 +7.8458024304286136e-03 -1.0334438011999589e+00 -5.8607584621875077e-02
4.0000000000000002e-01 +9.1196917381614568e+00 +0.0000000000000000e+00 +3.9999999988623675e-01 +7.8457471147606924e-03 -1.0334432263179270e+00 -5.8607998908605206e-02
5.0000000000000000e-01 +9.1196870908796139e+00 +0.0000000000000000e+00 +4.9999999977780618e-01 +7.8456738203550348e-03 -1.0334426584686449e+00 -5.8608401760135459e-02
5.9999999999999998e-01 +9.1196814108700242e+00 +0.0000000000000000e+00 +5.9999999961604922e-01 +7.8455816234211939e-03 -1.0334421079693086e+00 -5.8608793789699208e-02
6.9999999999999996e-01 +9.1196746981332382e+00 +0.0000000000000000e+00 +6.9999999939030066e-01 +7.8454719336805145e-03 -1.0334415781572013e+00 -5.8609176361027818e-02
7.9999999999999993e-01 +9.1196669526697871e+00 +0.0000000000000000e+00 +7.9999999908989528e-01 +7.8453467442707141e-03 -1.0334410706247987e+00 -5.8609551025509556e-02
8.9999999999999991e-01 +9.1196581744801790e+00 +0.0000000000000000e+00 +8.9999999870416780e-01 +7.8452080483885356e-03 -1.0334405869648244e+00 -5.8609919334566538e-02
9.9999999999999989e-01 +9.1196483635648971e+00 +0.0000000000000000e+00 +9.9999999822245311e-01 +7.8450578393009264e-03 -1.0334401287702593e+00 -5.8610282839633633e-02
1.0999999999999999e+00 +9.1196375199244013e+00 +0.0000000000000000e+00 +1.0999999976340860e+00 +7.8448981103561820e-03 -1.0334396976343523e+00 -5.8610643092136802e-02
1.2000000000000000e+00 +9.1196256435591216e+00 +0.0000000000000000e+00 +1.1999999969284012e+00 +7.8447308549951557e-03 -1.0334392951506302e+00 -5.8611001643471834e-02
1.3000000000000000e+00 +9.1196127344694631e+00 +0.0000000000000000e+00 +1.2999999960947337e+00 +7.8445580667623922e-03 -1.0334389229129075e+00 -5.8611360044982991e-02
1.4000000000000001e+00 +9.1195987926557986e+00 +0.0000000000000000e+00 +1.3999999951224185e+00 +7.8443817393173253e-03 -1.0334385825152985e+00 -5.8611719847941460e-02
1.5000000000000002e+00 +9.1195838181184694e+00 +0.0000000000000000e+00 +1.4999999940007902e+00 +7.8442038664454147e-03 -1.0334382755522240e+00 -5.8612082603524032e-02
1.6000000000000003e+00 +9.1195678108577827e+00 +0.0000000000000000e+00 +1.5999999927191839e+00 +7.8440264420693590e-03 -1.0334380036184263e+00 -5.8612449862791773e-02
1.7000000000000004e+00 +9.1195507708740138e+00 +0.0000000000000000e+00 +1.6999999912669344e+00 +7.8438514602602108e-03 -1.0334377683089753e+00 -5.8612823176668487e-02
1.8000000000000005e+00 +9.1195326981673972e+00 +0.0000000000000000e+00 +1.7999999896333763e+00 +7.8436809152485926e-03 -1.0334375712192798e+00 -5.8613204095919413e-02
1.9000000000000006e+00 +9.1195135927381337e+00 +0.0000000000000000e+00 +1.8999999878078446e+00 +7.8435168014358257e-03 -1.0334374139450992e+00 -5.8613594171129775e-02
2.0000000000000004e+00 +9.1194934545863813e+00 +0.0000000000000000e+00 +1.9999999857796744e+00 +7.8433611134051100e-03 -1.0334372980825517e+00 -5.8613994952683331e-02
2.1000000000000005e+00 +9.1194722837122590e+00 +0.0000000000000000e+00 +2.0999999835382006e+00 +7.8432158459326873e-03 -1.0334372252281268e+00 -5.8614407990741073e-02
2.2000000000000006e+00 +9.1194500801158398e+00 +0.0000000000000000e+00 +2.1999999810727577e+00 +7.8430829939990006e-03 -1.0334371969786924e+00 -5.8614834835219759e-02
2.3000000000000007e+00 +9.1194268437971555e+00 +0.0000000000000000e+00 +2.2999999783726808e+00 +7.8429645527998554e-03 -1.0334372149315085e+00 -5.8615277035770470e-02
2.4000000000000008e+00 +9.1194025747561902e+00 +0.0000000000000000e+00 +2.3999999754273045e+00 +7.8428625177575668e-03 -1.0334372806842345e+00 -5.8615736141757212e-02
2.5000000000000009e+00 +9.1193772729928799e+00 +0.0000000000000000e+00 +2.4999999722259640e+00 +7.8427788845321401e-03 -1.0334373958349410e+00 -5.8616213702235555e-02
2.6000000000000010e+00 +9.1193509385071145e+00 +0.0000000000000000e+00 +2.5999999687579938e+00 +7.8427149452810988e-03 -1.0334375606947903e+00 -5.8616710449580271e-02
2.7000000000000011e+00 +9.1193235712987306e+00 +0.0000000000000000e+00 +2.6999999650127289e+00 +7.8426691772367479e-03 -1.0334377704260205e+00 -5.8617223850538032e-02
2.8000000000000012e+00 +9.1192951713675221e+00 +0.0000000000000000e+00 +2.7999999609795041e+00 +7.8426393536388476e-03 -1.0334380189038757e+00 -5.8617750555502370e-02
2.9000000000000012e+00 +9.1192657387132439e+00 +0.0000000000000000e+00 +2.8999999566476538e+00 +7.8426232474060817e-03 -1.0334383000039271e+00 -5.8618287214911725e-02
3.0000000000000013e+00 +9.1192352733356206e+00 +0.0000000000000000e+00 +2.9999999520065130e+00 +7.8426186310968961e-03 -1.0334386076020754e+00 -5.8618830479264424e-02
3.1000000000000014e+00 +9.1192037752343467e+00 +0.0000000000000000e+00 +3.0999999470454167e+00 +7.8426232768704050e-03 -1.0334389355745472e+00 -5.8619376999133999e-02
3.2000000000000015e+00 +9.1191712444090989e+00 +0.0000000000000000e+00 +3.1999999417536991e+00 +7.8426349564472645e-03 -1.0334392777979005e+00 -5.8619923425184323e-02
3.3000000000000016e+00 +9.1191376808595397e+00 +0.0000000000000000e+00 +3.2999999361206953e+00 +7.8426514410705368e-03 -1.0334396281490172e+00 -5.8620466408184767e-02
3.4000000000000017e+00 +9.1191030845853227e+00 +0.0000000000000000e+00 +3.3999999301357398e+00 +7.8426705014665848e-03 -1.0334399805051100e+00 -5.8621002599025453e-02
3.5000000000000018e+00 +9.1190674555860998e+00 +0.0000000000000000e+00 +3.4999999237881672e+00 +7.8426899078059206e-03 -1.0334403287437182e+00 -5.8621528648732317e-02
3.6000000000000019e+00 +9.1190307938615263e+00 +0.0000000000000000e+00 +3.5999999170673123e+00 +7.8427074296641280e-03 -1.0334406667427090e+00 -5.8622041208482481e-02
3.7000000000000020e+00 +9.1189930994112700e+00 +0.0000000000000000e+00 +3.6999999099625098e+00 +7.8427208359827041e-03 -1.0334409883802786e+00 -5.8622536929619322e-02
3.8000000000000020e+00 +9.1189543722350148e+00 +0.0000000000000000e+00 +3.7999999024630942e+00 +7.8427278950299519e-03 -1.0334412875349501e+00 -5.8623012463667690e-02
3.9000000000000021e+00 +9.1189146123324658e+00 +0.0000000000000000e+00 +3.8999998945584000e+00 +7.8427263743618605e-03 -1.0334415580855749e+00 -5.8623464462349180e-02
4.0000000000000018e+00 +9.1188738197033565e+00 +0.0000000000000000e+00 +3.9999998862377621e+00 +7.8427140407829870e-03 -1.0334417939113323e+00 -5.8623889577597267e-02
4.1000000000000014e+00 +9.1188319943474578e+00 +0.0000000000000000e+00 +4.0999998774905153e+00 +7.8426886603073301e-03 -1.0334419888917301e+00 -5.8624284461572529e-02
4.2000000000000011e+00 +9.1187891362645779e+00 +0.0000000000000000e+00 +4.1999998683059943e+00 +7.8426479981192204e-03 -1.0334421369066042e+00 -5.8624645766677932e-02
4.3000000000000007e+00 +9.1187452454545745e+00 +0.0000000000000000e+00 +4.2999998586735337e+00 +7.8425898185341906e-03 -1.0334422318361181e+00 -5.8624970145573975e-02
4.4000000000000004e+00 +9.1187003219173590e+00 +0.0000000000000000e+00 +4.3999998485824676e+00 +7.8425118849598796e-03 -1.0334422675607644e+00 -5.8625254251193970e-02
4.5000000000000000e+00 +9.1186543656528993e+00 +0.0000000000000000e+00 +4.4999998380221315e+00 +7.8424119598568872e-03 -1.0334422379613641e+00 -5.8625494736759279e-02
4.5999999999999996e+00 +9.1186073766612328e+00 +0.0000000000000000e+00 +4.5999998269818603e+00 +7.8422884786135162e-03 -1.0334421400229123e+00 -5.8625689231777807e-02
4.6999999999999993e+00 +9.1185593549424588e+00 +0.0000000000000000e+00 +4.6999998154509877e+00 +7.8421425718192845e-03 -1.0334419831451149e+00 -5.8625839269965681e-02
4.7999999999999989e+00 +9.1185103004967392e+00 +0.0000000000000000e+00 +4.7999998034188494e+00 +7.8419760444948909e-03 -1.0334417798288900e+00 -5.8625947361189222e-02
4.8999999999999986e+00 +9.1184602133242816e+00 +0.0000000000000000e+00 +4.8999997908747801e+00 +7.8417907023577253e-03 -1.0334415425720658e+00 -5.8626016015462093e-02
4.9999999999999982e+00 +9.1184090934253277e+00 +0.0000000000000000e+00 +4.9999997778081147e+00 +7.8415883518728052e-03 -1.0334412838692111e+00 -5.8626047742950556e-02
5.0999999999999979e+00 +9.1183569408001404e+00 +0.0000000000000000e+00 +5.0999997642081878e+00 +7.8413708003036240e-03 -1.0334410162114596e+00 -5.8626045053978421e-02
5.1999999999999975e+00 +9.1183037554489914e+00 +0.0000000000000000e+00 +5.1999997500643342e+00 +7.8411398557630928e-03 -1.0334407520863453e+00 -5.8626010459032298e-02
5.2999999999999972e+00 +9.1182495373721490e+00 +0.0000000000000000e+00 +5.2999997353658896e+00 +7.8408973272644043e-03 -1.0334405039776260e+00 -5.8625946468766503e-02
5.3999999999999968e+00 +9.1181942865698655e+00 +0.0000000000000000e+00 +5.3999997201021879e+00 +7.8406450247719608e-03 -1.0334402843651140e+00 -5.8625855594008444e-02
5.4999999999999964e+00 +9.1181380030423664e+00 +0.0000000000000000e+00 +5.4999997042625646e+00 +7.8403847592522502e-03 -1.0334401057245062e+00 -5.8625740345763441e-02
5.5999999999999961e+00 +9.1180806867898347e+00 +0.0000000000000000e+00 +5.5999996878363545e+00 +7.8401183427247566e-03 -1.0334399805272121e+00 -5.8625603235220002e-02
5.6999999999999957e+00 +9.1180223378124001e+00 +0.0000000000000000e+00 +5.6999996708128924e+00 +7.8398475883128590e-03 -1.0334399212401799e+00 -5.8625446773754843e-02
5.7999999999999954e+00 +9.1179629561101265e+00 +0.0000000000000000e+00 +5.7999996531815139e+00 +7.8395743102947398e-03 -1.0334399403257322e+00 -5.8625273472938000e-02
5.8999999999999950e+00 +9.1179025416830015e+00 +0.0000000000000000e+00 +5.8999996349315529e+00 +7.8393003241542768e-03 -1.0334400502413861e+00 -5.8625085844537898e-02
5.9999999999999947e+00 +9.1178410945309203e+00 +0.0000000000000000e+00 +5.9999996160523441e+00 +7.8390274466319416e-03 -1.0334402634396873e+00 -5.8624886400526405e-02
6.0999999999999943e+00 +9.1177786146536750e+00 +0.0000000000000000e+00 +6.0999995965332223e+00 +7.8387574957757278e-03 -1.0334405923680392e+00 -5.8624677653084024e-02
6.1999999999999940e+00 +9.1177151020509424e+00 +0.0000000000000000e+00 +6.1999995763635223e+00 +7.8384922909920211e-03 -1.0334410494685289e+00 -5.8624462114604828e-02
6.2999999999999936e+00 +9.1176505567222712e+00 +0.0000000000000000e+00 +6.2999995555325787e+00 +7.8382336530965300e-03 -1.0334416471777566e+00 -5.8624242297701634e-02
6.3999999999999932e+00 +9.1175849786670717e+00 +0.0000000000000000e+00 +6.3999995340297255e+00 +7.8379834043651800e-03 -1.0334423979266645e+00 -5.8624020715210973e-02
6.4999999999999929e+00 +9.1175183678845979e+00 +0.0000000000000000e+00 +6.4999995118442966e+00 +7.8377433685850213e-03 -1.0334433141403672e+00 -5.8623799880198287e-02
6.5999999999999925e+00 +9.1174507243739402e+00 +0.0000000000000000e+00 +6.5999994889656266e+00 +7.8375150790558207e-03 -1.0334444032675902e+00 -5.8623581695732604e-02
6.6999999999999922e+00 +9.1173820481340204e+00 +0.0000000000000000e+00 +6.6999994653830495e+00 +7.8372989017575032e-03 -1.0334456528717679e+00 -5.8623365624034258e-02
6.7999999999999918e+00 +9.1173123391635968e+00 +0.0000000000000000e+00 +6.7999994410858990e+00 +7.8370949102638948e-03 -1.0334470455470610e+00 -5.8623150516953312e-02
6.8999999999999915e+00 +9.1172415974612875e+00 +0.0000000000000000e+00 +6.8999994160635092e+00 +7.8369031775949050e-03 -1.0334485638896889e+00 -5.8622935226175885e-02
6.9999999999999911e+00 +9.1171698230255842e+00 +0.0000000000000000e+00 +6.9999993903052138e+00 +7.8367237761863776e-03 -1.0334501904980642e+00 -5.8622718603214663e-02
7.0999999999999908e+00 +9.1170970158548705e+00 +0.0000000000000000e+00 +7.0999993638003449e+00 +7.8365567778599272e-03 -1.0334519079729279e+00 -5.8622499499399128e-02
7.1999999999999904e+00 +9.1170231759474394e+00 +0.0000000000000000e+00 +7.1999993365382373e+00 +7.8364022537928107e-03 -1.0334536989174861e+00 -5.8622276765866073e-02
7.2999999999999901e+00 +9.1169483033015108e+00 +0.0000000000000000e+00 +7.2999993085082231e+00 +7.8362602744877514e-03 -1.0334555459375465e+00 -5.8622049253549788e-02
7.3999999999999897e+00 +9.1168723979152482e+00 +0.0000000000000000e+00 +7.3999992796996361e+00 +7.8361309097427882e-03 -1.0334574316416520e+00 -5.8621815813172530e-02
7.4999999999999893e+00 +9.1167954597867773e+00 +0.0000000000000000e+00 +7.4999992501018093e+00 +7.8360142286211226e-03 -1.0334593386412203e+00 -5.8621575295234818e-02
7.5999999999999890e+00 +9.1167174889142011e+00 +0.0000000000000000e+00 +7.5999992197040758e+00 +7.8359102994209427e-03 -1.0334612495506752e+00 -5.8621326550005834e-02
7.6999999999999886e+00 +9.1166384852956188e+00 +0.0000000000000000e+00 +7.6999991884957675e+00 +7.8358191896452725e-03 -1.0334631469875881e+00 -5.8621068427513773e-02
7.7999999999999883e+00 +9.1165584489291458e+00 +0.0000000000000000e+00 +7.7999991564662183e+00 +7.8357409659718033e-03 -1.0334650135728092e+00 -5.8620799777536189e-02
7.8999999999999879e+00 +9.1164773798129257e+00 +0.0000000000000000e+00 +7.8999991236047604e+00 +7.8356756942227161e-03 -1.0334668319306080e+00 -5.8620519449590333e-02
7.9999999999999876e+00 +9.1163952779451538e+00 +0.0000000000000000e+00 +7.9999990899007267e+00 +7.8356234393345200e-03 -1.0334685846888063e+00 -5.8620226292923593e-02
8.0999999999999872e+00 +9.1163121433240857e+00 +0.0000000000000000e+00 +8.0999990553434493e+00 +7.8355842653278669e-03 -1.0334702544789161e+00 -5.8619919156503726e-02
8.1999999999999869e+00 +9.1162279759480658e+00 +0.0000000000000000e+00 +8.1999990199222630e+00 +7.8355582352773925e-03 -1.0334718239362783e+00 -5.8619596889009390e-02
8.2999999999999865e+00 +9.1161427758155344e+00 +0.0000000000000000e+00 +8.2999989836264998e+00 +7.8355454112815186e-03 -1.0334732757001945e+00 -5.8619258338820382e-02
8.3999999999999861e+00 +9.1160565429250511e+00 +0.0000000000000000e+00 +8.3999989464454909e+00 +7.8355458544322795e-03 -1.0334745924140678e+00 -5.8618902354007990e-02
8.4999999999999858e+00 +9.1159692772753118e+00 +0.0000000000000000e+00 +8.4999989083685712e+00 +7.8355596247851374e-03 -1.0334757567255382e+00 -5.8618527782325507e-02
8.5999999999999854e+00 +9.1158809788651638e+00 +0.0000000000000000e+00 +8.5999988693850735e+00 +7.8355866131731393e-03 -1.0334767546784656e+00 -5.8618133700840791e-02
8.6999999999999851e+00 +9.1157916476936176e+00 +0.0000000000000000e+00 +8.6999988294843309e+00 +7.8356260370175592e-03 -1.0334775858884753e+00 -5.8617720104994268e-02
8.7999999999999847e+00 +9.1157012837598526e+00 +0.0000000000000000e+00 +8.7999987886556763e+00 +7.8356769453658166e-03 -1.0334782533662978e+00 -5.8617287219844591e-02
8.8999999999999844e+00 +9.1156098870632114e+00 +0.0000000000000000e+00 +8.8999987468884427e+00 +7.8357383871376553e-03 -1.0334787601256414e+00 -5.8616835270438296e-02
8.9999999999999840e+00 +9.1155174576031968e+00 +0.0000000000000000e+00 +8.9999987041719631e+00 +7.8358094111236325e-03 -1.0334791091832782e+00 -5.8616364481809777e-02
9.0999999999999837e+00 +9.1154239953794693e+00 +0.0000000000000000e+00 +9.0999986604955723e+00 +7.8358890659835957e-03 -1.0334793035591303e+00 -5.8615875078981264e-02
9.1999999999999833e+00 +9.1153295003918462e+00 +0.0000000000000000e+00 +9.1999986158486049e+00 +7.8359764002451718e-03 -1.0334793462763538e+00 -5.8615367286962781e-02
9.2999999999999829e+00 +9.1152339726402936e+00 +0.0000000000000000e+00 +9.2999985702203940e+00 +7.8360704623022526e-03 -1.0334792403614224e+00 -5.8614841330752190e-02
9.3999999999999826e+00 +9.1151374121249269e+00 +0.0000000000000000e+00 +9.3999985236002725e+00 +7.8361703004134961e-03 -1.0334789888442162e+00 -5.8614297435335104e-02
9.4999999999999822e+00 +9.1150398188460073e+00 +0.0000000000000000e+00 +9.4999984759775771e+00 +7.8362749627008173e-03 -1.0334785947581031e+00 -5.8613735825684916e-02
9.5999999999999819e+00 +9.1149411928039381e+00 +0.0000000000000000e+00 +9.5999984273416406e+00 +7.8363834971478703e-03 -1.0334780611400260e+00 -5.8613156726762768e-02
9.6999999999999815e+00 +9.1148415339992646e+00 +0.0000000000000000e+00 +9.6999983776817977e+00 +7.8364949515985754e-03 -1.0334773910305861e+00 -5.8612560363517689e-02
9.7999999999999812e+00 +9.1147408424326652e+00 +0.0000000000000000e+00 +9.7999983269873834e+00 +7.8366083737555978e-03 -1.0334765874741287e+00 -5.8611946960886292e-02
9.8999999999999808e+00 +9.1146391181049538e+00 +0.0000000000000000e+00 +9.8999982752477305e+00 +7.8367228111788593e-03 -1.0334756535188290e+00 -5.8611316743793107e-02
9.9999999999999805e+00 +9.1145363610170751e+00 +0.0000000000000000e+00 +9.9999982224521773e+00 +7.8368373112840516e-03 -1.0334745922167725e+00 -5.8610669937150320e-02
1.0099999999999980e+01 +9.1144325711701004e+00 +0.0000000000000000e+00 +1.0099998168590057e+01 +7.8369509213411410e-03 -1.0334734066240474e+00 -5.8610006765858043e-02
1.0199999999999980e+01 +9.1143277485652252e+00 +0.0000000000000000e+00 +1.0199998113650706e+01 +7.8370626884728851e-03 -1.0334720998008213e+00 -5.8609327454804100e-02
1.0299999999999979e+01 +9.1142218932037657e+00 +0.0000000000000000e+00 +1.0299998057623458e+01 +7.8371716596533393e-03 -1.0334706748114315e+00 -5.8608632228864158e-02
1.0399999999999979e+01 +9.1141150050871573e+00 +0.0000000000000000e+00 +1.0399998000497650e+01 +7.8372768817063891e-03 -1.0334691347244656e+00 -5.8607921312901719e-02
1.0499999999999979e+01 +9.1140070842169489e+00 +0.0000000000000000e+00 +1.0499997942262617e+01 +7.8373774013042671e-03 -1.0334674826128492e+00 -5.8607194931768219e-02
1.0599999999999978e+01 +9.1138981305948050e+00 +0.0000000000000000e+00 +1.0599997882907696e+01 +7.8374723900403020e-03 -1.0334657219126435e+00 -5.8606453468871805e-02
1.0699999999999978e+01 +9.1137881442224948e+00 +0.0000000000000000e+00 +1.0699997822422223e+01 +7.8375615198559706e-03 -1.0334638574957165e+00 -5.8605697941920387e-02
1.0799999999999978e+01 +9.1136771251018924e+00 +0.0000000000000000e+00 +1.0799997760795533e+01 +7.8376445881130040e-03 -1.0334618945871581e+00 -5.8604929527190951e-02
1.0899999999999977e+01 +9.1135650732349713e+00 +0.0000000000000000e+00 +1.0899997698016964e+01 +7.8377213925576745e-03 -1.0334598384054485e+00 -5.8604149400940067e-02
1.0999999999999977e+01 +9.1134519886237992e+00 +0.0000000000000000e+00 +1.0999997634075854e+01 +7.8377917313316222e-03 -1.0334576941622891e+00 -5.8603358739403699e-02
1.1099999999999977e+01 +9.1133378712705291e+00 +0.0000000000000000e+00 +1.1099997568961536e+01 +7.8378554029826970e-03 -1.0334554670624265e+00 -5.8602558718796764e-02
1.1199999999999976e+01 +9.1132227211773973e+00 +0.0000000000000000e+00 +1.1199997502663349e+01 +7.8379122064757886e-03 -1.0334531623034851e+00 -5.8601750515312863e-02
1.1299999999999976e+01 +9.1131065383467202e+00 +0.0000000000000000e+00 +1.1299997435170631e+01 +7.8379619412036750e-03 -1.0334507850757915e+00 -5.8600935305124044e-02
1.1399999999999975e+01 +9.1129893227808854e+00 +0.0000000000000000e+00 +1.1399997366472720e+01 +7.8380044069978529e-03 -1.0334483405622044e+00 -5.8600114264380339e-02
1.1499999999999975e+01 +9.1128710744823476e+00 +0.0000000000000000e+00 +1.1499997296558950e+01 +7.8380394041393797e-03 -1.0334458339379402e+00 -5.8599288569209491e-02
1.1599999999999975e+01 +9.1127517934536240e+00 +0.0000000000000000e+00 +1.1599997225418662e+01 +7.8380667333697238e-03 -1.0334432703704031e+00 -5.8598459395716632e-02
1.1699999999999974e+01 +9.1126314796972885e+00 +0.0000000000000000e+00 +1.1699997153041192e+01 +7.8380861959016068e-03 -1.0334406550190103e+00 -5.8597627919983852e-02
1.1799999999999974e+01 +9.1125101332159666e+00 +0.0000000000000000e+00 +1.1799997079415878e+01 +7.8380975934298561e-03 -1.0334379930350217e+00 -5.8596795318069925e-02
