# multipoles
# s[mm] polynom_b[n=0][T/m^n] polynom_b[n=1][T/m^n] polynom_b[n=2][T/m^n] polynom_b[n=3][T/m^n] polynom_b[n=4][T/m^n] polynom_b[n=5][T/m^n] polynom_b[n=6][T/m^n] 
+0.0000000000000000e+00 -9.6698276760007162e-01 +2.1530782675016233e+00 +2.0253510085484820e+01 +9.0743829974535046e+01 -2.0688511278298232e+04 +4.6941230141240492e+04 +1.1936014463739343e+08 
+1.0000000000000001e-01 -9.6698244528276334e-01 +2.1530680356017147e+00 +2.0254786087702321e+01 +9.0866487137934200e+01 -2.0737652060611130e+04 +4.6044812064860649e+04 +1.1955999617360173e+08 
+2.0000000000000001e-01 -9.6698214286292583e-01 +2.1530591070936014e+00 +2.0256647359487729e+01 +9.0941456885217093e+01 -2.0800671521659333e+04 +4.5462390543528702e+04 +1.1983081868347052e+08 
+2.9999999999999999e-01 -9.6698186061974700e-01 +2.1530513128535098e+00 +2.0259040549694394e+01 +9.0975037817238231e+01 -2.0876213773482097e+04 +4.5156633865099611e+04 +1.2016554355022883e+08 
+4.0000000000000002e-01 -9.6698159883241208e-01 +2.1530444837518425e+00 +2.0261912305861525e+01 +9.0973528776071845e+01 -2.0962922901856167e+04 +4.5090208537451996e+04 +1.2055710202736841e+08 
+5.0000000000000000e-01 -9.6698135778015060e-01 +2.1530384506509788e+00 +2.0265209283362903e+01 +9.0943228921977649e+01 -2.1059443155475961e+04 +4.5225778845598077e+04 +1.2099842618433608e+08 
+5.9999999999999998e-01 -9.6698113774218186e-01 +2.1530330444151398e+00 +2.0268878135996232e+01 +9.0890437404686182e+01 -2.1164418757432213e+04 +4.5526008901153189e+04 +1.2148244798391446e+08 
+6.9999999999999996e-01 -9.6698093899773874e-01 +2.1530280959007322e+00 +2.0272865518602007e+01 +9.0821453636436956e+01 -2.1276493956648759e+04 +4.5953561089024995e+04 +1.2200209953457518e+08 
+8.0000000000000004e-01 -9.6698076182605652e-01 +2.1530234359661384e+00 +2.0277118087615928e+01 +9.0742577000228195e+01 -2.1394313041588779e+04 +4.6471097834138556e+04 +1.2255031316340536e+08 
+9.0000000000000002e-01 -9.6698060650637441e-01 +2.1530188954637093e+00 +2.0281582500790257e+01 +9.0660107038284337e+01 -2.1516520333218195e+04 +4.7041280659263510e+04 +1.2312002138145615e+08 
+1.0000000000000000e+00 -9.6698047331791415e-01 +2.1530143052474822e+00 +2.0286205411918392e+01 +9.0580343234958818e+01 -2.1641760083738052e+04 +4.7626771420789999e+04 +1.2370415639984502e+08 
+1.1000000000000001e+00 -9.6698036253991337e-01 +2.1530094961680453e+00 +2.0290933478923925e+01 +9.0509585132725633e+01 -2.1768676639412235e+04 +4.8190231793980252e+04 +1.2429565093269575e+08 
+1.2000000000000000e+00 -9.6698027445158430e-01 +2.1530042990785812e+00 +2.0295713354844430e+01 +9.0454132144562081e+01 -2.1895914256019372e+04 +4.8694324396167242e+04 +1.2488743728244141e+08 
+1.3000000000000000e+00 -9.6698020933213391e-01 +2.1529985448302846e+00 +2.0300491693634690e+01 +9.0420283670080451e+01 -2.2022117220455148e+04 +4.9101712212890627e+04 +1.2547244795118771e+08 
+1.3999999999999999e+00 -9.6698016746077287e-01 +2.1529920642789100e+00 +2.0305215148984740e+01 +9.0414338881167851e+01 -2.2145929823851264e+04 +4.9375059920217020e+04 +1.2604361550341342e+08 
+1.5000000000000000e+00 -9.6698014911666874e-01 +2.1529846882770687e+00 +2.0309830368506464e+01 +9.0442596941135264e+01 -2.2265996251964578e+04 +4.9477032647106127e+04 +1.2659387204814902e+08 
+1.6000000000000001e+00 -9.6698015457897968e-01 +2.1529762476836201e+00 +2.0314283999685351e+01 +9.0511356690576278e+01 -2.2380960700438405e+04 +4.9370297970065352e+04 +1.2711614979457480e+08 
+1.7000000000000000e+00 -9.6698018412683118e-01 +2.1529665733580718e+00 +2.0318522685122847e+01 +9.0626916823344416e+01 -2.2489467282950842e+04 +4.9017524856756943e+04 +1.2760338061288093e+08 
+1.8000000000000000e+00 -9.6698023803933342e-01 +2.1529554961623818e+00 +2.0322493064805016e+01 +9.0795575779233161e+01 -2.2590160074238498e+04 +4.8381384476253996e+04 +1.2804849623845023e+08 
+1.8999999999999999e+00 -9.6698031659554606e-01 +2.1529428469633305e+00 +2.0326141772943849e+01 +9.1023631695002749e+01 -2.2681683053598525e+04 +4.7424550466475099e+04 +1.2844442801983282e+08 
+2.0000000000000000e+00 -9.6698042007454565e-01 +2.1529284566349327e+00 +2.0329415444697901e+01 +9.1317382283648854e+01 -2.2762680229445908e+04 +4.6109699786109661e+04 +1.2878410749695921e+08 
+2.1000000000000001e+00 -9.6698054865793281e-01 +2.1529122263354603e+00 +2.0332275210700104e+01 +9.1680856706834888e+01 -2.2832171881467490e+04 +4.4412044932933539e+04 +1.2906248310451457e+08 
+2.2000000000000002e+00 -9.6698070214174858e-01 +2.1528943229285926e+00 +2.0334739094800781e+01 +9.2109446800750604e+01 -2.2890640654666964e+04 +4.2354352788447024e+04 +1.2928232796883127e+08 
+2.2999999999999998e+00 -9.6698088022675144e-01 +2.1528749759586678e+00 +2.0336839100836659e+01 +9.2596489599060973e+01 -2.2938924896111574e+04 +3.9970658237790914e+04 +1.2944831530326559e+08 
+2.3999999999999999e+00 -9.6698108261365989e-01 +2.1528544149733690e+00 +2.0338607227270202e+01 +9.3135321969391100e+01 -2.2977862841779730e+04 +3.7294997360687688e+04 +1.2956511777321286e+08 
+2.5000000000000000e+00 -9.6698130900325463e-01 +2.1528328695263541e+00 +2.0340075478962280e+01 +9.3719280546093273e+01 -2.3008292837193818e+04 +3.4361407778975961e+04 +1.2963740852868961e+08 
+2.6000000000000001e+00 -9.6698155909627548e-01 +2.1528105691789454e+00 +2.0341275854775002e+01 +9.4341701678863529e+01 -2.3031053108244716e+04 +3.1203928952975602e+04 +1.2966986013564812e+08 
+2.7000000000000002e+00 -9.6698183259354709e-01 +2.1527877434999914e+00 +2.0342240364043167e+01 +9.4995921436562853e+01 -2.3046982065211658e+04 +2.7856602176039822e+04 +1.2966714599185194e+08 
+2.7999999999999998e+00 -9.6698212919590265e-01 +2.1527646220651198e+00 +2.0343001016468136e+01 +9.5675275637074364e+01 -2.3056918114515189e+04 +2.4353470353354223e+04 +1.2963393944464976e+08 
+2.8999999999999999e+00 -9.6698244860417282e-01 +2.1527414344583042e+00 +2.0343589818193561e+01 +9.6373099799945479e+01 -2.3061699577833762e+04 +2.0728578251091822e+04 +1.2957491338409050e+08 
+3.0000000000000000e+00 -9.6698279051924529e-01 +2.1527184102717958e+00 +2.0344038784199100e+01 +9.7082729147679586e+01 -2.3062164929143568e+04 +1.7015972542602245e+04 +1.2949474137393242e+08 
+3.1000000000000001e+00 -9.6698315464205720e-01 +2.1526957791059749e+00 +2.0344379933151611e+01 +9.7797498632450669e+01 -2.3059152692091920e+04 +1.3249701536496214e+04 +1.2939809714934878e+08 
+3.2000000000000002e+00 -9.6698354067353820e-01 +2.1526737705739722e+00 +2.0344645281489026e+01 +9.8510742769266813e+01 -2.3053501330351450e+04 +9.4638162388723395e+03 +1.2928965410145628e+08 
+3.2999999999999998e+00 -9.6698394831469325e-01 +2.1526526142966862e+00 +2.0344866854602447e+01 +9.9215795815688097e+01 -2.3046049453854270e+04 +5.6923692192673007e+03 +1.2917408623921475e+08 
+3.3999999999999999e+00 -9.6698437726654962e-01 +2.1526325399031752e+00 +2.0345076678918126e+01 +9.9905991746983560e+01 -2.3037635670447664e+04 +1.9694147701722361e+03 +1.2905606748930901e+08 
+3.5000000000000000e+00 -9.6698482723019319e-01 +2.1526137770397606e+00 +2.0345306786301332e+01 +1.0057466399857555e+02 -2.3029098664018689e+04 -1.6709896252783769e+03 +1.2894027204826359e+08 
+3.6000000000000001e+00 -9.6698529790674437e-01 +2.1525965553580511e+00 +2.0345589212362345e+01 +1.0121514580723924e+02 -2.3021277162489107e+04 -5.1947852408403824e+03 +1.2883137423235889e+08 
+3.7000000000000002e+00 -9.6698578899739773e-01 +2.1525811045232230e+00 +2.0345956000288847e+01 +1.0182076999606299e+02 -2.3015010012832554e+04 -8.5679109686218853e+03 +1.2873404883814107e+08 
+3.7999999999999998e+00 -9.6698630020337384e-01 +2.1525676542151975e+00 +2.0346439194139002e+01 +1.0238486890927464e+02 -2.3011136043881219e+04 -1.1756302837057447e+04 +1.2865297046024457e+08 
+3.8999999999999999e+00 -9.6698683122595019e-01 +2.1525564341243140e+00 +2.0347070845137946e+01 +1.0290077457175488e+02 -2.3010494190245176e+04 -1.4725895042064303e+04 +1.2859281409099104e+08 
+4.0000000000000000e+00 -9.6698738176649268e-01 +2.1525476739525891e+00 +2.0347883011218816e+01 +1.0336181863803088e+02 -2.3013923479213830e+04 -1.7442619651642453e+04 +1.2855825504621902e+08 
+4.0999999999999996e+00 -9.6698795145587213e-01 +2.1525415171332729e+00 +2.0348897906194974e+01 +1.0376338380266749e+02 -2.3022045993881518e+04 -1.9882661410640285e+04 +1.2855279046426457e+08 
+4.2000000000000002e+00 -9.6698853962691089e-01 +2.1525377733632411e+00 +2.0350100290026255e+01 +1.0410862211805541e+02 -2.3034668876103653e+04 -2.2060077863511029e+04 +1.2857546544842902e+08 
+4.2999999999999998e+00 -9.6698914553429827e-01 +2.1525361714984705e+00 +2.0351466068514334e+01 +1.0440252550635076e+02 -2.3051408678195778e+04 -2.3997634038522709e+04 +1.2862427381363308e+08 
+4.4000000000000004e+00 -9.6698976843264628e-01 +2.1525364404026801e+00 +2.0352971137802491e+01 +1.0465008576588104e+02 -2.3071881766417595e+04 -2.5718094579077402e+04 +1.2869720845711848e+08 
+4.5000000000000000e+00 -9.6699040757651378e-01 +2.1525383089241124e+00 +2.0354591391373258e+01 +1.0485629530728042e+02 -2.3095704467290983e+04 -2.7244228240349832e+04 +1.2879226209811807e+08 
+4.5999999999999996e+00 -9.6699106222045361e-01 +2.1525415059110196e+00 +2.0356302722494640e+01 +1.0502614667699584e+02 -2.3122493114028439e+04 -2.8598805093477600e+04 +1.2890742749763618e+08 
+4.7000000000000002e+00 -9.6699173161888075e-01 +2.1525457602098386e+00 +2.0358081009867707e+01 +1.0516463265004475e+02 -2.3151863766339819e+04 -2.9804597143086252e+04 +1.2904069610248995e+08 
+4.7999999999999998e+00 -9.6699241502621358e-01 +2.1525508006553524e+00 +2.0359902136298814e+01 +1.0527674651535071e+02 -2.3183432576093845e+04 -3.0884379998406217e+04 +1.2919005981726964e+08 
+4.9000000000000004e+00 -9.6699311169679669e-01 +2.1525563560806771e+00 +2.0361741976264771e+01 +1.0536748178324858e+02 -2.3216815545981695e+04 -3.1860931200021259e+04 +1.2935350983620219e+08 
+5.0000000000000000e+00 -9.6699382088489039e-01 +2.1525621553084107e+00 +2.0363576397437576e+01 +1.0544183248246455e+02 -2.3251628559814828e+04 -3.2757032032636082e+04 +1.2952903679495351e+08 
+5.0999999999999996e+00 -9.6699454184468425e-01 +2.1525679271575395e+00 +2.0365381261631374e+01 +1.0550479294580668e+02 -2.3287487405455198e+04 -3.3595466263315713e+04 +1.2971463089004546e+08 
+5.2000000000000002e+00 -9.6699527383031092e-01 +2.1525734004371619e+00 +2.0367132425498681e+01 +1.0556135801026039e+02 -2.3324007782089535e+04 -3.4399021367299370e+04 +1.2990828189558709e+08 
+5.2999999999999998e+00 -9.6699601609581787e-01 +2.1525783039461857e+00 +2.0368805739841488e+01 +1.0561652304083775e+02 -2.3360805297275820e+04 -3.5190488693536354e+04 +1.3010797917864834e+08 
+5.4000000000000004e+00 -9.6699676789516908e-01 +2.1525823664769113e+00 +2.0370377046872346e+01 +1.0567528383191394e+02 -2.3397495404804045e+04 -3.5992662939767710e+04 +1.3031171137143078e+08 
+5.5000000000000000e+00 -9.6699752848219678e-01 +2.1525853168129725e+00 +2.0371822177653186e+01 +1.0574263668997197e+02 -2.3433693367305561e+04 -3.6828342676438559e+04 +1.3051746622757807e+08 
+5.5999999999999996e+00 -9.6699829711074148e-01 +2.1525868837260469e+00 +2.0373116965904575e+01 +1.0582357851489076e+02 -2.3469014513291128e+04 -3.7720330821250907e+04 +1.3072323182601164e+08 
+5.7000000000000002e+00 -9.6699907303444754e-01 +2.1525867959763563e+00 +2.0374237226004425e+01 +1.0592310682063258e+02 -2.3503073821820515e+04 -3.8691434829739504e+04 +1.3092699460349560e+08 
+5.7999999999999998e+00 -9.6699985550694745e-01 +2.1525847823123705e+00 +2.0375158773830517e+01 +1.0604621974199763e+02 -2.3535486318060419e+04 -3.9764466765134734e+04 +1.3112674123235708e+08 
+5.9000000000000004e+00 -9.6700064378172401e-01 +2.1525805714739992e+00 +2.0375857411625869e+01 +1.0619791596284513e+02 -2.3565866789848154e+04 -4.0962242919926495e+04 +1.3132045728631002e+08 
+6.0000000000000000e+00 -9.6700143711215114e-01 +2.1525738921862727e+00 +2.0376308932504902e+01 +1.0638319491015227e+02 -2.3593829869479388e+04 -4.2307584587116275e+04 +1.3150612764776249e+08 
+6.0999999999999996e+00 -9.6700223487359493e-01 +2.1525645552420323e+00 +2.0376502194661732e+01 +1.0660571361175965e+02 -2.3619188835984634e+04 -4.3816714164459321e+04 +1.3168268859038709e+08 
+6.2000000000000002e+00 -9.6700303696284862e-01 +2.1525526904145731e+00 +2.0376477036791965e+01 +1.0686393651495574e+02 -2.3642549163221669e+04 -4.5481612346901871e+04 +1.3185288590707172e+08 
+6.2999999999999998e+00 -9.6700384341515377e-01 +2.1525385050168282e+00 +2.0376285720034211e+01 +1.0715508171785946e+02 -2.3664713761591400e+04 -4.7288770460223532e+04 +1.3202042432745618e+08 
+6.4000000000000004e+00 -9.6700465426579552e-01 +2.1525222063502172e+00 +2.0375980507713557e+01 +1.0747636760000138e+02 -2.3686485583026937e+04 -4.9224681774131022e+04 +1.3218900880734117e+08 
+6.5000000000000000e+00 -9.6700546955009881e-01 +2.1525040017040076e+00 +2.0375613667329215e+01 +1.0782501284701694e+02 -2.3708667663479948e+04 -5.1275841579560627e+04 +1.3236234473036551e+08 
+6.5999999999999996e+00 -9.6700628930346610e-01 +2.1524840983527129e+00 +2.0375237471997298e+01 +1.0819823647608676e+02 -2.3732063143918240e+04 -5.3428747211982562e+04 +1.3254413799281810e+08 
+6.7000000000000002e+00 -9.6700711356133806e-01 +2.1524627035570121e+00 +2.0374904197885567e+01 +1.0859325784753266e+02 -2.3757475224020007e+04 -5.5669898240165137e+04 +1.3273809479068594e+08 
+6.7999999999999998e+00 -9.6700794235925025e-01 +2.1524400245645037e+00 +2.0374666130111535e+01 +1.0900729660646434e+02 -2.3785707274907127e+04 -5.7985796024352050e+04 +1.3294792215951489e+08 
+6.9000000000000004e+00 -9.6700877573279531e-01 +2.1524162686051715e+00 +2.0374575556469395e+01 +1.0943757281537749e+02 -2.3817562719379657e+04 -6.0362944533213493e+04 +1.3317732740237722e+08 
+7.0000000000000000e+00 -9.6700961371764393e-01 +2.1523916428949073e+00 +2.0374684772639725e+01 +1.0988130684864997e+02 -2.3853845128927449e+04 -6.2787849690541407e+04 +1.3343001854958354e+08 
+7.0999999999999996e+00 -9.6701045634953475e-01 +2.1523663546350655e+00 +2.0375046079001518e+01 +1.1033571941340040e+02 -2.3895358165956161e+04 -6.5247019564481416e+04 +1.3370970408974829e+08 
+7.2000000000000002e+00 -9.6701130366430466e-01 +2.1523406110084196e+00 +2.0375711783818829e+01 +1.1079803163502521e+02 -2.3942905642836118e+04 -6.7726964772660824e+04 +1.3402009325042297e+08 
+7.2999999999999998e+00 -9.6701215569785903e-01 +2.1523146191836418e+00 +2.0376734203287334e+01 +1.1126546495458334e+02 -2.3997291524373690e+04 -7.0214197951161521e+04 +1.3436489601361063e+08 
+7.4000000000000004e+00 -9.6701301248615990e-01 +2.1522885863078027e+00 +2.0378165653400625e+01 +1.1173524130853180e+02 -2.4059319769414065e+04 -7.2695234765525514e+04 +1.3474782235302404e+08 
+7.5000000000000000e+00 -9.6701387406533801e-01 +2.1522627195133470e+00 +2.0380058469725032e+01 +1.1220458294640828e+02 -2.4129794712162031e+04 -7.5156592855741212e+04 +1.3517258406324461e+08 
+7.5999999999999996e+00 -9.6701474047152869e-01 +2.1522372259148090e+00 +2.0382464982905812e+01 +1.1267071251027758e+02 -2.4209520590738168e+04 -7.7584792309682554e+04 +1.3564289250511420e+08 
+7.7000000000000002e+00 -9.6701561174100104e-01 +2.1522123126065331e+00 +2.0385437537519863e+01 +1.1313085309111580e+02 -2.4299301910423321e+04 -7.9966355939635279e+04 +1.3616246034471247e+08 
+7.7999999999999998e+00 -9.6701648791013028e-01 +2.1521881866613195e+00 +2.0389028487125202e+01 +1.1358222827773781e+02 -2.4399943347284116e+04 -8.2287809624008456e+04 +1.3673500109140906e+08 
+7.9000000000000004e+00 -9.6701736901536095e-01 +2.1521650551384415e+00 +2.0393290187893228e+01 +1.1402206190193830e+02 -2.4512249625801735e+04 -8.4535680790464336e+04 +1.3736422851358995e+08 
+8.0000000000000000e+00 -9.6701825509327100e-01 +2.1521431250661820e+00 +2.0398275009411943e+01 +1.1444757860077610e+02 -2.4637025726225875e+04 -8.6696503357761554e+04 +1.3805385749180713e+08 
+8.0999999999999996e+00 -9.6701914611669937e-01 +2.1521225626025862e+00 +2.0404016483435814e+01 +1.1485648886194855e+02 -2.4774740595186719e+04 -8.8760354090515597e+04 +1.3880587557081708e+08 
+8.1999999999999993e+00 -9.6702004177472467e-01 +2.1521034095146243e+00 +2.0410472284910121e+01 +1.1524753731099560e+02 -2.4924473428636506e+04 -9.0724005351114407e+04 +1.3961520778379384e+08 
+8.3000000000000007e+00 -9.6702094167768526e-01 +2.1520856864457976e+00 +2.0417580667422278e+01 +1.1561948218434686e+02 -2.5084937046011823e+04 -9.2584023576707521e+04 +1.4047492153057918e+08 
+8.4000000000000004e+00 -9.6702184543596958e-01 +2.1520694140601115e+00 +2.0425279890596105e+01 +1.1597108085589014e+02 -2.5254844334992547e+04 -9.4336967885155929e+04 +1.4137808437696755e+08 
+8.5000000000000000e+00 -9.6702275265991577e-01 +2.1520546130267095e+00 +2.0433508206474524e+01 +1.1630109036841517e+02 -2.5432908004577370e+04 -9.5979393618431161e+04 +1.4231776294452420e+08 
+8.5999999999999996e+00 -9.6702366295993569e-01 +2.1520413040185371e+00 +2.0442203874105839e+01 +1.1660826746284916e+02 -2.5617840869878903e+04 -9.7507852463111063e+04 +1.4328702428586385e+08 
+8.6999999999999993e+00 -9.6702457594637403e-01 +2.1520295077184235e+00 +2.0451305145706847e+01 +1.1689136840518938e+02 -2.5808355580711624e+04 -9.8918891353778425e+04 +1.4427893457213774e+08 
+8.8000000000000007e+00 -9.6702549122963533e-01 +2.1520192448180495e+00 +2.0460750278301237e+01 +1.1714914899957500e+02 -2.6003164843830178e+04 -1.0020905251329260e+05 +1.4528656014888015e+08 
+8.9000000000000004e+00 -9.6702640842012788e-01 +2.1520105360106299e+00 +2.0470477528711587e+01 +1.1738036479221621e+02 -2.6200981330578750e+04 -1.0137487455024676e+05 +1.4630296710875502e+08 
+9.0000000000000000e+00 -9.6702732712824502e-01 +2.1520034020044330e+00 +2.0480425152577006e+01 +1.1758377070281344e+02 -2.6400517655254742e+04 -1.0241289031413327e+05 +1.4732122117878968e+08 
+9.0999999999999996e+00 -9.6702824696438483e-01 +2.1519978635135266e+00 +2.0490531403237391e+01 +1.1775812124627622e+02 -2.6600486347247523e+04 -1.0331962805442225e+05 +1.4833438756876880e+08 
+9.1999999999999993e+00 -9.6702916753900003e-01 +2.1519939412576861e+00 +2.0500734540691401e+01 +1.1790217055555918e+02 -2.6799600032062586e+04 -1.0409161153929603e+05 +1.4933553186351135e+08 
+9.3000000000000007e+00 -9.6703008846249994e-01 +2.1519916559708330e+00 +2.0510972819057887e+01 +1.1801467213257702e+02 -2.6996571180067305e+04 -1.0472535854495417e+05 +1.5031771879019678e+08 
+9.4000000000000004e+00 -9.6703100934531461e-01 +2.1519910283931210e+00 +2.0521184493960760e+01 +1.1809437905638842e+02 -2.7190112255421147e+04 -1.0521738197492169e+05 +1.5127401295388585e+08 
+9.5000000000000000e+00 -9.6703192979788843e-01 +2.1519920792771163e+00 +2.0531307821695734e+01 +1.1814004381470527e+02 -2.7378935691972667e+04 -1.0556418886207016e+05 +1.5219747869531673e+08 
+9.5999999999999996e+00 -9.6703284943067658e-01 +2.1519948293810480e+00 +2.0541281059424051e+01 +1.1815041848488863e+02 -2.7561753903759865e+04 -1.0576228134211723e+05 +1.5308118016309258e+08 
+9.6999999999999993e+00 -9.6703376785414341e-01 +2.1519992994795762e+00 +2.0551042463771456e+01 +1.1812425441654885e+02 -2.7737279250651394e+04 -1.0580815474288062e+05 +1.5391818112831169e+08 
+9.8000000000000007e+00 -9.6703468467870146e-01 +2.1520055103523674e+00 +2.0560530285646376e+01 +1.1806030256753506e+02 -2.7904223938679486e+04 -1.0569829948681429e+05 +1.5470154450614420e+08 
+9.9000000000000004e+00 -9.6703559951488760e-01 +2.1520134827946475e+00 +2.0569682787826046e+01 +1.1795731316306725e+02 -2.8061300363418966e+04 -1.0542919903054657e+05 +1.5542433401618311e+08 
+1.0000000000000000e+01 -9.6703651197313600e-01 +2.1520232376275450e+00 +2.0578438223764849e+01 +1.1781403511707666e+02 -2.8207220731513051e+04 -1.0499732317221383e+05 +1.5607961269023561e+08 
+1.0100000000000000e+01 -9.6703742157854033e-01 +2.1520347750923947e+00 +2.0586747153640502e+01 +1.1762953010577350e+02 -2.8341007769552969e+04 -1.0439821370101346e+05 +1.5666227452231556e+08 
