# field on trajectory
# s[mm] rx[mm] ry[mm] rz[mm] bx[T] by[T] bz[T]
0.0000000000000000e+00 +9.1301000000000005e+00 +0.0000000000000000e+00 +0.0000000000000000e+00 +1.0255299388321206e-02 -1.0310600702451909e+00 -5.8878263098231319e-02
1.0000000000000001e-01 +9.1300994848262871e+00 +0.0000000000000000e+00 +9.9999999998230629e-02 +1.0255195138756227e-02 -1.0310618715261828e+00 -5.8878556006908042e-02
2.0000000000000001e-01 +9.1300979393039903e+00 +0.0000000000000000e+00 +1.9999999998584508e-01 +1.0255085195968931e-02 -1.0310634035911093e+00 -5.8878840933607221e-02
3.0000000000000004e-01 +9.1300953634315807e+00 +0.0000000000000000e+00 +2.9999999995222715e-01 +1.0254969226643117e-02 -1.0310646416949247e+00 -5.8879119074738591e-02
4.0000000000000002e-01 +9.1300917572078237e+00 +0.0000000000000000e+00 +3.9999999988676055e-01 +1.0254846897401648e-02 -1.0310655610920794e+00 -5.8879391626781977e-02
5.0000000000000000e-01 +9.1300871206318046e+00 +0.0000000000000000e+00 +4.9999999977882897e-01 +1.0254717874807877e-02 -1.0310661370364544e+00 -5.8879659786284795e-02
5.9999999999999998e-01 +9.1300814537029478e+00 +0.0000000000000000e+00 +5.9999999961781625e-01 +1.0254581937033304e-02 -1.0310663507627835e+00 -5.8879924306283610e-02
6.9999999999999996e-01 +9.1300747564210400e+00 +0.0000000000000000e+00 +6.9999999939310598e-01 +1.0254439308857832e-02 -1.0310662074310391e+00 -5.8880184165568061e-02
7.9999999999999993e-01 +9.1300670287862253e+00 +0.0000000000000000e+00 +7.9999999909408193e-01 +1.0254290326672978e-02 -1.0310657181819649e+00 -5.8880437899395718e-02
8.9999999999999991e-01 +9.1300582707989921e+00 +0.0000000000000000e+00 +8.9999999871012792e-01 +1.0254135326817243e-02 -1.0310648941555547e+00 -5.8880684043059087e-02
9.9999999999999989e-01 +9.1300484824601646e+00 +0.0000000000000000e+00 +9.9999999823062768e-01 +1.0253974645577788e-02 -1.0310637464910073e+00 -5.8880921131877546e-02
1.0999999999999999e+00 +9.1300376637708887e+00 +0.0000000000000000e+00 +1.0999999976449650e+00 +1.0253808619192036e-02 -1.0310622863266781e+00 -5.8881147701189032e-02
1.2000000000000000e+00 +9.1300258147326243e+00 +0.0000000000000000e+00 +1.1999999969425241e+00 +1.0253637583849335e-02 -1.0310605248000375e+00 -5.8881362286342082e-02
1.3000000000000000e+00 +9.1300129353471320e+00 +0.0000000000000000e+00 +1.2999999961126889e+00 +1.0253461875692543e-02 -1.0310584730476207e+00 -5.8881563422687404e-02
1.4000000000000001e+00 +9.1299990256164616e+00 +0.0000000000000000e+00 +1.3999999951448434e+00 +1.0253281830819739e-02 -1.0310561422049855e+00 -5.8881749645569963e-02
1.5000000000000002e+00 +9.1299840855429437e+00 +0.0000000000000000e+00 +1.4999999940283721e+00 +1.0253097785285751e-02 -1.0310535434066630e+00 -5.8881919490320518e-02
1.6000000000000003e+00 +9.1299681151291754e+00 +0.0000000000000000e+00 +1.5999999927526591e+00 +1.0252910075103899e-02 -1.0310506877861159e+00 -5.8882071492247799e-02
1.7000000000000004e+00 +9.1299511143780130e+00 +0.0000000000000000e+00 +1.6999999913070891e+00 +1.0252719036247537e-02 -1.0310475864756896e+00 -5.8882204186630024e-02
1.8000000000000005e+00 +9.1299330832925545e+00 +0.0000000000000000e+00 +1.7999999896810466e+00 +1.0252525004651751e-02 -1.0310442506065682e+00 -5.8882316108706916e-02
1.9000000000000006e+00 +9.1299140218761341e+00 +0.0000000000000000e+00 +1.8999999878639162e+00 +1.0252328316214957e-02 -1.0310406913087273e+00 -5.8882405793671468e-02
2.0000000000000004e+00 +9.1298939301323117e+00 +0.0000000000000000e+00 +1.9999999858450830e+00 +1.0252129306800542e-02 -1.0310369197108906e+00 -5.8882471776661782e-02
2.1000000000000005e+00 +9.1298728080648566e+00 +0.0000000000000000e+00 +2.0999999836139320e+00 +1.0251928312238503e-02 -1.0310329469404802e+00 -5.8882512592752893e-02
2.2000000000000006e+00 +9.1298506556777408e+00 +0.0000000000000000e+00 +2.1999999811598485e+00 +1.0251725668327081e-02 -1.0310287841235755e+00 -5.8882526776948635e-02
2.3000000000000007e+00 +9.1298274729751245e+00 +0.0000000000000000e+00 +2.2999999784722176e+00 +1.0251521710834400e-02 -1.0310244423848640e+00 -5.8882512864173418e-02
2.4000000000000008e+00 +9.1298032599613475e+00 +0.0000000000000000e+00 +2.3999999755404251e+00 +1.0251316775500089e-02 -1.0310199328475975e+00 -5.8882469389264114e-02
2.5000000000000009e+00 +9.1297780166409197e+00 +0.0000000000000000e+00 +2.4999999723538564e+00 +1.0251111198036929e-02 -1.0310152666335446e+00 -5.8882394886961842e-02
2.6000000000000010e+00 +9.1297517430185042e+00 +0.0000000000000000e+00 +2.5999999689018978e+00 +1.0250905349861962e-02 -1.0310104574122243e+00 -5.8882288226878708e-02
2.7000000000000011e+00 +9.1297244390989079e+00 +0.0000000000000000e+00 +2.6999999651739355e+00 +1.0250699745340658e-02 -1.0310055290498061e+00 -5.8882149618469402e-02
2.8000000000000012e+00 +9.1296961048870564e+00 +0.0000000000000000e+00 +2.7999999611593553e+00 +1.0250494934701301e-02 -1.0310005079632849e+00 -5.8881979606198641e-02
2.9000000000000012e+00 +9.1296667403879699e+00 +0.0000000000000000e+00 +2.8999999568475441e+00 +1.0250291468335095e-02 -1.0309954205717260e+00 -5.8881778734585624e-02
3.0000000000000013e+00 +9.1296363456067304e+00 +0.0000000000000000e+00 +2.9999999522278880e+00 +1.0250089896813069e-02 -1.0309902932965316e+00 -5.8881547548211045e-02
3.1000000000000014e+00 +9.1296049205484646e+00 +0.0000000000000000e+00 +3.0999999472897741e+00 +1.0249890770902959e-02 -1.0309851525617042e+00 -5.8881286591724216e-02
3.2000000000000015e+00 +9.1295724652183097e+00 +0.0000000000000000e+00 +3.1999999420225893e+00 +1.0249694641586123e-02 -1.0309800247941137e+00 -5.8880996409850075e-02
3.3000000000000016e+00 +9.1295389796213922e+00 +0.0000000000000000e+00 +3.2999999364157206e+00 +1.0249502060074446e-02 -1.0309749364237619e+00 -5.8880677547396322e-02
3.4000000000000017e+00 +9.1295044637627978e+00 +0.0000000000000000e+00 +3.3999999304585558e+00 +1.0249313577827218e-02 -1.0309699138840471e+00 -5.8880330549260396e-02
3.5000000000000018e+00 +9.1294689176475465e+00 +0.0000000000000000e+00 +3.4999999241404818e+00 +1.0249129746568063e-02 -1.0309649836120320e+00 -5.8879955960436783e-02
3.6000000000000019e+00 +9.1294323412805678e+00 +0.0000000000000000e+00 +3.5999999174508863e+00 +1.0248951118301812e-02 -1.0309601720487074e+00 -5.8879554326023778e-02
3.7000000000000020e+00 +9.1293947346666720e+00 +0.0000000000000000e+00 +3.6999999103791565e+00 +1.0248778245331415e-02 -1.0309555056392574e+00 -5.8879126191230806e-02
3.8000000000000020e+00 +9.1293560978105219e+00 +0.0000000000000000e+00 +3.7999999029146805e+00 +1.0248611680274832e-02 -1.0309510108333253e+00 -5.8878672101385421e-02
3.9000000000000021e+00 +9.1293164307166137e+00 +0.0000000000000000e+00 +3.8999998950468462e+00 +1.0248451976081940e-02 -1.0309467140852788e+00 -5.8878192601940368e-02
4.0000000000000018e+00 +9.1292757333892407e+00 +0.0000000000000000e+00 +3.9999998867650413e+00 +1.0248299686051400e-02 -1.0309426418544771e+00 -5.8877688238480719e-02
4.1000000000000014e+00 +9.1292340058324761e+00 +0.0000000000000000e+00 +4.0999998780586537e+00 +1.0248155363847608e-02 -1.0309388206055308e+00 -5.8877159556730868e-02
4.2000000000000011e+00 +9.1291912480501392e+00 +0.0000000000000000e+00 +4.1999998689170717e+00 +1.0248019563517535e-02 -1.0309352768085747e+00 -5.8876607102561748e-02
4.3000000000000007e+00 +9.1291474600457754e+00 +0.0000000000000000e+00 +4.2999998593296826e+00 +1.0247892839507639e-02 -1.0309320369395267e+00 -5.8876031421997738e-02
4.4000000000000004e+00 +9.1291026418226249e+00 +0.0000000000000000e+00 +4.3999998492858738e+00 +1.0247775746680768e-02 -1.0309291274803567e+00 -5.8875433061223968e-02
4.5000000000000000e+00 +9.1290567933835955e+00 +0.0000000000000000e+00 +4.4999998387750342e+00 +1.0247668840333049e-02 -1.0309265749193504e+00 -5.8874812566593236e-02
4.5999999999999996e+00 +9.1290099147312436e+00 +0.0000000000000000e+00 +4.5999998277865508e+00 +1.0247572549807713e-02 -1.0309243976554228e+00 -5.8874170720352087e-02
4.6999999999999993e+00 +9.1289620058677485e+00 +0.0000000000000000e+00 +4.6999998163098118e+00 +1.0247486799040285e-02 -1.0309225817077328e+00 -5.8873509247679680e-02
4.7999999999999989e+00 +9.1289130667949347e+00 +0.0000000000000000e+00 +4.7999998043342043e+00 +1.0247411385311949e-02 -1.0309211049990761e+00 -5.8872830109299182e-02
4.8999999999999986e+00 +9.1288630975142837e+00 +0.0000000000000000e+00 +4.8999997918491163e+00 +1.0247346105565842e-02 -1.0309199454511155e+00 -5.8872135265711299e-02
4.9999999999999982e+00 +9.1288120980269607e+00 +0.0000000000000000e+00 +4.9999997788439350e+00 +1.0247290756382033e-02 -1.0309190809842230e+00 -5.8871426677180379e-02
5.0999999999999979e+00 +9.1287600683338379e+00 +0.0000000000000000e+00 +5.0999997653080467e+00 +1.0247245133952447e-02 -1.0309184895173176e+00 -5.8870706303720571e-02
5.1999999999999975e+00 +9.1287070084355140e+00 +0.0000000000000000e+00 +5.1999997512308394e+00 +1.0247209034055809e-02 -1.0309181489677066e+00 -5.8869976105081920e-02
5.2999999999999972e+00 +9.1286529183323353e+00 +0.0000000000000000e+00 +5.2999997366016993e+00 +1.0247182252032595e-02 -1.0309180372509243e+00 -5.8869238040736488e-02
5.3999999999999968e+00 +9.1285977980244208e+00 +0.0000000000000000e+00 +5.3999997214100146e+00 +1.0247164582759993e-02 -1.0309181322805738e+00 -5.8868494069864483e-02
5.4999999999999964e+00 +9.1285416475116854e+00 +0.0000000000000000e+00 +5.4999997056451706e+00 +1.0247155820626812e-02 -1.0309184119681645e+00 -5.8867746151340425e-02
5.5999999999999961e+00 +9.1284844667938554e+00 +0.0000000000000000e+00 +5.5999996892965545e+00 +1.0247155759508443e-02 -1.0309188542229548e+00 -5.8866996243719105e-02
5.6999999999999957e+00 +9.1284262558704974e+00 +0.0000000000000000e+00 +5.6999996723535524e+00 +1.0247164192741810e-02 -1.0309194369517896e+00 -5.8866246305221838e-02
5.7999999999999954e+00 +9.1283670147410376e+00 +0.0000000000000000e+00 +5.7999996548055517e+00 +1.0247180913100291e-02 -1.0309201380589421e+00 -5.8865498293722555e-02
5.8999999999999950e+00 +9.1283067434047833e+00 +0.0000000000000000e+00 +5.8999996366419376e+00 +1.0247205712768666e-02 -1.0309209354459539e+00 -5.8864754166733785e-02
5.9999999999999947e+00 +9.1282454418609458e+00 +0.0000000000000000e+00 +5.9999996178520973e+00 +1.0247238383318051e-02 -1.0309218070114734e+00 -5.8864015881392916e-02
6.0999999999999943e+00 +9.1281831101086635e+00 +0.0000000000000000e+00 +6.0999995984254163e+00 +1.0247278715680840e-02 -1.0309227306510962e+00 -5.8863285394448142e-02
6.1999999999999940e+00 +9.1281197481470198e+00 +0.0000000000000000e+00 +6.1999995783512807e+00 +1.0247326500125636e-02 -1.0309236842572083e+00 -5.8862564662244654e-02
6.2999999999999936e+00 +9.1280553559750714e+00 +0.0000000000000000e+00 +6.2999995576190768e+00 +1.0247381526232186e-02 -1.0309246457188201e+00 -5.8861855640710628e-02
6.3999999999999932e+00 +9.1279899335918664e+00 +0.0000000000000000e+00 +6.3999995362181910e+00 +1.0247443582866314e-02 -1.0309255929214136e+00 -5.8861160285343411e-02
6.4999999999999929e+00 +9.1279234809964667e+00 +0.0000000000000000e+00 +6.4999995141380094e+00 +1.0247512458154855e-02 -1.0309265037467779e+00 -5.8860480551195540e-02
6.5999999999999925e+00 +9.1278559981879717e+00 +0.0000000000000000e+00 +6.5999994913679174e+00 +1.0247587828712299e-02 -1.0309273594248960e+00 -5.8859818106959408e-02
6.6999999999999922e+00 +9.1277874851655323e+00 +0.0000000000000000e+00 +6.6999994678973014e+00 +1.0247668927759938e-02 -1.0309281545914291e+00 -5.8859173477452426e-02
6.7999999999999918e+00 +9.1277179419283616e+00 +0.0000000000000000e+00 +6.7999994437155467e+00 +1.0247754878061146e-02 -1.0309288872336753e+00 -5.8858546901711765e-02
6.8999999999999915e+00 +9.1276473684757367e+00 +0.0000000000000000e+00 +6.8999994188120404e+00 +1.0247844802789110e-02 -1.0309295553387332e+00 -5.8857938618968687e-02
6.9999999999999911e+00 +9.1275757648069948e+00 +0.0000000000000000e+00 +6.9999993931761679e+00 +1.0247937825546411e-02 -1.0309301568934899e+00 -5.8857348868659419e-02
7.0999999999999908e+00 +9.1275031309215446e+00 +0.0000000000000000e+00 +7.0999993667973156e+00 +1.0248033070384639e-02 -1.0309306898846076e+00 -5.8856777890436245e-02
7.1999999999999904e+00 +9.1274294668188620e+00 +0.0000000000000000e+00 +7.1999993396648696e+00 +1.0248129661823953e-02 -1.0309311522985127e+00 -5.8856225924178225e-02
7.2999999999999901e+00 +9.1273547724984905e+00 +0.0000000000000000e+00 +7.2999993117682163e+00 +1.0248226724872684e-02 -1.0309315421213809e+00 -5.8855693210002225e-02
7.3999999999999897e+00 +9.1272790479600499e+00 +0.0000000000000000e+00 +7.3999992830967409e+00 +1.0248323385046925e-02 -1.0309318573391280e+00 -5.8855179988273769e-02
7.4999999999999893e+00 +9.1272022932032346e+00 +0.0000000000000000e+00 +7.4999992536398308e+00 +1.0248418768390171e-02 -1.0309320959373967e+00 -5.8854686499618086e-02
7.5999999999999890e+00 +9.1271245082278121e+00 +0.0000000000000000e+00 +7.5999992233868721e+00 +1.0248512001492852e-02 -1.0309322559015408e+00 -5.8854212984930827e-02
7.6999999999999886e+00 +9.1270456930336330e+00 +0.0000000000000000e+00 +7.6999991923272511e+00 +1.0248602211511998e-02 -1.0309323352166182e+00 -5.8853759685389168e-02
7.7999999999999883e+00 +9.1269658476206246e+00 +0.0000000000000000e+00 +7.7999991604503540e+00 +1.0248688526190824e-02 -1.0309323318673747e+00 -5.8853326842462618e-02
7.8999999999999879e+00 +9.1268849719888010e+00 +0.0000000000000000e+00 +7.8999991277455672e+00 +1.0248770073878350e-02 -1.0309322438382331e+00 -5.8852914697923975e-02
7.9999999999999876e+00 +9.1268030661382582e+00 +0.0000000000000000e+00 +7.9999990942022778e+00 +1.0248845983549014e-02 -1.0309320691132799e+00 -5.8852523493860241e-02
8.0999999999999872e+00 +9.1267201300691791e+00 +0.0000000000000000e+00 +8.0999990598098712e+00 +1.0248915384822298e-02 -1.0309318056762549e+00 -5.8852153472683515e-02
8.1999999999999869e+00 +9.1266361637818356e+00 +0.0000000000000000e+00 +8.1999990245577354e+00 +1.0248977407982345e-02 -1.0309314515105361e+00 -5.8851804877141936e-02
8.2999999999999865e+00 +9.1265511672765918e+00 +0.0000000000000000e+00 +8.2999989884352576e+00 +1.0249031183997602e-02 -1.0309310045991305e+00 -5.8851477950330612e-02
8.3999999999999861e+00 +9.1264651405539023e+00 +0.0000000000000000e+00 +8.3999989514318241e+00 +1.0249075844540441e-02 -1.0309304629246585e+00 -5.8851172935702530e-02
8.4999999999999858e+00 +9.1263780836143198e+00 +0.0000000000000000e+00 +8.4999989135368210e+00 +1.0249110522006789e-02 -1.0309298244693430e+00 -5.8850890077079367e-02
8.5999999999999854e+00 +9.1262899964584889e+00 +0.0000000000000000e+00 +8.5999988747396365e+00 +1.0249134586723545e-02 -1.0309290875474744e+00 -5.8850629338345721e-02
8.6999999999999851e+00 +9.1262008790871576e+00 +0.0000000000000000e+00 +8.6999988350296569e+00 +1.0249148358203180e-02 -1.0309282518032450e+00 -5.8850389562295116e-02
8.7999999999999847e+00 +9.1261107315011696e+00 +0.0000000000000000e+00 +8.7999987943962701e+00 +1.0249152392942057e-02 -1.0309273172139726e+00 -5.8850169311292319e-02
8.8999999999999844e+00 +9.1260195537014681e+00 +0.0000000000000000e+00 +8.8999987528288642e+00 +1.0249147247117384e-02 -1.0309262837577176e+00 -5.8849967147560502e-02
8.9999999999999840e+00 +9.1259273456890959e+00 +0.0000000000000000e+00 +8.9999987103168255e+00 +1.0249133476575611e-02 -1.0309251514133053e+00 -5.8849781633176855e-02
9.0999999999999837e+00 +9.1258341074651952e+00 +0.0000000000000000e+00 +9.0999986668495421e+00 +1.0249111636820844e-02 -1.0309239201603433e+00 -5.8849611330068156e-02
9.1999999999999833e+00 +9.1257398390310058e+00 +0.0000000000000000e+00 +9.1999986224164019e+00 +1.0249082283003226e-02 -1.0309225899792474e+00 -5.8849454800006501e-02
9.2999999999999829e+00 +9.1256445403878654e+00 +0.0000000000000000e+00 +9.2999985770067930e+00 +1.0249045969907356e-02 -1.0309211608512572e+00 -5.8849310604604833e-02
9.3999999999999826e+00 +9.1255482115372146e+00 +0.0000000000000000e+00 +9.3999985306101035e+00 +1.0249003251940654e-02 -1.0309196327584602e+00 -5.8849177305312611e-02
9.4999999999999822e+00 +9.1254508524805900e+00 +0.0000000000000000e+00 +9.4999984832157196e+00 +1.0248954683121756e-02 -1.0309180056838114e+00 -5.8849053463411516e-02
9.5999999999999819e+00 +9.1253524632196275e+00 +0.0000000000000000e+00 +9.5999984348130329e+00 +1.0248900817068937e-02 -1.0309162796111548e+00 -5.8848937640011013e-02
9.6999999999999815e+00 +9.1252530437560608e+00 +0.0000000000000000e+00 +9.6999983853914298e+00 +1.0248842206988436e-02 -1.0309144545252440e+00 -5.8848828396044071e-02
9.7999999999999812e+00 +9.1251525940917269e+00 +0.0000000000000000e+00 +9.7999983349402999e+00 +1.0248779405662873e-02 -1.0309125304117626e+00 -5.8848724292262754e-02
9.8999999999999808e+00 +9.1250511142285582e+00 +0.0000000000000000e+00 +9.8999982834490314e+00 +1.0248712965439624e-02 -1.0309105072573463e+00 -5.8848623889233988e-02
9.9999999999999805e+00 +9.1249486041685870e+00 +0.0000000000000000e+00 +9.9999982309070141e+00 +1.0248643438219178e-02 -1.0309083850496030e+00 -5.8848525747335186e-02
1.0099999999999980e+01 +9.1248450639139449e+00 +0.0000000000000000e+00 +1.0099998177303636e+01 +1.0248571375443535e-02 -1.0309061637771337e+00 -5.8848428426749949e-02
1.0199999999999980e+01 +9.1247404934668630e+00 +0.0000000000000000e+00 +1.0199998122628287e+01 +1.0248497328084534e-02 -1.0309038434295532e+00 -5.8848330487463713e-02
1.0299999999999979e+01 +9.1246348928296719e+00 +0.0000000000000000e+00 +1.0299998066870357e+01 +1.0248421846632261e-02 -1.0309014239975123e+00 -5.8848230489259530e-02
1.0399999999999979e+01 +9.1245282620047981e+00 +0.0000000000000000e+00 +1.0399998010019234e+01 +1.0248345481083375e-02 -1.0308989054727167e+00 -5.8848126991713719e-02
1.0499999999999979e+01 +9.1244206009947728e+00 +0.0000000000000000e+00 +1.0499997952064309e+01 +1.0248268780929480e-02 -1.0308962878479504e+00 -5.8848018554191597e-02
1.0599999999999978e+01 +9.1243119098022216e+00 +0.0000000000000000e+00 +1.0599997892994972e+01 +1.0248192347601966e-02 -1.0308935724183179e+00 -5.8847904104933665e-02
1.0699999999999978e+01 +9.1242021884298676e+00 +0.0000000000000000e+00 +1.0699997832800614e+01 +1.0248116992053930e-02 -1.0308907656843174e+00 -5.8847784048417902e-02
1.0799999999999978e+01 +9.1240914368805281e+00 +0.0000000000000000e+00 +1.0799997771470625e+01 +1.0248043577749024e-02 -1.0308878754463531e+00 -5.8847659158046094e-02
1.0899999999999977e+01 +9.1239796551571040e+00 +0.0000000000000000e+00 +1.0899997708994395e+01 +1.0247972968253860e-02 -1.0308849095030752e+00 -5.8847530207004874e-02
1.0999999999999977e+01 +9.1238668432625669e+00 +0.0000000000000000e+00 +1.0999997645361315e+01 +1.0247906027241295e-02 -1.0308818756513340e+00 -5.8847397968261515e-02
1.1099999999999977e+01 +9.1237530011999635e+00 +0.0000000000000000e+00 +1.1099997580560776e+01 +1.0247843618493676e-02 -1.0308787816861331e+00 -5.8847263214559770e-02
1.1199999999999976e+01 +9.1236381289723951e+00 +0.0000000000000000e+00 +1.1199997514582169e+01 +1.0247786605906150e-02 -1.0308756354005850e+00 -5.8847126718415625e-02
1.1299999999999976e+01 +9.1235222265830167e+00 +0.0000000000000000e+00 +1.1299997447414885e+01 +1.0247735853489892e-02 -1.0308724445858617e+00 -5.8846989252113055e-02
1.1399999999999975e+01 +9.1234052940350292e+00 +0.0000000000000000e+00 +1.1399997379048315e+01 +1.0247692225375405e-02 -1.0308692170311544e+00 -5.8846851587699860e-02
1.1499999999999975e+01 +9.1232873313316709e+00 +0.0000000000000000e+00 +1.1499997309471851e+01 +1.0247656585815768e-02 -1.0308659605236212e+00 -5.8846714496983366e-02
1.1599999999999975e+01 +9.1231683384762068e+00 +0.0000000000000000e+00 +1.1599997238674886e+01 +1.0247629799189899e-02 -1.0308626828483451e+00 -5.8846578751526289e-02
1.1699999999999974e+01 +9.1230483154719231e+00 +0.0000000000000000e+00 +1.1699997166646810e+01 +1.0247612730005849e-02 -1.0308593917882871e+00 -5.8846445122642366e-02
1.1799999999999974e+01 +9.1229272623221220e+00 +0.0000000000000000e+00 +1.1799997093377016e+01 +1.0247606242904024e-02 -1.0308560951242385e+00 -5.8846314381392185e-02
