# multipoles
# s[mm] polynom_b[n=0][T/m^n] polynom_b[n=1][T/m^n] polynom_b[n=2][T/m^n] polynom_b[n=3][T/m^n] polynom_b[n=4][T/m^n] polynom_b[n=5][T/m^n] polynom_b[n=6][T/m^n] 
-0.0000000000000000e+00 -5.1652075675588194e-01 +1.1528106069608266e+00 +1.0433199112314075e+01 -1.1023683529152136e+01 -3.3616012170784229e+03 +4.1588774384219944e+05 +2.8668392058660261e+07 
-1.0000000000000001e-01 -5.1652092700857566e-01 +1.1528084406291101e+00 +1.0435498072231347e+01 -1.1059801155498279e+01 -3.3905594998666197e+03 +4.1640145835468848e+05 +2.8751452159520835e+07 
-2.0000000000000001e-01 -5.1652110651256233e-01 +1.1528057264532978e+00 +1.0437904689314042e+01 -1.1073083064364260e+01 -3.4215942038046287e+03 +4.1676486110828572e+05 +2.8845968595735569e+07 
-2.9999999999999999e-01 -5.1652129507176670e-01 +1.1528024864371935e+00 +1.0440411464177053e+01 -1.1063756067826510e+01 -3.4545609819188958e+03 +4.1697877876738383e+05 +2.8951266096494377e+07 
-4.0000000000000002e-01 -5.1652149249013035e-01 +1.1527987425880686e+00 +1.0443010899140592e+01 -1.1032047081798096e+01 -3.4893155239573393e+03 +4.1704403857778583e+05 +2.9066669587711081e+07 
-5.0000000000000000e-01 -5.1652169857158969e-01 +1.1527945169152127e+00 +1.0445695496341481e+01 -1.0978183103378955e+01 -3.5257135171787600e+03 +4.1696146831253241e+05 +2.9191503995059889e+07 
-5.9999999999999998e-01 -5.1652191312006490e-01 +1.1527898314253913e+00 +1.0448457755257515e+01 -1.0902391063102103e+01 -3.5636105979985978e+03 +4.1673189535330073e+05 +2.9325094010376919e+07 
-6.9999999999999996e-01 -5.1652213593946783e-01 +1.1527847081294738e+00 +1.0451290173750118e+01 -1.0804898031416865e+01 -3.6028623720784640e+03 +4.1635614794002287e+05 +2.9466764186451096e+07 
-8.0000000000000004e-01 -5.1652236683372799e-01 +1.1527791690380944e+00 +1.0454185252059341e+01 -1.0685931087379831e+01 -3.6433244927981309e+03 +4.1583505439771083e+05 +2.9615839319795940e+07 
-9.0000000000000002e-01 -5.1652260560674268e-01 +1.1527732361657217e+00 +1.0457135486720336e+01 -1.0545717444604993e+01 -3.6848525432129591e+03 +4.1516944390239991e+05 +2.9771643879520714e+07 
-1.0000000000000000e+00 -5.1652285206243409e-01 +1.1527669315261462e+00 +1.0460133375845601e+01 -1.0384484310919323e+01 -3.7273021354392395e+03 +4.1436014561599138e+05 +2.9933502478277028e+07 
-1.1000000000000001e+00 -5.1652310600469620e-01 +1.1527602771367702e+00 +1.0463171414451367e+01 -1.0202459030561085e+01 -3.7705288217745097e+03 +4.1340798959457508e+05 +3.0100739448129665e+07 
-1.2000000000000000e+00 -5.1652336723742964e-01 +1.1527532950172918e+00 +1.0466242097631056e+01 -9.9998690319521817e+00 -3.8143881571017205e+03 +4.1231380643238308e+05 +3.0272679144190535e+07 
-1.3000000000000000e+00 -5.1652363556452840e-01 +1.1527460071886868e+00 +1.0469337919440628e+01 -9.7769418075260823e+00 -3.8587356736324514e+03 +4.1107842718100792e+05 +3.0448645812170919e+07 
-1.3999999999999999e+00 -5.1652391078989457e-01 +1.1527384356728698e+00 +1.0472451374714858e+01 -9.5339049061249881e+00 -3.9034269198922402e+03 +4.0970268331266107e+05 +3.0627963785636704e+07 
-1.5000000000000000e+00 -5.1652419271739014e-01 +1.1527306024990283e+00 +1.0475574952116766e+01 -9.2709861149727608e+00 -3.9483173230364323e+03 +4.0818740777170507e+05 +3.0809956815685399e+07 
-1.6000000000000001e+00 -5.1652448115092175e-01 +1.1527225296929788e+00 +1.0478701146094673e+01 -8.9884131529088211e+00 -3.9932624198637986e+03 +4.0653343321054860e+05 +3.0993949179679174e+07 
-1.7000000000000000e+00 -5.1652477589435652e-01 +1.1527142392901109e+00 +1.0481822445444731e+01 -8.6864140478808682e+00 -4.0381176388610902e+03 +4.0474159418684745e+05 +3.1179264643367555e+07 
-1.8000000000000000e+00 -5.1652507675157655e-01 +1.1527057533231244e+00 +1.0484931339864783e+01 -8.3652167896703631e+00 -4.0827384213080095e+03 +4.0281272516612482e+05 +3.1365227025896195e+07 
-1.8999999999999999e+00 -5.1652538352645061e-01 +1.1526970938308685e+00 +1.0488020317342004e+01 -8.0250495712747316e+00 -4.1269801751528557e+03 +4.0074766190050152e+05 +3.1551159990776971e+07 
-2.0000000000000000e+00 -5.1652569602284648e-01 +1.1526882828558835e+00 +1.0491081864463858e+01 -7.6661407403185358e+00 -4.1706982773066911e+03 +3.9854724119683227e+05 +3.1736387046076179e+07 
-2.1000000000000001e+00 -5.1652601401102416e-01 +1.1526793489339831e+00 +1.0494108159506983e+01 -7.2892169444311081e+00 -4.2137452078173928e+03 +3.9621577015788027e+05 +3.1920184003552176e+07 
-2.2000000000000002e+00 -5.1652633712119977e-01 +1.1526703461736427e+00 +1.0497089189128108e+01 -6.8970147818191725e+00 -4.2559332683062876e+03 +3.9377168309401191e+05 +3.2101468932304971e+07 
-2.2999999999999998e+00 -5.1652666494715860e-01 +1.1526613350381190e+00 +1.0500014151159558e+01 -6.4927802801976320e+00 -4.2970574949916891e+03 +3.9123702581011382e+05 +3.2279028084267959e+07 
-2.3999999999999999e+00 -5.1652699708267447e-01 +1.1526523759880611e+00 +1.0502872242851122e+01 -6.0797593824715763e+00 -4.3369129131768532e+03 +3.8863384365090064e+05 +3.2451647646153141e+07 
-2.5000000000000000e+00 -5.1652733312153865e-01 +1.1526435294851429e+00 +1.0505652663231039e+01 -5.6611980446741050e+00 -4.3752945764433316e+03 +3.8598418204268400e+05 +3.2618113907859400e+07 
-2.6000000000000001e+00 -5.1652767265757094e-01 +1.1526348559889659e+00 +1.0508344615167610e+01 -5.2403421533557335e+00 -4.4119976105384512e+03 +3.8331008603754337e+05 +3.2777213482263066e+07 
-2.7000000000000002e+00 -5.1652801528457737e-01 +1.1526264159617672e+00 +1.0510937300564393e+01 -4.8204376447080497e+00 -4.4468171190993808e+03 +3.8063360097242071e+05 +3.2927732846323170e+07 
-2.7999999999999998e+00 -5.1652836059638363e-01 +1.1526182698585459e+00 +1.0513419924098519e+01 -4.4047302215109436e+00 -4.4795482566122810e+03 +3.7797677082629252e+05 +3.3068458692980763e+07 
-2.8999999999999999e+00 -5.1652870818684626e-01 +1.1526104781371507e+00 +1.0515781693533407e+01 -3.9964656442339384e+00 -4.5099862302259153e+03 +3.7536163990436454e+05 +3.3198177923557818e+07 
-3.0000000000000000e+00 -5.1652905764981605e-01 +1.1526031012526869e+00 +1.0518011817971328e+01 -3.5988895619867325e+00 -4.5379262725977960e+03 +3.7281025186788815e+05 +3.3315677536419284e+07 
-3.1000000000000001e+00 -5.1652940857917617e-01 +1.1525961996578529e+00 +1.0520099510434962e+01 -3.2152475133764078e+00 -4.5631636862441756e+03 +3.7034464969208831e+05 +3.3419744820251621e+07 
-3.2000000000000002e+00 -5.1652976056881694e-01 +1.1525898338036780e+00 +1.0522033985223882e+01 -2.8487849595160188e+00 -4.5854937938200019e+03 +3.6798687590331363e+05 +3.3509167118466645e+07 
-3.2999999999999998e+00 -5.1653011321265652e-01 +1.1525840641363190e+00 +1.0523804461144715e+01 -2.5027471670785872e+00 -4.6047120005850302e+03 +3.6575897184145550e+05 +3.3582732127346061e+07 
-3.3999999999999999e+00 -5.1653046610461750e-01 +1.1525789511012965e+00 +1.0525400158167868e+01 -2.1803793464617045e+00 -4.6206137293350348e+03 +3.6368297850412881e+05 +3.3639227578620650e+07 
-3.5000000000000000e+00 -5.1653081883867991e-01 +1.1525745551415565e+00 +1.0526810303862458e+01 -1.8849265771622801e+00 -4.6329945445696694e+03 +3.6178093605958921e+05 +3.3677441835739315e+07 
-3.6000000000000001e+00 -5.1653117100879620e-01 +1.1525709366937373e+00 +1.0528024123581474e+01 -1.6196337062860355e+00 -4.6416499630663429e+03 +3.6007488329598203e+05 +3.3696162981301859e+07 
-3.7000000000000002e+00 -5.1653152220898868e-01 +1.1525681561938317e+00 +1.0529030852403830e+01 -1.3877455039352951e+00 -4.6463756845648913e+03 +3.5858685849238862e+05 +3.3694179922460735e+07 
-3.7999999999999998e+00 -5.1653187203327433e-01 +1.1525662740711649e+00 +1.0529819724989272e+01 -1.1925064856025931e+00 -4.6469673936427462e+03 +3.5733889837644791e+05 +3.3670281432239272e+07 
-3.8999999999999999e+00 -5.1653222007571831e-01 +1.1525653507531539e+00 +1.0530379983979692e+01 -1.0371610433653624e+00 -4.6432209243461248e+03 +3.5635303889253351e+05 +3.3623256944815509e+07 
-4.0000000000000000e+00 -5.1653256593038810e-01 +1.1525654466604207e+00 +1.0530700872084694e+01 -9.2495330840594625e-01 -4.6349321051690767e+03 +3.5565131440271309e+05 +3.3551895802572958e+07 
-4.0999999999999996e+00 -5.1653290928862716e-01 +1.1525666033034574e+00 +1.0530777583961950e+01 -8.5819480369260204e-01 -4.6220108046551932e+03 +3.5524941822244483e+05 +3.3455590757705133e+07 
-4.2000000000000002e+00 -5.1653325023577501e-01 +1.1525687828359068e+00 +1.0530630769930827e+01 -8.3525089012941733e-01 -4.6048846206080989e+03 +3.5513597272181109e+05 +3.3336542841020890e+07 
-4.2999999999999998e+00 -5.1653358895689971e-01 +1.1525719263294547e+00 +1.0530287872497070e+01 -8.5343155458143438e-01 -4.5841267676719690e+03 +3.5529230137482501e+05 +3.3197759789295074e+07 
-4.4000000000000004e+00 -5.1653392563707068e-01 +1.1525759748517339e+00 +1.0529776333822394e+01 -9.1004659045053649e-01 -4.5603104614727217e+03 +3.5569972611769650e+05 +3.3042249395125654e+07 
-4.5000000000000000e+00 -5.1653426046133499e-01 +1.1525808694708970e+00 +1.0529123593993512e+01 -1.0024057571116936e+00 -4.5340088842648456e+03 +3.5633956837581209e+05 +3.2873019337391924e+07 
-4.5999999999999996e+00 -5.1653459361474818e-01 +1.1525865512481628e+00 +1.0528357092830266e+01 -1.1278185672917023e+00 -4.5057952161292988e+03 +3.5719314780751930e+05 +3.2693077322962459e+07 
-4.7000000000000002e+00 -5.1653492528235412e-01 +1.1525929612448027e+00 +1.0527504269217035e+01 -1.2835944690271497e+00 -4.4762426269667048e+03 +3.5824178330206976e+05 +3.2505431064340025e+07 
-4.7999999999999998e+00 -5.1653525564919045e-01 +1.1526000405179360e+00 +1.0526592561377539e+01 -1.4670427399556012e+00 -4.4459242777829222e+03 +3.5946679240783490e+05 +3.2313088276916243e+07 
-4.9000000000000004e+00 -5.1653558490029194e-01 +1.1526077301222002e+00 +1.0525649406308467e+01 -1.6754725251024676e+00 -4.4154133156674543e+03 +3.6084949148218939e+05 +3.2119056674263645e+07 
-5.0000000000000000e+00 -5.1653591322067560e-01 +1.1526159711099904e+00 +1.0524702238877603e+01 -1.9061928449756635e+00 -4.3852828505267153e+03 +3.6237119575600099e+05 +3.1926343842261687e+07 
-5.0999999999999996e+00 -5.1653624079535154e-01 +1.1526247045273728e+00 +1.0523778492809397e+01 -2.1565124745092534e+00 -4.3561059795219498e+03 +3.6401321859308484e+05 +3.1737957373780239e+07 
-5.2000000000000002e+00 -5.1653656780932411e-01 +1.1526338714208106e+00 +1.0522905600663689e+01 -2.4237401365098830e+00 -4.3284557843947905e+03 +3.6575687260296283e+05 +3.1556904851104952e+07 
-5.2999999999999998e+00 -5.1653689444757278e-01 +1.1526434128315199e+00 +1.0522110991955506e+01 -2.7051843352559906e+00 -4.3029052979218241e+03 +3.6758346865709254e+05 +3.1386193697622564e+07 
-5.4000000000000004e+00 -5.1653722089508025e-01 +1.1526532697967433e+00 +1.0521422095838167e+01 -2.9981533898679031e+00 -4.2800275520458563e+03 +3.6947431604875799e+05 +3.1228831397178315e+07 
-5.5000000000000000e+00 -5.1653754733680679e-01 +1.1526633833522195e+00 +1.0520866339142792e+01 -3.2999555125401927e+00 -4.2603955454938450e+03 +3.7141072297330899e+05 +3.1087825360170849e+07 
-5.5999999999999996e+00 -5.1653787395770601e-01 +1.1526736945274825e+00 +1.0520471146470220e+01 -3.6078986580540540e+00 -4.2445822422260262e+03 +3.7337399557204492e+05 +3.0966182906242616e+07 
-5.7000000000000002e+00 -5.1653820094270486e-01 +1.1526841443504168e+00 +1.0520263939482714e+01 -3.9192906626491886e+00 -4.2331605601047713e+03 +3.7534543877413328e+05 +3.0866911220373191e+07 
-5.7999999999999998e+00 -5.1653852847673110e-01 +1.1526946738433472e+00 +1.0520272138966950e+01 -4.2314391281317461e+00 -4.2267034093836455e+03 +3.7730635558204440e+05 +3.0793017536061872e+07 
-5.9000000000000004e+00 -5.1653885674467648e-01 +1.1527052240265605e+00 +1.0520523161523220e+01 -4.5416515203181582e+00 -4.2257836328777494e+03 +3.7923804763671831e+05 +3.0747508861581463e+07 
-6.0000000000000000e+00 -5.1653918593142956e-01 +1.1527157359134257e+00 +1.0521044422722492e+01 -4.8472350288517703e+00 -4.2309740627877554e+03 +3.8112181440231594e+05 +3.0733392246229060e+07 
-6.0999999999999996e+00 -5.1653951615824312e-01 +1.1527261520089069e+00 +1.0521854304603393e+01 -5.1457448111005473e+00 -4.2426675559567057e+03 +3.8294102040534106e+05 +3.0752794228134159e+07 
-6.2000000000000002e+00 -5.1653984728946567e-01 +1.1527364338701127e+00 +1.0522934491969870e+01 -5.4361364788454889e+00 -4.2605080692023621e+03 +3.8468977170889080e+05 +3.0804108830922946e+07 
-6.2999999999999998e+00 -5.1654017912458317e-01 +1.1527465513665689e+00 +1.0524257283113469e+01 -5.7178320594612106e+00 -4.2839429323565000e+03 +3.8636558545477630e+05 +3.0884731404612157e+07 
-6.4000000000000004e+00 -5.1654051146305058e-01 +1.1527564743843690e+00 +1.0525794972400162e+01 -5.9902542007272173e+00 -4.3124193953477115e+03 +3.8796598297671892e+05 +3.0992056894496765e+07 
-6.5000000000000000e+00 -5.1654084410433254e-01 +1.1527661728178951e+00 +1.0527519856109004e+01 -6.2528258997637760e+00 -4.3453847449427776e+03 +3.8948848810501245e+05 +3.1123480420140907e+07 
-6.5999999999999996e+00 -5.1654117684785816e-01 +1.1527756165775427e+00 +1.0529404225777544e+01 -6.5049707422751677e+00 -4.3822861781993606e+03 +3.9093062860199198e+05 +3.1276396671557732e+07 
-6.7000000000000002e+00 -5.1654150949304933e-01 +1.1527847755847693e+00 +1.0531420372589114e+01 -6.7461127543757868e+00 -4.4225708848708364e+03 +3.9228993530113524e+05 +3.1448200299708471e+07 
-6.7999999999999998e+00 -5.1654184183929985e-01 +1.1527936197735436e+00 +1.0533540584638805e+01 -6.9756764461204099e+00 -4.4656859972720349e+03 +3.9356394237536285e+05 +3.1636285680389766e+07 
-6.9000000000000004e+00 -5.1654217368600874e-01 +1.1528021190937479e+00 +1.0535737149861934e+01 -7.1930869382116747e+00 -4.5110786433324629e+03 +3.9475018814975396e+05 +3.1838047160726149e+07 
-7.0000000000000000e+00 -5.1654250483253294e-01 +1.1528102435093339e+00 +1.0537982352011101e+01 -7.3977698896881785e+00 -4.5581958717896232e+03 +3.9584621465379681e+05 +3.2050878706420355e+07 
-7.0999999999999996e+00 -5.1654283507824106e-01 +1.1528179629990083e+00 +1.0540248476378467e+01 -7.5891515338430047e+00 -4.6064847616874740e+03 +3.9684956787216087e+05 +3.2272174424138717e+07 
-7.2000000000000002e+00 -5.1654316422245428e-01 +1.1528252475556580e+00 +1.0542507801972304e+01 -7.7666586723411344e+00 -4.6553922726897354e+03 +3.9775779775454721e+05 +3.2499327846902277e+07 
-7.2999999999999998e+00 -5.1654349206447192e-01 +1.1528320671918564e+00 +1.0544732606488692e+01 -7.9297188215365324e+00 -4.7043653359269674e+03 +3.9856845905187691e+05 +3.2729732355061062e+07 
-7.4000000000000004e+00 -5.1654381840360997e-01 +1.1528383919327891e+00 +1.0546895168728726e+01 -8.0777600381720767e+00 -4.7528509076801356e+03 +3.9927911036515667e+05 +3.2960781451957356e+07 
-7.5000000000000000e+00 -5.1654414303913110e-01 +1.1528441918226602e+00 +1.0548967761582880e+01 -8.2102110949944382e+00 -4.8002958280811936e+03 +3.9988731518093462e+05 +3.3189868070769165e+07 
-7.5999999999999996e+00 -5.1654446577029078e-01 +1.1528494369227378e+00 +1.0550922657179429e+01 -8.3265014309917333e+00 -4.8461469255463126e+03 +4.0039064159040235e+05 +3.3414385087544411e+07 
-7.7000000000000002e+00 -5.1654478639631496e-01 +1.1528540973142607e+00 +1.0552732124326971e+01 -8.4260612453412129e+00 -4.8898509613693195e+03 +4.0078666288421559e+05 +3.3631725038897313e+07 
-7.7999999999999998e+00 -5.1654510471641280e-01 +1.1528581430929368e+00 +1.0554368430295410e+01 -8.5083213370758184e+00 -4.9308546706340485e+03 +4.0107295662342454e+05 +3.3839280336230688e+07 
-7.9000000000000004e+00 -5.1654542052976971e-01 +1.1528615443794206e+00 +1.0555803838740395e+01 -8.5727134283673383e+00 -4.9686047160680828e+03 +4.0124710657241952e+05 +3.4034443024984203e+07 
-8.0000000000000000e+00 -5.1654573363555523e-01 +1.1528642713100516e+00 +1.0557010612593404e+01 -8.6186698661386565e+00 -5.0025477475763937e+03 +4.0130670084352070e+05 +3.4214605076029234e+07 
-8.0999999999999996e+00 -5.1654604385830982e-01 +1.1528663049269099e+00 +1.0557967742166825e+01 -8.6458974263327626e+00 -5.0322517314980632e+03 +4.0125083268461126e+05 +3.4377676627307527e+07 
-8.1999999999999993e+00 -5.1654635113238101e-01 +1.1528676589607301e+00 +1.0558681366818428e+01 -8.6550470594893198e+00 -5.0577685722490605e+03 +4.0108440477151412e+05 +3.4523612344927333e+07 
-8.3000000000000007e+00 -5.1654665542172029e-01 +1.1528683526726624e+00 +1.0559164547714495e+01 -8.6469722374830464e+00 -5.0792719059632191e+03 +4.0081376086584502e+05 +3.4652872869522341e+07 
-8.4000000000000004e+00 -5.1654695669030926e-01 +1.1528684053132250e+00 +1.0559430350604091e+01 -8.6225261612729351e+00 -5.0969354473865315e+03 +4.0044524365723308e+05 +3.4765919149138145e+07 
-8.5000000000000000e+00 -5.1654725490208708e-01 +1.1528678361267786e+00 +1.0559491836509038e+01 -8.5825618455567128e+00 -5.1109328213723838e+03 +3.9998519498054869e+05 +3.4863211675178282e+07 
-8.5999999999999996e+00 -5.1654755002105845e-01 +1.1528666643429046e+00 +1.0559362073627248e+01 -8.5279318724263149e+00 -5.1214377845225108e+03 +3.9943995439169474e+05 +3.4945211524474606e+07 
-8.6999999999999993e+00 -5.1654784201117021e-01 +1.1528649091831202e+00 +1.0559054124828378e+01 -8.4594885791321293e+00 -5.1286239896754050e+03 +3.9881586027481296e+05 +3.5012379242910445e+07 
-8.8000000000000007e+00 -5.1654813083641127e-01 +1.1528625898570035e+00 +1.0558581057437218e+01 -8.3780839524980628e+00 -5.1326651702730505e+03 +3.9811924922629440e+05 +3.5065175717000835e+07 
-8.9000000000000004e+00 -5.1654841646077176e-01 +1.1528597255620516e+00 +1.0557955939199562e+01 -8.2845696211263409e+00 -5.1337350662670424e+03 +3.9735645601627458e+05 +3.5104061829245232e+07 
-9.0000000000000000e+00 -5.1654869884822341e-01 +1.1528563354848635e+00 +1.0557191836672958e+01 -8.1797968801012519e+00 -5.1320073899888830e+03 +3.9653381371823919e+05 +3.5129498282544538e+07 
-9.0999999999999996e+00 -5.1654897796275900e-01 +1.1528524387965973e+00 +1.0556301818410491e+01 -8.0646165711429134e+00 -5.1276558886342336e+03 +3.9565765304421989e+05 +3.5141945904147923e+07 
-9.1999999999999993e+00 -5.1654925376838223e-01 +1.1528480546591031e+00 +1.0555298954794628e+01 -7.9398792564298688e+00 -5.1208543411359924e+03 +3.9473430334639666e+05 +3.5141865628652617e+07 
-9.3000000000000007e+00 -5.1654952622908035e-01 +1.1528432022187556e+00 +1.0554196314733238e+01 -7.8064350309222812e+00 -5.1117764938099081e+03 +3.9377009152280341e+05 +3.5129718187436357e+07 
-9.4000000000000004e+00 -5.1654979530887224e-01 +1.1528379006097202e+00 +1.0553006971421720e+01 -7.6651336232779599e+00 -5.1005961715834756e+03 +3.9277134261868702e+05 +3.5105964640232138e+07 
-9.5000000000000000e+00 -5.1655006097175382e-01 +1.1528321689512937e+00 +1.0551743995143928e+01 -7.5168243179633629e+00 -5.0874871391165116e+03 +3.9174437937768328e+05 +3.5071065710508935e+07 
-9.5999999999999996e+00 -5.1655032318174565e-01 +1.1528260263465357e+00 +1.0550420459868469e+01 -7.3623559101296587e+00 -5.0726232277484714e+03 +3.9069552197397471e+05 +3.5025482388978243e+07 
-9.6999999999999993e+00 -5.1655058190286562e-01 +1.1528194918870192e+00 +1.0549049439013855e+01 -7.2025768477988219e+00 -5.0561782536505298e+03 +3.8963108885267249e+05 +3.4969675542994715e+07 
-9.8000000000000007e+00 -5.1655083709915461e-01 +1.1528125846456549e+00 +1.0547644010555905e+01 -7.0383350126923352e+00 -5.0383261170737851e+03 +3.8855739544960513e+05 +3.4904106392528124e+07 
-9.9000000000000004e+00 -5.1655108873462596e-01 +1.1528053236822755e+00 +1.0546217247187743e+01 -6.8704778999430758e+00 -5.0192406107037159e+03 +3.8748075525587774e+05 +3.4829235583191909e+07 
-1.0000000000000000e+01 -5.1655133677333465e-01 +1.1527977280427204e+00 +1.0544782229459692e+01 -6.6998526381662362e+00 -4.9990956844595557e+03 +3.8640748026895447e+05 +3.4745524510500714e+07 
-1.0100000000000000e+01 -5.1655158121846489e-01 +1.1527898199935194e+00 +1.0543352043522795e+01 -6.5273540167457513e+00 -4.9780735488988648e+03 +3.8534407021319814e+05 +3.4653544920239493e+07 
