# field on trajectory
# s[mm] rx[mm] ry[mm] rz[mm] bx[T] by[T] bz[T]
0.0000000000000000e+00 +9.1463000000000001e+00 +0.0000000000000000e+00 +0.0000000000000000e+00 +1.1241529911177224e-02 -1.0328876235494677e+00 -5.8636734230715803e-02
-1.0000000000000001e-01 +9.1462994839121592e+00 +0.0000000000000000e+00 -9.9999999998224356e-02 +1.1241856145853168e-02 -1.0328953771485501e+00 -5.8637705517628182e-02
-2.0000000000000001e-01 +9.1462979356434797e+00 +0.0000000000000000e+00 -1.9999999998579476e-01 +1.1242179778349853e-02 -1.0329030694696728e+00 -5.8638652820088920e-02
-3.0000000000000004e-01 +9.1462953551862753e+00 +0.0000000000000000e+00 -2.9999999995205706e-01 +1.1242501721773025e-02 -1.0329106999648658e+00 -5.8639576747298708e-02
-4.0000000000000002e-01 +9.1462917425329220e+00 +0.0000000000000000e+00 -3.9999999988635682e-01 +1.1242822889225991e-02 -1.0329182680856712e+00 -5.8640477908458916e-02
-5.0000000000000000e-01 +9.1462870976758559e+00 +0.0000000000000000e+00 -4.9999999977803938e-01 +1.1243144193820156e-02 -1.0329257732832693e+00 -5.8641356912773272e-02
-5.9999999999999998e-01 +9.1462814206075773e+00 +0.0000000000000000e+00 -5.9999999961644990e-01 +1.1243466548685540e-02 -1.0329332150086150e+00 -5.8642214369449740e-02
-6.9999999999999996e-01 +9.1462747113206522e+00 +0.0000000000000000e+00 -6.9999999939093327e-01 +1.1243790866981296e-02 -1.0329405927125672e+00 -5.8643050887702240e-02
-7.9999999999999993e-01 +9.1462669698077068e+00 +0.0000000000000000e+00 -7.9999999909083419e-01 +1.1244118061906264e-02 -1.0329479058460220e+00 -5.8643867076752627e-02
-8.9999999999999991e-01 +9.1462581960614351e+00 +0.0000000000000000e+00 -8.9999999870549707e-01 +1.1244449046709465e-02 -1.0329551538600437e+00 -5.8644663545832185e-02
-9.9999999999999989e-01 +9.1462483900745948e+00 +0.0000000000000000e+00 -9.9999999822426622e-01 +1.1244784734700640e-02 -1.0329623362059968e+00 -5.8645440904183693e-02
-1.0999999999999999e+00 +9.1462375518400094e+00 +0.0000000000000000e+00 -1.0999999976364856e+00 +1.1245126039260769e-02 -1.0329694523356776e+00 -5.8646199761063070e-02
-1.2000000000000000e+00 +9.1462256813505700e+00 +0.0000000000000000e+00 -1.1999999969314989e+00 +1.1245473873852618e-02 -1.0329765017014494e+00 -5.8646940725741295e-02
-1.3000000000000000e+00 +9.1462127785992315e+00 +0.0000000000000000e+00 -1.2999999960986499e+00 +1.1245829152031235e-02 -1.0329834837563672e+00 -5.8647664407506066e-02
-1.4000000000000001e+00 +9.1461988435790200e+00 +0.0000000000000000e+00 -1.3999999951272819e+00 +1.1246192787454493e-02 -1.0329903979543182e+00 -5.8648371415663633e-02
-1.5000000000000002e+00 +9.1461838762830272e+00 +0.0000000000000000e+00 -1.4999999940067381e+00 +1.1246565693893613e-02 -1.0329972437501469e+00 -5.8649062359540712e-02
-1.6000000000000003e+00 +9.1461678767044123e+00 +0.0000000000000000e+00 -1.5999999927263615e+00 +1.1246948491889749e-02 -1.0330040214072103e+00 -5.8649737805049083e-02
-1.7000000000000004e+00 +9.1461508448364057e+00 +0.0000000000000000e+00 -1.6999999912754948e+00 +1.1247340628653613e-02 -1.0330107344193937e+00 -5.8650398144365144e-02
-1.8000000000000005e+00 +9.1461327806722981e+00 +0.0000000000000000e+00 -1.7999999896434806e+00 +1.1247741258042437e-02 -1.0330173870882546e+00 -5.8651043726221472e-02
-1.9000000000000006e+00 +9.1461136842054440e+00 +0.0000000000000000e+00 -1.8999999878196614e+00 +1.1248149533891185e-02 -1.0330239837154813e+00 -5.8651674899338105e-02
-2.0000000000000004e+00 +9.1460935554292533e+00 +0.0000000000000000e+00 -1.9999999857933792e+00 +1.1248564610000924e-02 -1.0330305286028547e+00 -5.8652292012419373e-02
-2.1000000000000005e+00 +9.1460723943371889e+00 +0.0000000000000000e+00 -2.0999999835539760e+00 +1.1248985640127067e-02 -1.0330370260522093e+00 -5.8652895414150641e-02
-2.2000000000000006e+00 +9.1460502009227582e+00 +0.0000000000000000e+00 -2.1999999810907935e+00 +1.1249411777967757e-02 -1.0330434803653985e+00 -5.8653485453195139e-02
-2.3000000000000007e+00 +9.1460269751795131e+00 +0.0000000000000000e+00 -2.2999999783931737e+00 +1.1249842177152140e-02 -1.0330498958442544e+00 -5.8654062478190792e-02
-2.4000000000000008e+00 +9.1460027171010445e+00 +0.0000000000000000e+00 -2.3999999754504580e+00 +1.1250275991228683e-02 -1.0330562767905500e+00 -5.8654626837746866e-02
-2.5000000000000009e+00 +9.1459774266809788e+00 +0.0000000000000000e+00 -2.4999999722519872e+00 +1.1250712373653495e-02 -1.0330626275059633e+00 -5.8655178880440924e-02
-2.6000000000000010e+00 +9.1459511039129708e+00 +0.0000000000000000e+00 -2.5999999687871025e+00 +1.1251150477778644e-02 -1.0330689522920373e+00 -5.8655718954815500e-02
-2.7000000000000011e+00 +9.1459237487907039e+00 +0.0000000000000000e+00 -2.6999999650451447e+00 +1.1251589456840462e-02 -1.0330752554501428e+00 -5.8656247409374876e-02
-2.8000000000000012e+00 +9.1458953613078826e+00 +0.0000000000000000e+00 -2.7999999610154545e+00 +1.1252028463947869e-02 -1.0330815412814431e+00 -5.8656764592581991e-02
-2.9000000000000012e+00 +9.1458659414582257e+00 +0.0000000000000000e+00 -2.8999999566873726e+00 +1.1252466652070683e-02 -1.0330878140868525e+00 -5.8657270852855090e-02
-3.0000000000000013e+00 +9.1458354892354699e+00 +0.0000000000000000e+00 -2.9999999520502389e+00 +1.1252903174027943e-02 -1.0330940781670002e+00 -5.8657766538564603e-02
-3.1000000000000014e+00 +9.1458040046333569e+00 +0.0000000000000000e+00 -3.0999999470933939e+00 +1.1253337182476220e-02 -1.0331003378221930e+00 -5.8658251998029896e-02
-3.2000000000000015e+00 +9.1457714876456340e+00 +0.0000000000000000e+00 -3.1999999418061771e+00 +1.1253767829897938e-02 -1.0331065973523770e+00 -5.8658727579516054e-02
-3.3000000000000016e+00 +9.1457379382660502e+00 +0.0000000000000000e+00 -3.2999999361779286e+00 +1.1254194268589668e-02 -1.0331128610570992e+00 -5.8659193631230670e-02
-3.4000000000000017e+00 +9.1457033564883492e+00 +0.0000000000000000e+00 -3.3999999301979877e+00 +1.1254615650650508e-02 -1.0331191332354703e+00 -5.8659650501320680e-02
-3.5000000000000018e+00 +9.1456677423062658e+00 +0.0000000000000000e+00 -3.4999999238556936e+00 +1.1255031127970321e-02 -1.0331254181861276e+00 -5.8660098537869042e-02
-3.6000000000000019e+00 +9.1456310957135241e+00 +0.0000000000000000e+00 -3.5999999171403854e+00 +1.1255440094644345e-02 -1.0331317184262410e+00 -5.8660538119351617e-02
-3.7000000000000020e+00 +9.1455934167038322e+00 +0.0000000000000000e+00 -3.6999999100414023e+00 +1.1255842914340038e-02 -1.0331380293488150e+00 -5.8660969746046995e-02
-3.8000000000000020e+00 +9.1455547052708877e+00 +0.0000000000000000e+00 -3.7999999025480826e+00 +1.1256240193185453e-02 -1.0331443445659094e+00 -5.8661393948713988e-02
-3.9000000000000021e+00 +9.1455149614083844e+00 +0.0000000000000000e+00 -3.8999998946497652e+00 +1.1256632537373683e-02 -1.0331506576896610e+00 -5.8661811258142987e-02
-4.0000000000000018e+00 +9.1454741851100181e+00 +0.0000000000000000e+00 -3.9999998863357882e+00 +1.1257020553171220e-02 -1.0331569623322878e+00 -5.8662222205159480e-02
-4.1000000000000014e+00 +9.1454323763694934e+00 +0.0000000000000000e+00 -4.0999998775954900e+00 +1.1257404846926347e-02 -1.0331632521060976e+00 -5.8662627320627624e-02
-4.2000000000000011e+00 +9.1453895351805308e+00 +0.0000000000000000e+00 -4.1999998684182085e+00 +1.1257786025077505e-02 -1.0331695206234910e+00 -5.8663027135453849e-02
-4.3000000000000007e+00 +9.1453456615368705e+00 +0.0000000000000000e+00 -4.2999998587932806e+00 +1.1258164694161629e-02 -1.0331757614969703e+00 -5.8663422180590341e-02
-4.4000000000000004e+00 +9.1453007554322809e+00 +0.0000000000000000e+00 -4.3999998487100447e+00 +1.1258541460822573e-02 -1.0331819683391432e+00 -5.8663812987038648e-02
-4.5000000000000000e+00 +9.1452548168605645e+00 +0.0000000000000000e+00 -4.4999998381578381e+00 +1.1258916931819440e-02 -1.0331881347627303e+00 -5.8664200085853151e-02
-4.5999999999999996e+00 +9.1452078458155661e+00 +0.0000000000000000e+00 -4.5999998271259983e+00 +1.1259291714034973e-02 -1.0331942543805712e+00 -5.8664584008144796e-02
-4.6999999999999993e+00 +9.1451598422911733e+00 +0.0000000000000000e+00 -4.6999998156038618e+00 +1.1259666414483881e-02 -1.0332003208056295e+00 -5.8664965285084365e-02
-4.7999999999999989e+00 +9.1451108062813322e+00 +0.0000000000000000e+00 -4.7999998035807661e+00 +1.1260041640321268e-02 -1.0332063276510006e+00 -5.8665344447906352e-02
-4.8999999999999986e+00 +9.1450607377800441e+00 +0.0000000000000000e+00 -4.8999997910460467e+00 +1.1260417998850948e-02 -1.0332122685299170e+00 -5.8665722027912322e-02
-4.9999999999999982e+00 +9.1450096367813796e+00 +0.0000000000000000e+00 -4.9999997779890410e+00 +1.1260796097533813e-02 -1.0332181370557538e+00 -5.8666098556474429e-02
-5.0999999999999979e+00 +9.1449575032794783e+00 +0.0000000000000000e+00 -5.0999997643990858e+00 +1.1261176543996229e-02 -1.0332239268420353e+00 -5.8666474565039116e-02
-5.1999999999999975e+00 +9.1449043372685619e+00 +0.0000000000000000e+00 -5.1999997502655173e+00 +1.1261559946038354e-02 -1.0332296315024427e+00 -5.8666850585130575e-02
-5.2999999999999972e+00 +9.1448501387429353e+00 +0.0000000000000000e+00 -5.2999997355776713e+00 +1.1261946911642525e-02 -1.0332352446508168e+00 -5.8667227148354303e-02
-5.3999999999999968e+00 +9.1447949076969959e+00 +0.0000000000000000e+00 -5.3999997203248835e+00 +1.1262338048981619e-02 -1.0332407599011681e+00 -5.8667604786400700e-02
-5.4999999999999964e+00 +9.1447386441252387e+00 +0.0000000000000000e+00 -5.4999997044964903e+00 +1.1262733966427383e-02 -1.0332461708676803e+00 -5.8667984031048524e-02
-5.5999999999999961e+00 +9.1446813480222637e+00 +0.0000000000000000e+00 -5.5999996880818275e+00 +1.1263135115795927e-02 -1.0332514733112490e+00 -5.8668365420604607e-02
-5.6999999999999957e+00 +9.1446230193827773e+00 +0.0000000000000000e+00 -5.6999996710702305e+00 +1.1263541321972584e-02 -1.0332566715788649e+00 -5.8668749519176160e-02
-5.7999999999999954e+00 +9.1445636582015890e+00 +0.0000000000000000e+00 -5.7999996534510352e+00 +1.1263952253050056e-02 -1.0332617721634509e+00 -5.8669136897294444e-02
-5.8999999999999950e+00 +9.1445032644736095e+00 +0.0000000000000000e+00 -5.8999996352135771e+00 +1.1264367577068890e-02 -1.0332667815571868e+00 -5.8669528125467274e-02
-5.9999999999999947e+00 +9.1444418381938366e+00 +0.0000000000000000e+00 -5.9999996163471918e+00 +1.1264786962013986e-02 -1.0332717062514778e+00 -5.8669923774177332e-02
-6.0999999999999943e+00 +9.1443793793573569e+00 +0.0000000000000000e+00 -6.0999995968412142e+00 +1.1265210075811154e-02 -1.0332765527369212e+00 -5.8670324413880551e-02
-6.1999999999999940e+00 +9.1443158879593334e+00 +0.0000000000000000e+00 -6.1999995766849798e+00 +1.1265636586323612e-02 -1.0332813275032717e+00 -5.8670730615004288e-02
-6.2999999999999936e+00 +9.1442513639950000e+00 +0.0000000000000000e+00 -6.2999995558678235e+00 +1.1266066161348535e-02 -1.0332860370394086e+00 -5.8671142947945690e-02
-6.3999999999999932e+00 +9.1441858074596567e+00 +0.0000000000000000e+00 -6.3999995343790799e+00 +1.1266498468613585e-02 -1.0332906878333046e+00 -5.8671561983070004e-02
-6.4999999999999929e+00 +9.1441192183486635e+00 +0.0000000000000000e+00 -6.4999995122080847e+00 +1.1266933175773448e-02 -1.0332952863719889e+00 -5.8671988290708930e-02
-6.5999999999999925e+00 +9.1440515966574303e+00 +0.0000000000000000e+00 -6.5999994893441718e+00 +1.1267369950406354e-02 -1.0332998391415174e+00 -5.8672422441158785e-02
-6.6999999999999922e+00 +9.1439829423814150e+00 +0.0000000000000000e+00 -6.6999994657766768e+00 +1.1267808460010641e-02 -1.0333043526269372e+00 -5.8672865004678984e-02
-6.7999999999999918e+00 +9.1439132555161144e+00 +0.0000000000000000e+00 -6.7999994414949336e+00 +1.1268248372001277e-02 -1.0333088333122551e+00 -5.8673316551490225e-02
-6.8999999999999915e+00 +9.1438425360570559e+00 +0.0000000000000000e+00 -6.8999994164882770e+00 +1.1268689353706403e-02 -1.0333132876804032e+00 -5.8673777651772854e-02
-6.9999999999999911e+00 +9.1437707839997966e+00 +0.0000000000000000e+00 -6.9999993907460407e+00 +1.1269131072363877e-02 -1.0333177222132039e+00 -5.8674248875665129e-02
-7.0999999999999908e+00 +9.1436979993399117e+00 +0.0000000000000000e+00 -7.0999993642575596e+00 +1.1269573195117835e-02 -1.0333221433913420e+00 -5.8674730793261597e-02
-7.1999999999999904e+00 +9.1436241820729904e+00 +0.0000000000000000e+00 -7.1999993370121675e+00 +1.1270015389015214e-02 -1.0333265576943247e+00 -5.8675223974611286e-02
-7.2999999999999901e+00 +9.1435493321946293e+00 +0.0000000000000000e+00 -7.2999993089991975e+00 +1.1270457321002311e-02 -1.0333309716004522e+00 -5.8675728989716160e-02
-7.3999999999999897e+00 +9.1434734497004246e+00 +0.0000000000000000e+00 -7.3999992802079841e+00 +1.1270898657921346e-02 -1.0333353915867840e+00 -5.8676246408529323e-02
-7.4999999999999893e+00 +9.1433965345859676e+00 +0.0000000000000000e+00 -7.4999992506278614e+00 +1.1271339066507001e-02 -1.0333398241291041e+00 -5.8676776800953338e-02
-7.5999999999999890e+00 +9.1433185868468350e+00 +0.0000000000000000e+00 -7.5999992202481623e+00 +1.1271778275128617e-02 -1.0333442736339393e+00 -5.8677320621016771e-02
-7.6999999999999886e+00 +9.1432396064785912e+00 +0.0000000000000000e+00 -7.6999991890582207e+00 +1.1272216259081006e-02 -1.0333487362352114e+00 -5.8677877859429420e-02
-7.7999999999999883e+00 +9.1431595934767849e+00 +0.0000000000000000e+00 -7.7999991570473686e+00 +1.1272653055434208e-02 -1.0333532059994641e+00 -5.8678448391110395e-02
-7.8999999999999879e+00 +9.1430785478369572e+00 +0.0000000000000000e+00 -7.8999991242049399e+00 +1.1273088701299408e-02 -1.0333576769941217e+00 -5.8679032091024784e-02
-7.9999999999999876e+00 +9.1429964695546495e+00 +0.0000000000000000e+00 -7.9999990905202676e+00 +1.1273523233830450e-02 -1.0333621432875291e+00 -5.8679628834185156e-02
-8.0999999999999872e+00 +9.1429133586254085e+00 +0.0000000000000000e+00 -8.0999990559826838e+00 +1.1273956690225453e-02 -1.0333665989489880e+00 -5.8680238495653035e-02
-8.1999999999999869e+00 +9.1428292150447916e+00 +0.0000000000000000e+00 -8.1999990205815223e+00 +1.1274389107728369e-02 -1.0333710380487979e+00 -5.8680860950540488e-02
-8.2999999999999865e+00 +9.1427440388083721e+00 +0.0000000000000000e+00 -8.2999989843061144e+00 +1.1274820523630574e-02 -1.0333754546582958e+00 -5.8681496074011699e-02
-8.3999999999999861e+00 +9.1426578299117445e+00 +0.0000000000000000e+00 -8.3999989471457930e+00 +1.1275250975272395e-02 -1.0333798428498899e+00 -5.8682143741284332e-02
-8.4999999999999858e+00 +9.1425705883505355e+00 +0.0000000000000000e+00 -8.4999989090898911e+00 +1.1275680500044707e-02 -1.0333841966971034e+00 -5.8682803827631205e-02
-8.5999999999999854e+00 +9.1424823141204019e+00 +0.0000000000000000e+00 -8.5999988701277399e+00 +1.1276109135390485e-02 -1.0333885102746103e+00 -5.8683476208381720e-02
-8.6999999999999851e+00 +9.1423930072170450e+00 +0.0000000000000000e+00 -8.6999988302486724e+00 +1.1276536918806361e-02 -1.0333927776582741e+00 -5.8684160758923479e-02
-8.7999999999999847e+00 +9.1423026676362085e+00 +0.0000000000000000e+00 -8.7999987894420197e+00 +1.1276963887844191e-02 -1.0333969929251883e+00 -5.8684857354703718e-02
-8.8999999999999844e+00 +9.1422112953736914e+00 +0.0000000000000000e+00 -8.8999987476971150e+00 +1.1277390080112601e-02 -1.0334011501537148e+00 -5.8685565871230867e-02
-8.9999999999999840e+00 +9.1421188904253494e+00 +0.0000000000000000e+00 -8.9999987050032892e+00 +1.1277815533278522e-02 -1.0334052434235197e+00 -5.8686286184076099e-02
-9.0999999999999837e+00 +9.1420254527871023e+00 +0.0000000000000000e+00 -9.0999986613498738e+00 +1.1278240285068778e-02 -1.0334092668156161e+00 -5.8687018168874797e-02
-9.1999999999999833e+00 +9.1419309824549408e+00 +0.0000000000000000e+00 -9.1999986167262016e+00 +1.1278664373271590e-02 -1.0334132144123997e+00 -5.8687761701328091e-02
-9.2999999999999829e+00 +9.1418354794249286e+00 +0.0000000000000000e+00 -9.2999985711216038e+00 +1.1279087835738152e-02 -1.0334170802976901e+00 -5.8688516657204398e-02
-9.3999999999999826e+00 +9.1417389436932144e+00 +0.0000000000000000e+00 -9.3999985245254116e+00 +1.1279510710384135e-02 -1.0334208585567681e+00 -5.8689282912340976e-02
-9.4999999999999822e+00 +9.1416413752560342e+00 +0.0000000000000000e+00 -9.4999984769269563e+00 +1.1279933035191255e-02 -1.0334245432764151e+00 -5.8690060342645366e-02
-9.5999999999999819e+00 +9.1415427741097144e+00 +0.0000000000000000e+00 -9.5999984283155690e+00 +1.1280354813895029e-02 -1.0334281295827006e+00 -5.8690848915350161e-02
-9.6999999999999815e+00 +9.1414431402506846e+00 +0.0000000000000000e+00 -9.6999983786805828e+00 +1.1280775913004682e-02 -1.0334316167536608e+00 -5.8691648962769183e-02
-9.7999999999999812e+00 +9.1413424736754685e+00 +0.0000000000000000e+00 -9.7999983280113288e+00 +1.1281196164688376e-02 -1.0334350051045722e+00 -5.8692460908492602e-02
-9.8999999999999808e+00 +9.1412407743806909e+00 +0.0000000000000000e+00 -9.8999982762971381e+00 +1.1281615401080679e-02 -1.0334382949498897e+00 -5.8693285176119762e-02
-9.9999999999999805e+00 +9.1411380423630764e+00 +0.0000000000000000e+00 -9.9999982235273421e+00 +1.1282033454281561e-02 -1.0334414866032200e+00 -5.8694122189259082e-02
-1.0099999999999980e+01 +9.1410342776194451e+00 +0.0000000000000000e+00 -1.0099998169691274e+01 +1.1282450156355395e-02 -1.0334445803773014e+00 -5.8694972371527973e-02
-1.0199999999999980e+01 +9.1409294801467169e+00 +0.0000000000000000e+00 -1.0199998114778262e+01 +1.1282865339329930e-02 -1.0334475765839799e+00 -5.8695836146552674e-02
-1.0299999999999979e+01 +9.1408236499419093e+00 +0.0000000000000000e+00 -1.0299998058777641e+01 +1.1283278835195297e-02 -1.0334504755341825e+00 -5.8696713937968048e-02
-1.0399999999999979e+01 +9.1407167870021357e+00 +0.0000000000000000e+00 -1.0399998001678741e+01 +1.1283690475903016e-02 -1.0334532775378993e+00 -5.8697606169417556e-02
-1.0499999999999979e+01 +9.1406088913246091e+00 +0.0000000000000000e+00 -1.0499997943470893e+01 +1.1284100093364981e-02 -1.0334559829041547e+00 -5.8698513264552984e-02
-1.0599999999999978e+01 +9.1404999629066364e+00 +0.0000000000000000e+00 -1.0599997884143431e+01 +1.1284507519452489e-02 -1.0334585919409895e+00 -5.8699435647034448e-02
-1.0699999999999978e+01 +9.1403900017456206e+00 +0.0000000000000000e+00 -1.0699997823685683e+01 +1.1284912585995234e-02 -1.0334611049554316e+00 -5.8700373740530165e-02
-1.0799999999999978e+01 +9.1402790078390641e+00 +0.0000000000000000e+00 -1.0799997762086983e+01 +1.1285315124780331e-02 -1.0334635222534774e+00 -5.8701327968716313e-02
-1.0899999999999977e+01 +9.1401669811845618e+00 +0.0000000000000000e+00 -1.0899997699336662e+01 +1.1285714967551319e-02 -1.0334658441400655e+00 -5.8702298755276966e-02
-1.0999999999999977e+01 +9.1400539217798062e+00 +0.0000000000000000e+00 -1.0999997635424052e+01 +1.1286111946007201e-02 -1.0334680709190556e+00 -5.8703286523903886e-02
-1.1099999999999977e+01 +9.1399398296225840e+00 +0.0000000000000000e+00 -1.1099997570338484e+01 +1.1286505891801458e-02 -1.0334702028932032e+00 -5.8704291698296426e-02
-1.1199999999999976e+01 +9.1398247047107759e+00 +0.0000000000000000e+00 -1.1199997504069291e+01 +1.1286896636541076e-02 -1.0334722403641377e+00 -5.8705314702161428e-02
-1.1299999999999976e+01 +9.1397085470423587e+00 +0.0000000000000000e+00 -1.1299997436605803e+01 +1.1287284011785590e-02 -1.0334741836323373e+00 -5.8706355959212975e-02
-1.1399999999999975e+01 +9.1395913566154032e+00 +0.0000000000000000e+00 -1.1399997367937354e+01 +1.1287667849046112e-02 -1.0334760329971078e+00 -5.8707415893172445e-02
-1.1499999999999975e+01 +9.1394731334280745e+00 +0.0000000000000000e+00 -1.1499997298053275e+01 +1.1288047979784365e-02 -1.0334777887565576e+00 -5.8708494927768175e-02
-1.1599999999999975e+01 +9.1393538774786300e+00 +0.0000000000000000e+00 -1.1599997226942898e+01 +1.1288424277284246e-02 -1.0334794515816672e+00 -5.8709593324066042e-02
-1.1699999999999974e+01 +9.1392335887654195e+00 +0.0000000000000000e+00 -1.1699997154595556e+01 +1.1288796782303011e-02 -1.0334810236392571e+00 -5.8710710692388889e-02
