# trajectory
# s[mm] rx[mm] ry[mm] rz[mm] px[rad] py[rad] pz[rad]
0.0000000000000000e+00 +9.1463000000000001e+00 +0.0000000000000000e+00 +0.0000000000000000e+00 +0.0000000000000000e+00 +0.0000000000000000e+00 +1.0000000000000000e+00
-1.0000000000000001e-01 +9.1462994839121592e+00 +0.0000000000000000e+00 -9.9999999998224356e-02 +1.0321769741318430e-05 +0.0000000000000000e+00 +9.9999999994673050e-01
-2.0000000000000001e-01 +9.1462979356434797e+00 +0.0000000000000000e+00 -1.9999999998579476e-01 +2.0643616658168568e-05 +0.0000000000000000e+00 +9.9999999978692056e-01
-3.0000000000000004e-01 +9.1462953551862753e+00 +0.0000000000000000e+00 -2.9999999995205706e-01 +3.0965540134357501e-05 +0.0000000000000000e+00 +9.9999999952056773e-01
-4.0000000000000002e-01 +9.1462917425329220e+00 +0.0000000000000000e+00 -3.9999999988635682e-01 +4.1287539548213819e-05 +0.0000000000000000e+00 +9.9999999914766957e-01
-5.0000000000000000e-01 +9.1462870976758559e+00 +0.0000000000000000e+00 -4.9999999977803938e-01 +5.1609614272583347e-05 +0.0000000000000000e+00 +9.9999999866822387e-01
-5.9999999999999998e-01 +9.1462814206075773e+00 +0.0000000000000000e+00 -5.9999999961644990e-01 +6.1931763674826244e-05 +0.0000000000000000e+00 +9.9999999808222828e-01
-6.9999999999999996e-01 +9.1462747113206522e+00 +0.0000000000000000e+00 -6.9999999939093327e-01 +7.2253987116815358e-05 +0.0000000000000000e+00 +9.9999999738968059e-01
-7.9999999999999993e-01 +9.1462669698077068e+00 +0.0000000000000000e+00 -7.9999999909083419e-01 +8.2576283954935971e-05 +0.0000000000000000e+00 +9.9999999659057859e-01
-8.9999999999999991e-01 +9.1462581960614351e+00 +0.0000000000000000e+00 -8.9999999870549707e-01 +9.2898653540086812e-05 +0.0000000000000000e+00 +9.9999999568492004e-01
-9.9999999999999989e-01 +9.1462483900745948e+00 +0.0000000000000000e+00 -9.9999999822426622e-01 +1.0322109521768238e-04 +0.0000000000000000e+00 +9.9999999467270273e-01
-1.0999999999999999e+00 +9.1462375518400094e+00 +0.0000000000000000e+00 -1.0999999976364856e+00 +1.1354360832765663e-04 +0.0000000000000000e+00 +9.9999999355392444e-01
-1.2000000000000000e+00 +9.1462256813505700e+00 +0.0000000000000000e+00 -1.1999999969314989e+00 +1.2386619220446795e-04 +0.0000000000000000e+00 +9.9999999232858316e-01
-1.3000000000000000e+00 +9.1462127785992315e+00 +0.0000000000000000e+00 -1.2999999960986499e+00 +1.3418884617710547e-04 +0.0000000000000000e+00 +9.9999999099667669e-01
-1.4000000000000001e+00 +9.1461988435790200e+00 +0.0000000000000000e+00 -1.3999999951272819e+00 +1.4451156956909664e-04 +0.0000000000000000e+00 +9.9999998955820302e-01
-1.5000000000000002e+00 +9.1461838762830272e+00 +0.0000000000000000e+00 -1.4999999940067381e+00 +1.5483436169851618e-04 +0.0000000000000000e+00 +9.9999998801316003e-01
-1.6000000000000003e+00 +9.1461678767044123e+00 +0.0000000000000000e+00 -1.5999999927263615e+00 +1.6515722188001355e-04 +0.0000000000000000e+00 +9.9999998636154586e-01
-1.7000000000000004e+00 +9.1461508448364057e+00 +0.0000000000000000e+00 -1.6999999912754948e+00 +1.7548014944701192e-04 +0.0000000000000000e+00 +9.9999998460335837e-01
-1.8000000000000005e+00 +9.1461327806722981e+00 +0.0000000000000000e+00 -1.7999999896434806e+00 +1.8580314377390208e-04 +0.0000000000000000e+00 +9.9999998273859569e-01
-1.9000000000000006e+00 +9.1461136842054440e+00 +0.0000000000000000e+00 -1.8999999878196614e+00 +1.9612620427806132e-04 +0.0000000000000000e+00 +9.9999998076725582e-01
-2.0000000000000004e+00 +9.1460935554292533e+00 +0.0000000000000000e+00 -1.9999999857933792e+00 +2.0644933041985444e-04 +0.0000000000000000e+00 +9.9999997868933677e-01
-2.1000000000000005e+00 +9.1460723943371889e+00 +0.0000000000000000e+00 -2.0999999835539760e+00 +2.1677252170263463e-04 +0.0000000000000000e+00 +9.9999997650483663e-01
-2.2000000000000006e+00 +9.1460502009227582e+00 +0.0000000000000000e+00 -2.1999999810907935e+00 +2.2709577767274369e-04 +0.0000000000000000e+00 +9.9999997421375353e-01
-2.3000000000000007e+00 +9.1460269751795131e+00 +0.0000000000000000e+00 -2.2999999783931737e+00 +2.3741909791951212e-04 +0.0000000000000000e+00 +9.9999997181608558e-01
-2.4000000000000008e+00 +9.1460027171010445e+00 +0.0000000000000000e+00 -2.3999999754504580e+00 +2.4774248207525869e-04 +0.0000000000000000e+00 +9.9999996931183077e-01
-2.5000000000000009e+00 +9.1459774266809788e+00 +0.0000000000000000e+00 -2.4999999722519872e+00 +2.5806592981528957e-04 +0.0000000000000000e+00 +9.9999996670098734e-01
-2.6000000000000010e+00 +9.1459511039129708e+00 +0.0000000000000000e+00 -2.5999999687871025e+00 +2.6838944085789740e-04 +0.0000000000000000e+00 +9.9999996398355329e-01
-2.7000000000000011e+00 +9.1459237487907039e+00 +0.0000000000000000e+00 -2.6999999650451447e+00 +2.7871301496435954e-04 +0.0000000000000000e+00 +9.9999996115952683e-01
-2.8000000000000012e+00 +9.1458953613078826e+00 +0.0000000000000000e+00 -2.7999999610154545e+00 +2.8903665193893627e-04 +0.0000000000000000e+00 +9.9999995822890597e-01
-2.9000000000000012e+00 +9.1458659414582257e+00 +0.0000000000000000e+00 -2.8999999566873726e+00 +2.9936035162886853e-04 +0.0000000000000000e+00 +9.9999995519168883e-01
-3.0000000000000013e+00 +9.1458354892354699e+00 +0.0000000000000000e+00 -2.9999999520502389e+00 +3.0968411392437515e-04 +0.0000000000000000e+00 +9.9999995204787351e-01
-3.1000000000000014e+00 +9.1458040046333569e+00 +0.0000000000000000e+00 -3.0999999470933939e+00 +3.2000793875864994e-04 +0.0000000000000000e+00 +9.9999994879745813e-01
-3.2000000000000015e+00 +9.1457714876456340e+00 +0.0000000000000000e+00 -3.1999999418061771e+00 +3.3033182610785823e-04 +0.0000000000000000e+00 +9.9999994544044069e-01
-3.3000000000000016e+00 +9.1457379382660502e+00 +0.0000000000000000e+00 -3.2999999361779286e+00 +3.4065577599113299e-04 +0.0000000000000000e+00 +9.9999994197681930e-01
-3.4000000000000017e+00 +9.1457033564883492e+00 +0.0000000000000000e+00 -3.3999999301979877e+00 +3.5097978847057075e-04 +0.0000000000000000e+00 +9.9999993840659196e-01
-3.5000000000000018e+00 +9.1456677423062658e+00 +0.0000000000000000e+00 -3.4999999238556936e+00 +3.6130386365122708e-04 +0.0000000000000000e+00 +9.9999993472975679e-01
-3.6000000000000019e+00 +9.1456310957135241e+00 +0.0000000000000000e+00 -3.5999999171403854e+00 +3.7162800167666227e-04 +0.0000000000000000e+00 +9.9999993094631168e-01
-3.7000000000000020e+00 +9.1455934167038322e+00 +0.0000000000000000e+00 -3.6999999100414023e+00 +3.8195220267999428e-04 +0.0000000000000000e+00 +9.9999992705625462e-01
-3.8000000000000020e+00 +9.1455547052708877e+00 +0.0000000000000000e+00 -3.7999999025480826e+00 +3.9227646673495499e-04 +0.0000000000000000e+00 +9.9999992305958374e-01
-3.9000000000000021e+00 +9.1455149614083844e+00 +0.0000000000000000e+00 -3.8999998946497652e+00 +4.0260079385144137e-04 +0.0000000000000000e+00 +9.9999991895629703e-01
-4.0000000000000018e+00 +9.1454741851100181e+00 +0.0000000000000000e+00 -3.9999998863357882e+00 +4.1292518397551632e-04 +0.0000000000000000e+00 +9.9999991474639249e-01
-4.1000000000000014e+00 +9.1454323763694934e+00 +0.0000000000000000e+00 -4.0999998775954900e+00 +4.2324963698940957e-04 +0.0000000000000000e+00 +9.9999991042986824e-01
-4.2000000000000011e+00 +9.1453895351805308e+00 +0.0000000000000000e+00 -4.1999998684182085e+00 +4.3357415271151845e-04 +0.0000000000000000e+00 +9.9999990600672251e-01
-4.3000000000000007e+00 +9.1453456615368705e+00 +0.0000000000000000e+00 -4.2999998587932806e+00 +4.4389873089640901e-04 +0.0000000000000000e+00 +9.9999990147695339e-01
-4.4000000000000004e+00 +9.1453007554322809e+00 +0.0000000000000000e+00 -4.3999998487100447e+00 +4.5422337123481699e-04 +0.0000000000000000e+00 +9.9999989684055912e-01
-4.5000000000000000e+00 +9.1452548168605645e+00 +0.0000000000000000e+00 -4.4999998381578381e+00 +4.6454807335364896e-04 +0.0000000000000000e+00 +9.9999989209753792e-01
-4.5999999999999996e+00 +9.1452078458155661e+00 +0.0000000000000000e+00 -4.5999998271259983e+00 +4.7487283681598341e-04 +0.0000000000000000e+00 +9.9999988724788802e-01
-4.6999999999999993e+00 +9.1451598422911733e+00 +0.0000000000000000e+00 -4.6999998156038618e+00 +4.8519766112107204e-04 +0.0000000000000000e+00 +9.9999988229160786e-01
-4.7999999999999989e+00 +9.1451108062813322e+00 +0.0000000000000000e+00 -4.7999998035807661e+00 +4.9552254570434096e-04 +0.0000000000000000e+00 +9.9999987722869577e-01
-4.8999999999999986e+00 +9.1450607377800441e+00 +0.0000000000000000e+00 -4.8999997910460467e+00 +5.0584748993739211e-04 +0.0000000000000000e+00 +9.9999987205915020e-01
-4.9999999999999982e+00 +9.1450096367813796e+00 +0.0000000000000000e+00 -4.9999997779890410e+00 +5.1617249312800454e-04 +0.0000000000000000e+00 +9.9999986678296970e-01
-5.0999999999999979e+00 +9.1449575032794783e+00 +0.0000000000000000e+00 -5.0999997643990858e+00 +5.2649755452013609e-04 +0.0000000000000000e+00 +9.9999986140015285e-01
-5.1999999999999975e+00 +9.1449043372685619e+00 +0.0000000000000000e+00 -5.1999997502655173e+00 +5.3682267329392469e-04 +0.0000000000000000e+00 +9.9999985591069829e-01
-5.2999999999999972e+00 +9.1448501387429353e+00 +0.0000000000000000e+00 -5.2999997355776713e+00 +5.4714784856569004e-04 +0.0000000000000000e+00 +9.9999985031460470e-01
-5.3999999999999968e+00 +9.1447949076969959e+00 +0.0000000000000000e+00 -5.3999997203248835e+00 +5.5747307938793541e-04 +0.0000000000000000e+00 +9.9999984461187086e-01
-5.4999999999999964e+00 +9.1447386441252387e+00 +0.0000000000000000e+00 -5.4999997044964903e+00 +5.6779836474934900e-04 +0.0000000000000000e+00 +9.9999983880249554e-01
-5.5999999999999961e+00 +9.1446813480222637e+00 +0.0000000000000000e+00 -5.5999996880818275e+00 +5.7812370358016868e-04 +0.0000000000000000e+00 +9.9999983288647776e-01
-5.6999999999999957e+00 +9.1446230193827773e+00 +0.0000000000000000e+00 -5.6999996710702305e+00 +5.8844909481117183e-04 +0.0000000000000000e+00 +9.9999982686381650e-01
-5.7999999999999954e+00 +9.1445636582015890e+00 +0.0000000000000000e+00 -5.7999996534510352e+00 +5.9877453743266071e-04 +0.0000000000000000e+00 +9.9999982073451066e-01
-5.8999999999999950e+00 +9.1445032644736095e+00 +0.0000000000000000e+00 -5.8999996352135771e+00 +6.0910003049981817e-04 +0.0000000000000000e+00 +9.9999981449855924e-01
-5.9999999999999947e+00 +9.1444418381938366e+00 +0.0000000000000000e+00 -5.9999996163471918e+00 +6.1942557313270021e-04 +0.0000000000000000e+00 +9.9999980815596134e-01
-6.0999999999999943e+00 +9.1443793793573569e+00 +0.0000000000000000e+00 -6.0999995968412142e+00 +6.2975116451622791e-04 +0.0000000000000000e+00 +9.9999980170671576e-01
-6.1999999999999940e+00 +9.1443158879593334e+00 +0.0000000000000000e+00 -6.1999995766849798e+00 +6.4007680390017912e-04 +0.0000000000000000e+00 +9.9999979515082160e-01
-6.2999999999999936e+00 +9.1442513639950000e+00 +0.0000000000000000e+00 -6.2999995558678235e+00 +6.5040249059918000e-04 +0.0000000000000000e+00 +9.9999978848827775e-01
-6.3999999999999932e+00 +9.1441858074596567e+00 +0.0000000000000000e+00 -6.3999995343790799e+00 +6.6072822399269621e-04 +0.0000000000000000e+00 +9.9999978171908321e-01
-6.4999999999999929e+00 +9.1441192183486635e+00 +0.0000000000000000e+00 -6.4999995122080847e+00 +6.7105400352502340e-04 +0.0000000000000000e+00 +9.9999977484323688e-01
-6.5999999999999925e+00 +9.1440515966574303e+00 +0.0000000000000000e+00 -6.5999994893441718e+00 +6.8137982870527787e-04 +0.0000000000000000e+00 +9.9999976786073763e-01
-6.6999999999999922e+00 +9.1439829423814150e+00 +0.0000000000000000e+00 -6.6999994657766768e+00 +6.9170569910738638e-04 +0.0000000000000000e+00 +9.9999976077158437e-01
-6.7999999999999918e+00 +9.1439132555161144e+00 +0.0000000000000000e+00 -6.7999994414949336e+00 +7.0203161437007639e-04 +0.0000000000000000e+00 +9.9999975357577597e-01
-6.8999999999999915e+00 +9.1438425360570559e+00 +0.0000000000000000e+00 -6.8999994164882770e+00 +7.1235757419686502e-04 +0.0000000000000000e+00 +9.9999974627331123e-01
-6.9999999999999911e+00 +9.1437707839997966e+00 +0.0000000000000000e+00 -6.9999993907460407e+00 +7.2268357835604828e-04 +0.0000000000000000e+00 +9.9999973886418891e-01
-7.0999999999999908e+00 +9.1436979993399117e+00 +0.0000000000000000e+00 -7.0999993642575596e+00 +7.3300962668068983e-04 +0.0000000000000000e+00 +9.9999973134840769e-01
-7.1999999999999904e+00 +9.1436241820729904e+00 +0.0000000000000000e+00 -7.1999993370121675e+00 +7.4333571906860969e-04 +0.0000000000000000e+00 +9.9999972372596635e-01
-7.2999999999999901e+00 +9.1435493321946293e+00 +0.0000000000000000e+00 -7.2999993089991975e+00 +7.5366185548237188e-04 +0.0000000000000000e+00 +9.9999971599686355e-01
-7.3999999999999897e+00 +9.1434734497004246e+00 +0.0000000000000000e+00 -7.3999992802079841e+00 +7.6398803594927237e-04 +0.0000000000000000e+00 +9.9999970816109796e-01
-7.4999999999999893e+00 +9.1433965345859676e+00 +0.0000000000000000e+00 -7.4999992506278614e+00 +7.7431426056132665e-04 +0.0000000000000000e+00 +9.9999970021866813e-01
-7.5999999999999890e+00 +9.1433185868468350e+00 +0.0000000000000000e+00 -7.5999992202481623e+00 +7.8464052947009035e-04 +0.0000000000000000e+00 +9.9999969216957252e-01
-7.6999999999999886e+00 +9.1432396064785912e+00 +0.0000000000000000e+00 -7.6999991890582207e+00 +7.9496684282981834e-04 +0.0000000000000000e+00 +9.9999968401380956e-01
-7.7999999999999883e+00 +9.1431595934767849e+00 +0.0000000000000000e+00 -7.7999991570473686e+00 +8.0529320074063462e-04 +0.0000000000000000e+00 +9.9999967575137794e-01
-7.8999999999999879e+00 +9.1430785478369572e+00 +0.0000000000000000e+00 -7.8999991242049399e+00 +8.1561960324337416e-04 +0.0000000000000000e+00 +9.9999966738227619e-01
-7.9999999999999876e+00 +9.1429964695546495e+00 +0.0000000000000000e+00 -7.9999990905202676e+00 +8.2594605031959152e-04 +0.0000000000000000e+00 +9.9999965890650289e-01
-8.0999999999999872e+00 +9.1429133586254085e+00 +0.0000000000000000e+00 -8.0999990559826838e+00 +8.3627254189157078e-04 +0.0000000000000000e+00 +9.9999965032405680e-01
-8.1999999999999869e+00 +9.1428292150447916e+00 +0.0000000000000000e+00 -8.1999990205815223e+00 +8.4659907782233491e-04 +0.0000000000000000e+00 +9.9999964163493660e-01
-8.2999999999999865e+00 +9.1427440388083721e+00 +0.0000000000000000e+00 -8.2999989843061144e+00 +8.5692565791565590e-04 +0.0000000000000000e+00 +9.9999963283914106e-01
-8.3999999999999861e+00 +9.1426578299117445e+00 +0.0000000000000000e+00 -8.3999989471457930e+00 +8.6725228191606568e-04 +0.0000000000000000e+00 +9.9999962393666908e-01
-8.4999999999999858e+00 +9.1425705883505355e+00 +0.0000000000000000e+00 -8.4999989090898911e+00 +8.7757894950886667e-04 +0.0000000000000000e+00 +9.9999961492751954e-01
-8.5999999999999854e+00 +9.1424823141204019e+00 +0.0000000000000000e+00 -8.5999988701277399e+00 +8.8790566032014321e-04 +0.0000000000000000e+00 +9.9999960581169145e-01
-8.6999999999999851e+00 +9.1423930072170450e+00 +0.0000000000000000e+00 -8.6999988302486724e+00 +8.9823241391677347e-04 +0.0000000000000000e+00 +9.9999959658918391e-01
-8.7999999999999847e+00 +9.1423026676362085e+00 +0.0000000000000000e+00 -8.7999987894420197e+00 +9.0855920980644118e-04 +0.0000000000000000e+00 +9.9999958725999594e-01
-8.8999999999999844e+00 +9.1422112953736914e+00 +0.0000000000000000e+00 -8.8999987476971150e+00 +9.1888604743764826e-04 +0.0000000000000000e+00 +9.9999957782412674e-01
-8.9999999999999840e+00 +9.1421188904253494e+00 +0.0000000000000000e+00 -8.9999987050032892e+00 +9.2921292619972792e-04 +0.0000000000000000e+00 +9.9999956828157566e-01
-9.0999999999999837e+00 +9.1420254527871023e+00 +0.0000000000000000e+00 -9.0999986613498738e+00 +9.3953984542285767e-04 +0.0000000000000000e+00 +9.9999955863234202e-01
-9.1999999999999833e+00 +9.1419309824549408e+00 +0.0000000000000000e+00 -9.1999986167262016e+00 +9.4986680437807289e-04 +0.0000000000000000e+00 +9.9999954887642517e-01
-9.2999999999999829e+00 +9.1418354794249286e+00 +0.0000000000000000e+00 -9.2999985711216038e+00 +9.6019380227728099e-04 +0.0000000000000000e+00 +9.9999953901382477e-01
-9.3999999999999826e+00 +9.1417389436932144e+00 +0.0000000000000000e+00 -9.3999985245254116e+00 +9.7052083827327577e-04 +0.0000000000000000e+00 +9.9999952904454037e-01
-9.4999999999999822e+00 +9.1416413752560342e+00 +0.0000000000000000e+00 -9.4999984769269563e+00 +9.8084791145975248e-04 +0.0000000000000000e+00 +9.9999951896857164e-01
-9.5999999999999819e+00 +9.1415427741097144e+00 +0.0000000000000000e+00 -9.5999984283155690e+00 +9.9117502087391497e-04 +0.0000000000000000e+00 +9.9999950878591837e-01
-9.6999999999999815e+00 +9.1414431402506846e+00 +0.0000000000000000e+00 -9.6999983786805828e+00 +1.0015021655250087e-03 +0.0000000000000000e+00 +9.9999949849658054e-01
-9.7999999999999812e+00 +9.1413424736754685e+00 +0.0000000000000000e+00 -9.7999983280113288e+00 +1.0118293444228400e-03 +0.0000000000000000e+00 +9.9999948810055794e-01
-9.8999999999999808e+00 +9.1412407743806909e+00 +0.0000000000000000e+00 -9.8999982762971381e+00 +1.0221565565803621e-03 +0.0000000000000000e+00 +9.9999947759785057e-01
-9.9999999999999805e+00 +9.1411380423630764e+00 +0.0000000000000000e+00 -9.9999982235273421e+00 +1.0324838010136660e-03 +0.0000000000000000e+00 +9.9999946698845843e-01
-1.0099999999999980e+01 +9.1410342776194451e+00 +0.0000000000000000e+00 -1.0099998169691274e+01 +1.0428110767419728e-03 +0.0000000000000000e+00 +9.9999945627238140e-01
-1.0199999999999980e+01 +9.1409294801467169e+00 +0.0000000000000000e+00 -1.0199998114778262e+01 +1.0531383827876240e-03 +0.0000000000000000e+00 +9.9999944544961972e-01
-1.0299999999999979e+01 +9.1408236499419093e+00 +0.0000000000000000e+00 -1.0299998058777641e+01 +1.0634657181760728e-03 +0.0000000000000000e+00 +9.9999943452017337e-01
-1.0399999999999979e+01 +9.1407167870021357e+00 +0.0000000000000000e+00 -1.0399998001678741e+01 +1.0737930819358754e-03 +0.0000000000000000e+00 +9.9999942348404258e-01
-1.0499999999999979e+01 +9.1406088913246091e+00 +0.0000000000000000e+00 -1.0499997943470893e+01 +1.0841204730986803e-03 +0.0000000000000000e+00 +9.9999941234122736e-01
-1.0599999999999978e+01 +9.1404999629066364e+00 +0.0000000000000000e+00 -1.0599997884143431e+01 +1.0944478906992198e-03 +0.0000000000000000e+00 +9.9999940109172802e-01
-1.0699999999999978e+01 +9.1403900017456206e+00 +0.0000000000000000e+00 -1.0699997823685683e+01 +1.1047753337752992e-03 +0.0000000000000000e+00 +9.9999938973554481e-01
-1.0799999999999978e+01 +9.1402790078390641e+00 +0.0000000000000000e+00 -1.0799997762086983e+01 +1.1151028013677868e-03 +0.0000000000000000e+00 +9.9999937827267804e-01
-1.0899999999999977e+01 +9.1401669811845618e+00 +0.0000000000000000e+00 -1.0899997699336662e+01 +1.1254302925206034e-03 +0.0000000000000000e+00 +9.9999936670312795e-01
-1.0999999999999977e+01 +9.1400539217798062e+00 +0.0000000000000000e+00 -1.0999997635424052e+01 +1.1357578062807122e-03 +0.0000000000000000e+00 +9.9999935502689485e-01
-1.1099999999999977e+01 +9.1399398296225840e+00 +0.0000000000000000e+00 -1.1099997570338484e+01 +1.1460853416981069e-03 +0.0000000000000000e+00 +9.9999934324397921e-01
-1.1199999999999976e+01 +9.1398247047107759e+00 +0.0000000000000000e+00 -1.1199997504069291e+01 +1.1564128978258014e-03 +0.0000000000000000e+00 +9.9999933135438146e-01
-1.1299999999999976e+01 +9.1397085470423587e+00 +0.0000000000000000e+00 -1.1299997436605803e+01 +1.1667404737198180e-03 +0.0000000000000000e+00 +9.9999931935810193e-01
-1.1399999999999975e+01 +9.1395913566154032e+00 +0.0000000000000000e+00 -1.1399997367937354e+01 +1.1770680684391761e-03 +0.0000000000000000e+00 +9.9999930725514130e-01
-1.1499999999999975e+01 +9.1394731334280745e+00 +0.0000000000000000e+00 -1.1499997298053275e+01 +1.1873956810458798e-03 +0.0000000000000000e+00 +9.9999929504550000e-01
-1.1599999999999975e+01 +9.1393538774786300e+00 +0.0000000000000000e+00 -1.1599997226942898e+01 +1.1977233106058409e-03 +0.0000000000000000e+00 +9.9999928272917860e-01
-1.1699999999999974e+01 +9.1392335887654195e+00 +0.0000000000000000e+00 -1.1699997154595556e+01 +1.2080509561991492e-03 +0.0000000000000000e+00 +9.9999927030617763e-01
