# field on trajectory
# s[mm] rx[mm] ry[mm] rz[mm] bx[T] by[T] bz[T]
0.0000000000000000e+00 +9.1312999999999995e+00 +0.0000000000000000e+00 +0.0000000000000000e+00 +1.1210303059464933e-02 -1.0337652486833389e+00 -5.8871478078494119e-02
-1.0000000000000001e-01 +9.1312994834752867e+00 +0.0000000000000000e+00 -9.9999999998221331e-02 +1.1210417990008251e-02 -1.0337631337007980e+00 -5.8871974738886876e-02
-2.0000000000000001e-01 +9.1312979339025908e+00 +0.0000000000000000e+00 -1.9999999998577078e-01 +1.1210530421685194e-02 -1.0337608242401710e+00 -5.8872488515708338e-02
-3.0000000000000004e-01 +9.1312953512842192e+00 +0.0000000000000000e+00 -2.9999999995197657e-01 +1.1210640623375111e-02 -1.0337583374972821e+00 -5.8873019365392194e-02
-4.0000000000000002e-01 +9.1312917356226535e+00 +0.0000000000000000e+00 -3.9999999988616686e-01 +1.1210748863957962e-02 -1.0337556906681347e+00 -5.8873567244343408e-02
-5.0000000000000000e-01 +9.1312870869205387e+00 +0.0000000000000000e+00 -4.9999999977767007e-01 +1.1210855412308795e-02 -1.0337529009488036e+00 -5.8874132108931623e-02
-5.9999999999999998e-01 +9.1312814051806637e+00 +0.0000000000000000e+00 -5.9999999961581452e-01 +1.1210960537292290e-02 -1.0337499855353329e+00 -5.8874713915485072e-02
-6.9999999999999996e-01 +9.1312746904059381e+00 +0.0000000000000000e+00 -6.9999999938992885e-01 +1.1211064507757326e-02 -1.0337469616236254e+00 -5.8875312620284295e-02
-7.9999999999999993e-01 +9.1312669425993853e+00 +0.0000000000000000e+00 -7.9999999908934172e-01 +1.1211167592531469e-02 -1.0337438464093407e+00 -5.8875928179555698e-02
-8.9999999999999991e-01 +9.1312581617641158e+00 +0.0000000000000000e+00 -8.9999999870338176e-01 +1.1211270060415555e-02 -1.0337406570877878e+00 -5.8876560549465475e-02
-9.9999999999999989e-01 +9.1312483479033180e+00 +0.0000000000000000e+00 -9.9999999822137786e-01 +1.1211372180178180e-02 -1.0337374108538193e+00 -5.8877209686113201e-02
-1.0999999999999999e+00 +9.1312375010202338e+00 +0.0000000000000000e+00 -1.0999999976326589e+00 +1.1211474220550273e-02 -1.0337341249017267e+00 -5.8877875545525642e-02
-1.2000000000000000e+00 +9.1312256211181477e+00 +0.0000000000000000e+00 -1.1999999969265538e+00 +1.1211576450219611e-02 -1.0337308164251331e+00 -5.8878558083650445e-02
-1.3000000000000000e+00 +9.1312127082003656e+00 +0.0000000000000000e+00 -1.2999999960923920e+00 +1.1211679137825356e-02 -1.0337275026168879e+00 -5.8879257256349807e-02
-1.4000000000000001e+00 +9.1311987622701984e+00 +0.0000000000000000e+00 -1.3999999951195026e+00 +1.1211782551952591e-02 -1.0337242006689620e+00 -5.8879973019394259e-02
-1.5000000000000002e+00 +9.1311837833309468e+00 +0.0000000000000000e+00 -1.4999999939972148e+00 +1.1211886961126865e-02 -1.0337209277723407e+00 -5.8880705328456427e-02
-1.6000000000000003e+00 +9.1311677713858810e+00 +0.0000000000000000e+00 -1.5999999927148583e+00 +1.1211992583123116e-02 -1.0337176973329261e+00 -5.8881454043865113e-02
-1.7000000000000004e+00 +9.1311507264382321e+00 +0.0000000000000000e+00 -1.6999999912617625e+00 +1.1212099432926944e-02 -1.0337145076199314e+00 -5.8882218644916745e-02
-1.8000000000000005e+00 +9.1311326484911888e+00 +0.0000000000000000e+00 -1.7999999896272569e+00 +1.1212207474832177e-02 -1.0337113531187279e+00 -5.8882998515659035e-02
-1.9000000000000006e+00 +9.1311135375479058e+00 +0.0000000000000000e+00 -1.8999999878006715e+00 +1.1212316673137048e-02 -1.0337082283150616e+00 -5.8883793040148888e-02
-2.0000000000000004e+00 +9.1310933936115095e+00 +0.0000000000000000e+00 -1.9999999857713360e+00 +1.1212426992149513e-02 -1.0337051276951763e+00 -5.8884601602462908e-02
-2.1000000000000005e+00 +9.1310722166850997e+00 +0.0000000000000000e+00 -2.0999999835285803e+00 +1.1212538396192476e-02 -1.0337020457459261e+00 -5.8885423586707432e-02
-2.2000000000000006e+00 +9.1310500067717584e+00 +0.0000000000000000e+00 -2.1999999810617346e+00 +1.1212650849609082e-02 -1.0336989769548970e+00 -5.8886258377028933e-02
-2.3000000000000007e+00 +9.1310267638745568e+00 +0.0000000000000000e+00 -2.2999999783601286e+00 +1.1212764316767975e-02 -1.0336959158105232e+00 -5.8887105357624321e-02
-2.4000000000000008e+00 +9.1310024879965557e+00 +0.0000000000000000e+00 -2.3999999754130927e+00 +1.1212878762068550e-02 -1.0336928568022030e+00 -5.8887963912751057e-02
-2.5000000000000009e+00 +9.1309771791408156e+00 +0.0000000000000000e+00 -2.4999999722099573e+00 +1.1212994149946235e-02 -1.0336897944204178e+00 -5.8888833426737584e-02
-2.6000000000000010e+00 +9.1309508373103991e+00 +0.0000000000000000e+00 -2.5999999687400526e+00 +1.1213110444877735e-02 -1.0336867231568496e+00 -5.8889713283993485e-02
-2.7000000000000011e+00 +9.1309234625083810e+00 +0.0000000000000000e+00 -2.6999999649927089e+00 +1.1213227611386319e-02 -1.0336836375044982e+00 -5.8890602869019801e-02
-2.8000000000000012e+00 +9.1308950547378451e+00 +0.0000000000000000e+00 -2.7999999609572570e+00 +1.1213345614047077e-02 -1.0336805319577984e+00 -5.8891501566419327e-02
-2.9000000000000012e+00 +9.1308656140019000e+00 +0.0000000000000000e+00 -2.8999999566230277e+00 +1.1213464417492177e-02 -1.0336774010127379e+00 -5.8892408760906817e-02
-3.0000000000000013e+00 +9.1308351403036774e+00 +0.0000000000000000e+00 -2.9999999519793517e+00 +1.1213583986416130e-02 -1.0336742391669731e+00 -5.8893323837319260e-02
-3.1000000000000014e+00 +9.1308036336463410e+00 +0.0000000000000000e+00 -3.0999999470155597e+00 +1.1213704285581079e-02 -1.0336710409199517e+00 -5.8894246180626240e-02
-3.2000000000000015e+00 +9.1307710940330917e+00 +0.0000000000000000e+00 -3.1999999417209830e+00 +1.1213825279822041e-02 -1.0336678007730242e+00 -5.8895175175940138e-02
-3.3000000000000016e+00 +9.1307375214671698e+00 +0.0000000000000000e+00 -3.2999999360849523e+00 +1.1213946934052168e-02 -1.0336645132295645e+00 -5.8896110208526350e-02
-3.4000000000000017e+00 +9.1307029159518649e+00 +0.0000000000000000e+00 -3.3999999300967993e+00 +1.1214069213268034e-02 -1.0336611727950880e+00 -5.8897050663813677e-02
-3.5000000000000018e+00 +9.1306672774905202e+00 +0.0000000000000000e+00 -3.4999999237458548e+00 +1.1214192082554891e-02 -1.0336577739773660e+00 -5.8897995927404516e-02
-3.6000000000000019e+00 +9.1306306060865356e+00 +0.0000000000000000e+00 -3.5999999170214507e+00 +1.1214315484227974e-02 -1.0336543131789571e+00 -5.8898945397026135e-02
-3.7000000000000020e+00 +9.1305929017433733e+00 +0.0000000000000000e+00 -3.6999999099129184e+00 +1.1214439269207373e-02 -1.0336507943732061e+00 -5.8899898518284963e-02
-3.8000000000000020e+00 +9.1305541644645523e+00 +0.0000000000000000e+00 -3.7999999024095898e+00 +1.1214563265544786e-02 -1.0336472234246388e+00 -5.8900854748709451e-02
-3.9000000000000021e+00 +9.1305143942536464e+00 +0.0000000000000000e+00 -3.8999998945007968e+00 +1.1214687301275767e-02 -1.0336436061960592e+00 -5.8901813545784158e-02
-4.0000000000000018e+00 +9.1304735911142725e+00 +0.0000000000000000e+00 -3.9999998861758708e+00 +1.1214811204417143e-02 -1.0336399485483880e+00 -5.8902774366943987e-02
-4.1000000000000014e+00 +9.1304317550500897e+00 +0.0000000000000000e+00 -4.0999998774241444e+00 +1.1214934802964423e-02 -1.0336362563405039e+00 -5.8903736669568302e-02
-4.2000000000000011e+00 +9.1303888860647930e+00 +0.0000000000000000e+00 -4.1999998682349498e+00 +1.1215057924889180e-02 -1.0336325354290812e+00 -5.8904699910974967e-02
-4.3000000000000007e+00 +9.1303449841621038e+00 +0.0000000000000000e+00 -4.2999998585976194e+00 +1.1215180398136475e-02 -1.0336287916684295e+00 -5.8905663548414561e-02
-4.4000000000000004e+00 +9.1303000493457667e+00 +0.0000000000000000e+00 -4.3999998485014853e+00 +1.1215302050622230e-02 -1.0336250309103328e+00 -5.8906627039064380e-02
-4.5000000000000000e+00 +9.1302540816195457e+00 +0.0000000000000000e+00 -4.4999998379358805e+00 +1.1215422710230650e-02 -1.0336212590038900e+00 -5.8907589840022673e-02
-4.5999999999999996e+00 +9.1302070809872138e+00 +0.0000000000000000e+00 -4.5999998268901381e+00 +1.1215542204811619e-02 -1.0336174817953527e+00 -5.8908551408302694e-02
-4.6999999999999993e+00 +9.1301590474525494e+00 +0.0000000000000000e+00 -4.6999998153535909e+00 +1.1215660362178109e-02 -1.0336137051279655e+00 -5.8909511200826804e-02
-4.7999999999999989e+00 +9.1301099810193325e+00 +0.0000000000000000e+00 -4.7999998033155711e+00 +1.1215777010103558e-02 -1.0336099348418051e+00 -5.8910468674420680e-02
-4.8999999999999986e+00 +9.1300598816913343e+00 +0.0000000000000000e+00 -4.8999997907654125e+00 +1.1215891976319304e-02 -1.0336061767736187e+00 -5.8911423285807292e-02
-4.9999999999999982e+00 +9.1300087494723172e+00 +0.0000000000000000e+00 -4.9999997776924481e+00 +1.1216005088511959e-02 -1.0336024367566634e+00 -5.8912374491601138e-02
-5.0999999999999979e+00 +9.1299565843660222e+00 +0.0000000000000000e+00 -5.0999997640860109e+00 +1.1216116174320839e-02 -1.0335987206205475e+00 -5.8913321748302341e-02
-5.1999999999999975e+00 +9.1299033863761672e+00 +0.0000000000000000e+00 -5.1999997499354347e+00 +1.1216225061335348e-02 -1.0335950341910658e+00 -5.8914264512290690e-02
-5.2999999999999972e+00 +9.1298491555064416e+00 +0.0000000000000000e+00 -5.2999997352300525e+00 +1.1216331577092382e-02 -1.0335913832900427e+00 -5.8915202239819879e-02
-5.3999999999999968e+00 +9.1297938917604995e+00 +0.0000000000000000e+00 -5.3999997199591991e+00 +1.1216435549073736e-02 -1.0335877737351684e+00 -5.8916134387011515e-02
-5.4999999999999964e+00 +9.1297375951419539e+00 +0.0000000000000000e+00 -5.4999997041122075e+00 +1.1216536804703532e-02 -1.0335842113398397e+00 -5.8917060409849328e-02
-5.5999999999999961e+00 +9.1296802656543701e+00 +0.0000000000000000e+00 -5.5999996876784106e+00 +1.1216635259355132e-02 -1.0335807002591475e+00 -5.8917979866767993e-02
-5.6999999999999957e+00 +9.1296219033012616e+00 +0.0000000000000000e+00 -5.6999996706471432e+00 +1.1216731180416356e-02 -1.0335772380300832e+00 -5.8918892726484824e-02
-5.7999999999999954e+00 +9.1295625080860976e+00 +0.0000000000000000e+00 -5.7999996530077391e+00 +1.1216824923321683e-02 -1.0335738205365439e+00 -5.8919799060297894e-02
-5.8999999999999950e+00 +9.1295020800122977e+00 +0.0000000000000000e+00 -5.8999996347495323e+00 +1.1216916843552071e-02 -1.0335704436637947e+00 -5.8920698939502171e-02
-5.9999999999999947e+00 +9.1294406190832440e+00 +0.0000000000000000e+00 -5.9999996158618574e+00 +1.1217007296637091e-02 -1.0335671032985723e+00 -5.8921592435390351e-02
-6.0999999999999943e+00 +9.1293781253022814e+00 +0.0000000000000000e+00 -6.0999995963340474e+00 +1.1217096638157125e-02 -1.0335637953291859e+00 -5.8922479619253440e-02
-6.1999999999999940e+00 +9.1293145986727229e+00 +0.0000000000000000e+00 -6.1999995761554372e+00 +1.1217185223745525e-02 -1.0335605156456202e+00 -5.8923360562381510e-02
-6.2999999999999936e+00 +9.1292500391978528e+00 +0.0000000000000000e+00 -6.2999995553153614e+00 +1.1217273409090761e-02 -1.0335572601396374e+00 -5.8924235336064480e-02
-6.3999999999999932e+00 +9.1291844468809309e+00 +0.0000000000000000e+00 -6.3999995338031548e+00 +1.1217361549938616e-02 -1.0335540247048802e+00 -5.8925104011592670e-02
-6.4999999999999929e+00 +9.1291178217251971e+00 +0.0000000000000000e+00 -6.4999995116081513e+00 +1.1217450002094320e-02 -1.0335508052369713e+00 -5.8925966660257602e-02
-6.5999999999999925e+00 +9.1290501637338775e+00 +0.0000000000000000e+00 -6.5999994887196856e+00 +1.1217539121424739e-02 -1.0335475976336175e+00 -5.8926823353352684e-02
-6.6999999999999922e+00 +9.1289814729101852e+00 +0.0000000000000000e+00 -6.6999994651270924e+00 +1.1217629263860515e-02 -1.0335443977947134e+00 -5.8927674162173906e-02
-6.7999999999999918e+00 +9.1289117492573251e+00 +0.0000000000000000e+00 -6.7999994408197058e+00 +1.1217720785398247e-02 -1.0335412016224401e+00 -5.8928519158020588e-02
-6.8999999999999915e+00 +9.1288409927784997e+00 +0.0000000000000000e+00 -6.8999994157868620e+00 +1.1217814042102639e-02 -1.0335380050213703e+00 -5.8929358412195994e-02
-6.9999999999999911e+00 +9.1287692034769101e+00 +0.0000000000000000e+00 -6.9999993900178952e+00 +1.1217909390108671e-02 -1.0335348038985686e+00 -5.8930191996008005e-02
-7.0999999999999908e+00 +9.1286963813557627e+00 +0.0000000000000000e+00 -7.0999993635021408e+00 +1.1218007185623739e-02 -1.0335315941636958e+00 -5.8931019980770036e-02
-7.1999999999999904e+00 +9.1286225264182743e+00 +0.0000000000000000e+00 -7.1999993362289336e+00 +1.1218107784929845e-02 -1.0335283717291091e+00 -5.8931842437801411e-02
-7.2999999999999901e+00 +9.1285476386676745e+00 +0.0000000000000000e+00 -7.2999993081876093e+00 +1.1218211544385728e-02 -1.0335251325099664e+00 -5.8932659438428368e-02
-7.3999999999999897e+00 +9.1284717181072068e+00 +0.0000000000000000e+00 -7.3999992793675036e+00 +1.1218318820429007e-02 -1.0335218724243258e+00 -5.8933471053984464e-02
-7.4999999999999893e+00 +9.1283947647401380e+00 +0.0000000000000000e+00 -7.4999992497579511e+00 +1.1218429969578399e-02 -1.0335185873932506e+00 -5.8934277355811526e-02
-7.5999999999999890e+00 +9.1283167785697579e+00 +0.0000000000000000e+00 -7.5999992193482884e+00 +1.1218545235066416e-02 -1.0335152751726109e+00 -5.8935078449418671e-02
-7.6999999999999886e+00 +9.1282377595993864e+00 +0.0000000000000000e+00 -7.6999991881278511e+00 +1.1218664406637078e-02 -1.0335119408471789e+00 -5.8935874576941195e-02
-7.7999999999999883e+00 +9.1281577078323615e+00 +0.0000000000000000e+00 -7.7999991560859749e+00 +1.1218787160506758e-02 -1.0335085913332902e+00 -5.8936666014626805e-02
-7.8999999999999879e+00 +9.1280766232720403e+00 +0.0000000000000000e+00 -7.8999991232119955e+00 +1.1218913172711273e-02 -1.0335052335467292e+00 -5.8937453038669194e-02
-7.9999999999999876e+00 +9.1279945059217855e+00 +0.0000000000000000e+00 -7.9999990894952493e+00 +1.1219042119099602e-02 -1.0335018744027069e+00 -5.8938235925206695e-02
-8.0999999999999872e+00 +9.1279113557849616e+00 +0.0000000000000000e+00 -8.0999990549250729e+00 +1.1219173675327635e-02 -1.0334985208158392e+00 -5.8939014950320993e-02
-8.1999999999999869e+00 +9.1278271728649276e+00 +0.0000000000000000e+00 -8.1999990194908019e+00 +1.1219307516851903e-02 -1.0334951797001262e+00 -5.8939790390035843e-02
-8.2999999999999865e+00 +9.1277419571650320e+00 +0.0000000000000000e+00 -8.2999989831817729e+00 +1.1219443318923291e-02 -1.0334918579689294e+00 -5.8940562520315737e-02
-8.3999999999999861e+00 +9.1276557086886037e+00 +0.0000000000000000e+00 -8.3999989459873223e+00 +1.1219580756580794e-02 -1.0334885625349510e+00 -5.8941331617064524e-02
-8.4999999999999858e+00 +9.1275684274389430e+00 +0.0000000000000000e+00 -8.4999989078967886e+00 +1.1219719504645226e-02 -1.0334853003102096e+00 -5.8942097956124172e-02
-8.5999999999999854e+00 +9.1274801134193186e+00 +0.0000000000000000e+00 -8.5999988688995064e+00 +1.1219859237712985e-02 -1.0334820782060223e+00 -5.8942861813273538e-02
-8.6999999999999851e+00 +9.1273907666329581e+00 +0.0000000000000000e+00 -8.6999988289848122e+00 +1.1219999630149755e-02 -1.0334789031329787e+00 -5.8943623464226880e-02
-8.7999999999999847e+00 +9.1273003870830447e+00 +0.0000000000000000e+00 -8.7999987881420445e+00 +1.1220140356084259e-02 -1.0334757820009222e+00 -5.8944383184632708e-02
-8.8999999999999844e+00 +9.1272089747727065e+00 +0.0000000000000000e+00 -8.8999987463605397e+00 +1.1220281089401997e-02 -1.0334727217189259e+00 -5.8945141250072358e-02
-8.9999999999999840e+00 +9.1271165297050114e+00 +0.0000000000000000e+00 -8.9999987036296343e+00 +1.1220421503738974e-02 -1.0334697291952744e+00 -5.8945897936058818e-02
-9.0999999999999837e+00 +9.1270230518829578e+00 +0.0000000000000000e+00 -9.0999986599386649e+00 +1.1220561272475458e-02 -1.0334668113374359e+00 -5.8946653518035297e-02
-9.1999999999999833e+00 +9.1269285413094714e+00 +0.0000000000000000e+00 -9.1999986152769679e+00 +1.1220700068729666e-02 -1.0334639750520471e+00 -5.8947408271374027e-02
-9.2999999999999829e+00 +9.1268329979873961e+00 +0.0000000000000000e+00 -9.2999985696338818e+00 +1.1220837565351593e-02 -1.0334612272448862e+00 -5.8948162471374924e-02
-9.3999999999999826e+00 +9.1267364219194889e+00 +0.0000000000000000e+00 -9.3999985229987413e+00 +1.1220973434916657e-02 -1.0334585748208538e+00 -5.8948916393264224e-02
-9.4999999999999822e+00 +9.1266388131084089e+00 +0.0000000000000000e+00 -9.4999984753608864e+00 +1.1221107349719511e-02 -1.0334560246839501e+00 -5.8949670312193315e-02
-9.5999999999999819e+00 +9.1265401715567140e+00 +0.0000000000000000e+00 -9.5999984267096519e+00 +1.1221239086747438e-02 -1.0334535825640714e+00 -5.8950424447114701e-02
-9.6999999999999815e+00 +9.1264404972668540e+00 +0.0000000000000000e+00 -9.6999983770343743e+00 +1.1221368842803715e-02 -1.0334512494968457e+00 -5.8951178792559768e-02
-9.7999999999999812e+00 +9.1263397902411736e+00 +0.0000000000000000e+00 -9.7999983263243919e+00 +1.1221496919858368e-02 -1.0334490253425708e+00 -5.8951933287290724e-02
-9.8999999999999808e+00 +9.1262380504819038e+00 +0.0000000000000000e+00 -9.8999982745690414e+00 +1.1221623620108062e-02 -1.0334469099593573e+00 -5.8952687870477853e-02
-9.9999999999999805e+00 +9.1261352779911711e+00 +0.0000000000000000e+00 -9.9999982217576591e+00 +1.1221749245983143e-02 -1.0334449032030733e+00 -5.8953442481710444e-02
-1.0099999999999980e+01 +9.1260314727709915e+00 +0.0000000000000000e+00 -1.0099998167879582e+01 +1.1221874100154657e-02 -1.0334430049272956e+00 -5.8954197061007740e-02
-1.0199999999999980e+01 +9.1259266348232728e+00 +0.0000000000000000e+00 -1.0199998112924145e+01 +1.1221998485541382e-02 -1.0334412149832561e+00 -5.8954951548829709e-02
-1.0299999999999979e+01 +9.1258207641498146e+00 +0.0000000000000000e+00 -1.0299998056880687e+01 +1.1222122705316865e-02 -1.0334395332197877e+00 -5.8955705886087992e-02
-1.0399999999999979e+01 +9.1257138607523078e+00 +0.0000000000000000e+00 -1.0399997999738545e+01 +1.1222247062916446e-02 -1.0334379594832763e+00 -5.8956460014156852e-02
-1.0499999999999979e+01 +9.1256059246323389e+00 +0.0000000000000000e+00 -1.0499997941487054e+01 +1.1222371862044285e-02 -1.0334364936176046e+00 -5.8957213874883951e-02
-1.0599999999999978e+01 +9.1254969557913821e+00 +0.0000000000000000e+00 -1.0599997882115550e+01 +1.1222497406680383e-02 -1.0334351354641012e+00 -5.8957967410601254e-02
-1.0699999999999978e+01 +9.1253869542308070e+00 +0.0000000000000000e+00 -1.0699997821613371e+01 +1.1222624001087634e-02 -1.0334338848614890e+00 -5.8958720564136056e-02
-1.0799999999999978e+01 +9.1252759199518767e+00 +0.0000000000000000e+00 -1.0799997759969852e+01 +1.1222751949818820e-02 -1.0334327416458311e+00 -5.8959473278821700e-02
-1.0899999999999977e+01 +9.1251638529557439e+00 +0.0000000000000000e+00 -1.0899997697174330e+01 +1.1222881557723666e-02 -1.0334317056504807e+00 -5.8960225498508580e-02
-1.0999999999999977e+01 +9.1250507532434550e+00 +0.0000000000000000e+00 -1.0999997633216140e+01 +1.1223013129955831e-02 -1.0334307767060271e+00 -5.8960977167574931e-02
-1.1099999999999977e+01 +9.1249366208159515e+00 +0.0000000000000000e+00 -1.1099997568084619e+01 +1.1223146971979970e-02 -1.0334299546402415e+00 -5.8961728230937809e-02
-1.1199999999999976e+01 +9.1248214556740681e+00 +0.0000000000000000e+00 -1.1199997501769104e+01 +1.1223283389578722e-02 -1.0334292392780298e+00 -5.8962478634063946e-02
-1.1299999999999976e+01 +9.1247052578185297e+00 +0.0000000000000000e+00 -1.1299997434258929e+01 +1.1223422688859772e-02 -1.0334286304413747e+00 -5.8963228322980656e-02
-1.1399999999999975e+01 +9.1245880272499580e+00 +0.0000000000000000e+00 -1.1399997365543429e+01 +1.1223565176262839e-02 -1.0334281279492861e+00 -5.8963977244286626e-02
-1.1499999999999975e+01 +9.1244697639688681e+00 +0.0000000000000000e+00 -1.1499997295611943e+01 +1.1223711158566716e-02 -1.0334277316177478e+00 -5.8964725345162984e-02
-1.1599999999999975e+01 +9.1243504679756686e+00 +0.0000000000000000e+00 -1.1599997224453803e+01 +1.1223860847504125e-02 -1.0334274402885220e+00 -5.8965472627091182e-02
-1.1699999999999974e+01 +9.1242301392706633e+00 +0.0000000000000000e+00 -1.1699997152058346e+01 +1.1224014073408013e-02 -1.0334272489179137e+00 -5.8966219306818266e-02
