# field on trajectory
# s[mm] rx[mm] ry[mm] rz[mm] bx[T] by[T] bz[T]
-0.0000000000000000e+00 +9.1476323485342608e+00 +0.0000000000000000e+00 -0.0000000000000000e+00 +1.1376864787656916e-02 -1.0298075319292987e+00 -5.8484466350584172e-02
-1.0000000000000001e-01 +9.1476318316365202e+00 +0.0000000000000000e+00 -9.9999999998218805e-02 +1.1377106892337131e-02 -1.0298054040309605e+00 -5.8484581386510047e-02
-2.0000000000000001e-01 +9.1476302809427192e+00 +0.0000000000000000e+00 -1.9999999998574999e-01 +1.1377338962045718e-02 -1.0298034336778021e+00 -5.8484685668195494e-02
-2.9999999999999999e-01 +9.1476276964536503e+00 +0.0000000000000000e+00 -2.9999999995190701e-01 +1.1377562073768437e-02 -1.0298016228576390e+00 -5.8484779625776202e-02
-4.0000000000000002e-01 +9.1476240781675404e+00 +0.0000000000000000e+00 -3.9999999988600199e-01 +1.1377777304484721e-02 -1.0297999735568244e+00 -5.8484863689384388e-02
-5.0000000000000000e-01 +9.1476194260861501e+00 +0.0000000000000000e+00 -4.9999999977734699e-01 +1.1377985731155121e-02 -1.0297984877602315e+00 -5.8484938289146741e-02
-5.9999999999999998e-01 +9.1476137402094899e+00 +0.0000000000000000e+00 -5.9999999961525596e-01 +1.1378188430708858e-02 -1.0297971674512560e+00 -5.8485003855183106e-02
-6.9999999999999996e-01 +9.1476070205357907e+00 +0.0000000000000000e+00 -6.9999999938904001e-01 +1.1378386480031377e-02 -1.0297960146118130e+00 -5.8485060817604802e-02
-8.0000000000000004e-01 +9.1475992670650292e+00 +0.0000000000000000e+00 -7.9999999908801400e-01 +1.1378580955951755e-02 -1.0297950312223170e+00 -5.8485109606512591e-02
-9.0000000000000002e-01 +9.1475904798007797e+00 +0.0000000000000000e+00 -8.9999999870148795e-01 +1.1378772935230222e-02 -1.0297942192616727e+00 -5.8485150651994694e-02
-1.0000000000000000e+00 +9.1475806587394892e+00 +0.0000000000000000e+00 -9.9999999821877705e-01 +1.1378963494545813e-02 -1.0297935807072953e+00 -5.8485184384126282e-02
-1.1000000000000001e+00 +9.1475698038829201e+00 +0.0000000000000000e+00 -1.0999999976291901e+00 +1.1379153710483680e-02 -1.0297931175350705e+00 -5.8485211232966398e-02
-1.2000000000000000e+00 +9.1475579152292994e+00 +0.0000000000000000e+00 -1.1999999969220501e+00 +1.1379344659522757e-02 -1.0297928317193701e+00 -5.8485231628557226e-02
-1.3000000000000000e+00 +9.1475449927804107e+00 +0.0000000000000000e+00 -1.2999999960866500e+00 +1.1379537418023141e-02 -1.0297927252330292e+00 -5.8485246000921559e-02
-1.3999999999999999e+00 +9.1475310365362503e+00 +0.0000000000000000e+00 -1.3999999951123201e+00 +1.1379733062213690e-02 -1.0297928000473506e+00 -5.8485254780061786e-02
-1.5000000000000000e+00 +9.1475160464950402e+00 +0.0000000000000000e+00 -1.4999999939883699e+00 +1.1379932668179512e-02 -1.0297930581320960e+00 -5.8485258395957994e-02
-1.6000000000000001e+00 +9.1475000226585603e+00 +0.0000000000000000e+00 -1.5999999927041100e+00 +1.1380137113096472e-02 -1.0297934984318311e+00 -5.8485257135926463e-02
-1.7000000000000000e+00 +9.1474829650268106e+00 +0.0000000000000000e+00 -1.6999999912488499e+00 +1.1380346479025638e-02 -1.0297941077954611e+00 -5.8485250716711248e-02
-1.8000000000000000e+00 +9.1474648735980093e+00 +0.0000000000000000e+00 -1.7999999896119101e+00 +1.1380560649288222e-02 -1.0297948700480224e+00 -5.8485238712420888e-02
-1.8999999999999999e+00 +9.1474457483739400e+00 +0.0000000000000000e+00 -1.8999999877825899e+00 +1.1380779507250974e-02 -1.0297957690146138e+00 -5.8485220697173004e-02
-2.0000000000000000e+00 +9.1474255893528191e+00 +0.0000000000000000e+00 -1.9999999857502100e+00 +1.1381002936343608e-02 -1.0297967885206110e+00 -5.8485196245097931e-02
-2.1000000000000001e+00 +9.1474043965364302e+00 +0.0000000000000000e+00 -2.0999999835040901e+00 +1.1381230820076190e-02 -1.0297979123918468e+00 -5.8485164930341248e-02
-2.2000000000000002e+00 +9.1473821699247697e+00 +0.0000000000000000e+00 -2.1999999810335300e+00 +1.1381463042056582e-02 -1.0297991244548230e+00 -5.8485126327067399e-02
-2.2999999999999998e+00 +9.1473589095160595e+00 +0.0000000000000000e+00 -2.2999999783278602e+00 +1.1381699486007880e-02 -1.0298004085369066e+00 -5.8485080009462731e-02
-2.3999999999999999e+00 +9.1473346153120794e+00 +0.0000000000000000e+00 -2.3999999753763701e+00 +1.1381940035785760e-02 -1.0298017484665181e+00 -5.8485025551738117e-02
-2.5000000000000000e+00 +9.1473092873128206e+00 +0.0000000000000000e+00 -2.4999999721683901e+00 +1.1382184575395969e-02 -1.0298031280733424e+00 -5.8484962528132671e-02
-2.6000000000000001e+00 +9.1472829255165191e+00 +0.0000000000000000e+00 -2.5999999686932198e+00 +1.1382432989011726e-02 -1.0298045311885227e+00 -5.8484890512916776e-02
-2.7000000000000002e+00 +9.1472555299249496e+00 +0.0000000000000000e+00 -2.6999999649401798e+00 +1.1382685160991083e-02 -1.0298059416448506e+00 -5.8484809080394613e-02
-2.7999999999999998e+00 +9.1472271005398795e+00 +0.0000000000000000e+00 -2.7999999608985902e+00 +1.1382940975894405e-02 -1.0298073432769725e+00 -5.8484717804907743e-02
-2.8999999999999999e+00 +9.1471976373559905e+00 +0.0000000000000000e+00 -2.8999999565577501e+00 +1.1383200318501844e-02 -1.0298087199216008e+00 -5.8484616260838916e-02
-3.0000000000000000e+00 +9.1471671403768209e+00 +0.0000000000000000e+00 -2.9999999519069700e+00 +1.1383463073830605e-02 -1.0298100554176794e+00 -5.8484504022613543e-02
-3.1000000000000001e+00 +9.1471356096023904e+00 +0.0000000000000000e+00 -3.0999999469355801e+00 +1.1383729127152476e-02 -1.0298113336066086e+00 -5.8484380664704030e-02
-3.2000000000000002e+00 +9.1471030450308994e+00 +0.0000000000000000e+00 -3.1999999416328699e+00 +1.1383998364011253e-02 -1.0298125383324390e+00 -5.8484245761632796e-02
-3.2999999999999998e+00 +9.1470694466641493e+00 +0.0000000000000000e+00 -3.2999999359881800e+00 +1.1384270670240107e-02 -1.0298136534420586e+00 -5.8484098887974775e-02
-3.3999999999999999e+00 +9.1470348145021205e+00 +0.0000000000000000e+00 -3.3999999299908001e+00 +1.1384545931979033e-02 -1.0298146627854028e+00 -5.8483939618361146e-02
-3.5000000000000000e+00 +9.1469991485430509e+00 +0.0000000000000000e+00 -3.4999999236300501e+00 +1.1384824035692334e-02 -1.0298155502156539e+00 -5.8483767527482383e-02
-3.6000000000000001e+00 +9.1469624487887007e+00 +0.0000000000000000e+00 -3.5999999168952499e+00 +1.1385104726813628e-02 -1.0298163019103959e+00 -5.8483582320214847e-02
-3.7000000000000002e+00 +9.1469247152390807e+00 +0.0000000000000000e+00 -3.6999999097757001e+00 +1.1385387185464819e-02 -1.0298169133340935e+00 -5.8483384221968672e-02
-3.7999999999999998e+00 +9.1468859478924092e+00 +0.0000000000000000e+00 -3.7999999022607200e+00 +1.1385670450258536e-02 -1.0298173822741457e+00 -5.8483173588265089e-02
-3.8999999999999999e+00 +9.1468461467522495e+00 +0.0000000000000000e+00 -3.8999998943396199e+00 +1.1385953559608067e-02 -1.0298177065197947e+00 -5.8482950774601326e-02
-4.0000000000000000e+00 +9.1468053118132708e+00 +0.0000000000000000e+00 -3.9999998860017101e+00 +1.1386235551707917e-02 -1.0298178838622192e+00 -5.8482716136449363e-02
-4.0999999999999996e+00 +9.1467634430807898e+00 +0.0000000000000000e+00 -4.0999998772363098e+00 +1.1386515464513853e-02 -1.0298179120945508e+00 -5.8482470029251006e-02
-4.2000000000000002e+00 +9.1467205405512608e+00 +0.0000000000000000e+00 -4.1999998680327302e+00 +1.1386792335723541e-02 -1.0298177890119824e+00 -5.8482212808417068e-02
-4.2999999999999998e+00 +9.1466766042264602e+00 +0.0000000000000000e+00 -4.2999998583802803e+00 +1.1387065202756702e-02 -1.0298175124117965e+00 -5.8481944829323167e-02
-4.4000000000000004e+00 +9.1466316341046099e+00 +0.0000000000000000e+00 -4.3999998482682798e+00 +1.1387333102735552e-02 -1.0298170800934481e+00 -5.8481666447307713e-02
-4.5000000000000000e+00 +9.1465856301892607e+00 +0.0000000000000000e+00 -4.4999998376860297e+00 +1.1387595072465064e-02 -1.0298164898586071e+00 -5.8481378017668291e-02
-4.5999999999999996e+00 +9.1465385924768707e+00 +0.0000000000000000e+00 -4.5999998266228497e+00 +1.1387850148413448e-02 -1.0298157395112468e+00 -5.8481079895659954e-02
-4.7000000000000002e+00 +9.1464905209674292e+00 +0.0000000000000000e+00 -4.6999998150680504e+00 +1.1388097366692381e-02 -1.0298148268576828e+00 -5.8480772436491461e-02
-4.7999999999999998e+00 +9.1464414156644995e+00 +0.0000000000000000e+00 -4.7999998030109499e+00 +1.1388335763037332e-02 -1.0298137497066364e+00 -5.8480455995322388e-02
-4.9000000000000004e+00 +9.1463912765645095e+00 +0.0000000000000000e+00 -4.8999997904408596e+00 +1.1388564372788079e-02 -1.0298125058693182e+00 -5.8480130927261377e-02
-5.0000000000000000e+00 +9.1463401036692602e+00 +0.0000000000000000e+00 -4.9999997773470897e+00 +1.1388782230868855e-02 -1.0298110931594644e+00 -5.8479797587362083e-02
-5.0999999999999996e+00 +9.1462878969787305e+00 +0.0000000000000000e+00 -5.0999997637189498e+00 +1.1388988371768820e-02 -1.0298095093934128e+00 -5.8479456330621016e-02
-5.2000000000000002e+00 +9.1462346564911599e+00 +0.0000000000000000e+00 -5.1999997495457499e+00 +1.1389181829522393e-02 -1.0298077523901674e+00 -5.8479107511974826e-02
-5.2999999999999998e+00 +9.1461803822083105e+00 +0.0000000000000000e+00 -5.2999997348168204e+00 +1.1389361637689544e-02 -1.0298058199714453e+00 -5.8478751486296804e-02
-5.4000000000000004e+00 +9.1461250741284204e+00 +0.0000000000000000e+00 -5.3999997195214604e+00 +1.1389526829336206e-02 -1.0298037099617576e+00 -5.8478388608394882e-02
-5.5000000000000000e+00 +9.1460687322550296e+00 +0.0000000000000000e+00 -5.4999997036489701e+00 +1.1389676437014532e-02 -1.0298014201884511e+00 -5.8478019233007834e-02
-5.5999999999999996e+00 +9.1460113565845909e+00 +0.0000000000000000e+00 -5.5999996871886903e+00 +1.1389809939393933e-02 -1.0297989502644174e+00 -5.8477643739611312e-02
-5.7000000000000002e+00 +9.1459529471188894e+00 +0.0000000000000000e+00 -5.6999996701299196e+00 +1.1389928601521536e-02 -1.0297963069344076e+00 -5.8477262606872693e-02
-5.7999999999999998e+00 +9.1458935038561293e+00 +0.0000000000000000e+00 -5.7999996524619597e+00 +1.1390034135409200e-02 -1.0297934987242232e+00 -5.8476876338290705e-02
-5.9000000000000004e+00 +9.1458330267980994e+00 +0.0000000000000000e+00 -5.8999996341741401e+00 +1.1390128253472956e-02 -1.0297905341574898e+00 -5.8476485437397301e-02
-6.0000000000000000e+00 +9.1457715159465796e+00 +0.0000000000000000e+00 -5.9999996152557697e+00 +1.1390212668554910e-02 -1.0297874217555048e+00 -5.8476090407759924e-02
-6.0999999999999996e+00 +9.1457089712962301e+00 +0.0000000000000000e+00 -6.0999995956961603e+00 +1.1390289093945221e-02 -1.0297841700370967e+00 -5.8475691752984171e-02
-6.2000000000000002e+00 +9.1456453928523906e+00 +0.0000000000000000e+00 -6.1999995754846200e+00 +1.1390359243403697e-02 -1.0297807875184291e+00 -5.8475289976713828e-02
-6.2999999999999998e+00 +9.1455807806132707e+00 +0.0000000000000000e+00 -6.2999995546104604e+00 +1.1390424831181903e-02 -1.0297772827128806e+00 -5.8474885582634507e-02
-6.4000000000000004e+00 +9.1455151345771100e+00 +0.0000000000000000e+00 -6.3999995330630002e+00 +1.1390487572044953e-02 -1.0297736641308723e+00 -5.8474479074474991e-02
-6.5000000000000000e+00 +9.1454484547456794e+00 +0.0000000000000000e+00 -6.4999995108315600e+00 +1.1390549181293279e-02 -1.0297699402797031e+00 -5.8474070956008595e-02
-6.5999999999999996e+00 +9.1453807411171901e+00 +0.0000000000000000e+00 -6.5999994879054302e+00 +1.1390611374784634e-02 -1.0297661196634054e+00 -5.8473661731055893e-02
-6.7000000000000002e+00 +9.1453119936934399e+00 +0.0000000000000000e+00 -6.6999994642739402e+00 +1.1390675868955815e-02 -1.0297622107825735e+00 -5.8473251903485769e-02
-6.7999999999999998e+00 +9.1452422124761892e+00 +0.0000000000000000e+00 -6.7999994399263999e+00 +1.1390744380844600e-02 -1.0297582221342139e+00 -5.8472841977217811e-02
-6.9000000000000004e+00 +9.1451713974618905e+00 +0.0000000000000000e+00 -6.8999994148521200e+00 +1.1390818628111645e-02 -1.0297541622115980e+00 -5.8472432456224584e-02
-7.0000000000000000e+00 +9.1450995486523308e+00 +0.0000000000000000e+00 -6.9999993890404202e+00 +1.1390900329062228e-02 -1.0297500395040804e+00 -5.8472023844532560e-02
-7.0999999999999996e+00 +9.1450266660474906e+00 +0.0000000000000000e+00 -7.0999993624805997e+00 +1.1390991202668189e-02 -1.0297458624969584e+00 -5.8471616646224689e-02
-7.2000000000000002e+00 +9.1449527496438208e+00 +0.0000000000000000e+00 -7.1999993351619702e+00 +1.1391092968589792e-02 -1.0297416396713164e+00 -5.8471211365442359e-02
-7.2999999999999998e+00 +9.1448777994484391e+00 +0.0000000000000000e+00 -7.2999993070738700e+00 +1.1391207347197419e-02 -1.0297373795038374e+00 -5.8470808506386002e-02
-7.4000000000000004e+00 +9.1448018154560096e+00 +0.0000000000000000e+00 -7.3999992782055797e+00 +1.1391336059593705e-02 -1.0297330904666961e+00 -5.8470408573319220e-02
-7.5000000000000000e+00 +9.1447247976682995e+00 +0.0000000000000000e+00 -7.4999992485464304e+00 +1.1391480827635147e-02 -1.0297287810273570e+00 -5.8470012070568678e-02
-7.5999999999999996e+00 +9.1446467460835503e+00 +0.0000000000000000e+00 -7.5999992180857303e+00 +1.1391642781387703e-02 -1.0297244591668724e+00 -5.8469619311729983e-02
-7.7000000000000002e+00 +9.1445676607035296e+00 +0.0000000000000000e+00 -7.6999991868127999e+00 +1.1391820680939857e-02 -1.0297201309364581e+00 -5.8469229847208377e-02
-7.7999999999999998e+00 +9.1444875415300100e+00 +0.0000000000000000e+00 -7.7999991547169403e+00 +1.1392012693331911e-02 -1.0297158019047405e+00 -5.8468843036527961e-02
-7.9000000000000004e+00 +9.1444063885594495e+00 +0.0000000000000000e+00 -7.8999991217874603e+00 +1.1392216985014475e-02 -1.0297114776397138e+00 -5.8468458239121945e-02
-8.0000000000000000e+00 +9.1443242017936104e+00 +0.0000000000000000e+00 -7.9999990880136904e+00 +1.1392431721825485e-02 -1.0297071637087052e+00 -5.8468074814328468e-02
-8.0999999999999996e+00 +9.1442409812307197e+00 +0.0000000000000000e+00 -8.0999990533849306e+00 +1.1392655068967462e-02 -1.0297028656783804e+00 -5.8467692121388283e-02
-8.1999999999999993e+00 +9.1441567268743391e+00 +0.0000000000000000e+00 -8.1999990178904891e+00 +1.1392885190984537e-02 -1.0296985891147172e+00 -5.8467309519440736e-02
-8.3000000000000007e+00 +9.1440714387209105e+00 +0.0000000000000000e+00 -8.2999989815196997e+00 +1.1393120251739771e-02 -1.0296943395830171e+00 -5.8466926367521835e-02
-8.4000000000000004e+00 +9.1439851167722104e+00 +0.0000000000000000e+00 -8.3999989442618492e+00 +1.1393358414392148e-02 -1.0296901226478712e+00 -5.8466542024559857e-02
-8.5000000000000000e+00 +9.1438977610300203e+00 +0.0000000000000000e+00 -8.4999989061062706e+00 +1.1393597841373782e-02 -1.0296859438731580e+00 -5.8466155849372661e-02
-8.5999999999999996e+00 +9.1438093714890005e+00 +0.0000000000000000e+00 -8.5999988670422596e+00 +1.1393836694367176e-02 -1.0296818088220474e+00 -5.8465767200665361e-02
-8.6999999999999993e+00 +9.1437199481544802e+00 +0.0000000000000000e+00 -8.6999988270591402e+00 +1.1394073134282118e-02 -1.0296777230569525e+00 -5.8465375437025215e-02
-8.8000000000000007e+00 +9.1436294910247007e+00 +0.0000000000000000e+00 -8.7999987861462294e+00 +1.1394305321233094e-02 -1.0296736921395562e+00 -5.8464979916920394e-02
-8.9000000000000004e+00 +9.1435380000978608e+00 +0.0000000000000000e+00 -8.8999987442928301e+00 +1.1394531414516348e-02 -1.0296697216307857e+00 -5.8464579998696094e-02
-9.0000000000000000e+00 +9.1434454753775292e+00 +0.0000000000000000e+00 -8.9999987014882503e+00 +1.1394749572586934e-02 -1.0296658170907866e+00 -5.8464175040570769e-02
-9.0999999999999996e+00 +9.1433519168619295e+00 +0.0000000000000000e+00 -9.0999986577218195e+00 +1.1394957953036050e-02 -1.0296619840789398e+00 -5.8463764400634118e-02
-9.1999999999999993e+00 +9.1432573245492801e+00 +0.0000000000000000e+00 -9.1999986129828297e+00 +1.1395154712568112e-02 -1.0296582281538340e+00 -5.8463347436843428e-02
-9.3000000000000007e+00 +9.1431616984413608e+00 +0.0000000000000000e+00 -9.2999985672606194e+00 +1.1395338006977854e-02 -1.0296545548732503e+00 -5.8462923507020016e-02
-9.4000000000000004e+00 +9.1430650385381700e+00 +0.0000000000000000e+00 -9.3999985205444805e+00 +1.1395505991127581e-02 -1.0296509697941623e+00 -5.8462491968846633e-02
-9.5000000000000000e+00 +9.1429673448397004e+00 +0.0000000000000000e+00 -9.4999984728237195e+00 +1.1395656818924278e-02 -1.0296474784727181e+00 -5.8462052179864152e-02
-9.5999999999999996e+00 +9.1428686173459699e+00 +0.0000000000000000e+00 -9.5999984240876799e+00 +1.1395789256842037e-02 -1.0296440852741719e+00 -5.8461603824958429e-02
-9.6999999999999993e+00 +9.1427688560551807e+00 +0.0000000000000000e+00 -9.6999983743256504e+00 +1.1395904525145328e-02 -1.0296407898030313e+00 -5.8461147899016568e-02
-9.8000000000000007e+00 +9.1426680609726798e+00 +0.0000000000000000e+00 -9.7999983235269408e+00 +1.1396004458062763e-02 -1.0296375904743251e+00 -5.8460685724653294e-02
-9.9000000000000004e+00 +9.1425662320913492e+00 +0.0000000000000000e+00 -9.8999982716808805e+00 +1.1396090890324288e-02 -1.0296344857039867e+00 -5.8460218624731740e-02
-1.0000000000000000e+01 +9.1424633694165305e+00 +0.0000000000000000e+00 -9.9999982187767706e+00 +1.1396165657176601e-02 -1.0296314739088304e+00 -5.8459747922367612e-02
-1.0100000000000000e+01 +9.1423594729446602e+00 +0.0000000000000000e+00 -1.0099998164803900e+01 +1.1396230594399315e-02 -1.0296285535066321e+00 -5.8459274940938222e-02
-1.0199999999999999e+01 +9.1422545426793000e+00 +0.0000000000000000e+00 -1.0199998109751700e+01 +1.1396287538320501e-02 -1.0296257229161250e+00 -5.8458801004087804e-02
-1.0300000000000001e+01 +9.1421485786168795e+00 +0.0000000000000000e+00 -1.0299998053609301e+01 +1.1396338325832743e-02 -1.0296229805570636e+00 -5.8458327435735730e-02
-1.0400000000000000e+01 +9.1420415807609707e+00 +0.0000000000000000e+00 -1.0399997996366100e+01 +1.1396384794408685e-02 -1.0296203248502247e+00 -5.8457855560081859e-02
-1.0500000000000000e+01 +9.1419335491080194e+00 +0.0000000000000000e+00 -1.0499997938011500e+01 +1.1396428782117071e-02 -1.0296177542174687e+00 -5.8457386701614919e-02
-1.0600000000000000e+01 +9.1418244836597893e+00 +0.0000000000000000e+00 -1.0599997878534600e+01 +1.1396472127638384e-02 -1.0296152670817464e+00 -5.8456922185118027e-02
-1.0699999999999999e+01 +9.1417143844180693e+00 +0.0000000000000000e+00 -1.0699997817925000e+01 +1.1396516670280674e-02 -1.0296128618671425e+00 -5.8456463335676015e-02
-1.0800000000000001e+01 +9.1416032513792906e+00 +0.0000000000000000e+00 -1.0799997756171701e+01 +1.1396564249995488e-02 -1.0296105369989177e+00 -5.8456011478682984e-02
-1.0900000000000000e+01 +9.1414910845470292e+00 +0.0000000000000000e+00 -1.0899997693264300e+01 +1.1396616707393425e-02 -1.0296082909035140e+00 -5.8455567939847602e-02
-1.1000000000000000e+01 +9.1413778839177091e+00 +0.0000000000000000e+00 -1.0999997629191901e+01 +1.1396675883760201e-02 -1.0296061220086199e+00 -5.8455134045201612e-02
-1.1100000000000000e+01 +9.1412636494931299e+00 +0.0000000000000000e+00 -1.1099997563943900e+01 +1.1396743621072214e-02 -1.0296040287431714e+00 -5.8454711121105341e-02
-1.1199999999999999e+01 +9.1411483812750394e+00 +0.0000000000000000e+00 -1.1199997497509599e+01 +1.1396821762012422e-02 -1.0296020095373986e+00 -5.8454300494254936e-02
-1.1300000000000001e+01 +9.1410320792599205e+00 +0.0000000000000000e+00 -1.1299997429878401e+01 +1.1396912149986194e-02 -1.0296000628228654e+00 -5.8453903491689926e-02
-1.1400000000000000e+01 +9.1409147434512903e+00 +0.0000000000000000e+00 -1.1399997361039500e+01 +1.1397016629136955e-02 -1.0295981870324811e+00 -5.8453521440798677e-02
-1.1500000000000000e+01 +9.1407963738456193e+00 +0.0000000000000000e+00 -1.1499997290982201e+01 +1.1397137044362116e-02 -1.0295963806005550e+00 -5.8453155669326649e-02
-1.1600000000000000e+01 +9.1406769704464494e+00 +0.0000000000000000e+00 -1.1599997219695799e+01 +1.1397274618288320e-02 -1.0295946414398978e+00 -5.8452807078352924e-02
-1.1699999999999999e+01 +9.1405565332520098e+00 +0.0000000000000000e+00 -1.1699997147169800e+01 +1.1397428081571608e-02 -1.0295929653728457e+00 -5.8452474860855169e-02
