# multipoles
# s[mm] polynom_b[n=0][T/m^n] polynom_b[n=1][T/m^n] polynom_b[n=2][T/m^n] polynom_b[n=3][T/m^n] polynom_b[n=4][T/m^n] polynom_b[n=5][T/m^n] polynom_b[n=6][T/m^n] 
+0.0000000000000000e+00 -1.0331543912350172e+00 +2.2906905639358963e+00 +1.7428432248299380e+01 -3.1142557479524342e+01 +2.7551585801364181e+04 +7.7961040472969832e+05 -2.9204562571484253e+07 
+1.0005104645227200e-01 -1.0331583896290184e+00 +2.2905755963293557e+00 +1.7504288636685768e+01 -3.8500395548912152e+01 +2.7615122175123714e+04 +8.3634580784742208e+05 -3.2665941081173763e+07 
+2.0010209290454301e-01 -1.0331623444050146e+00 +2.2904537976535768e+00 +1.7579114314607086e+01 -4.5766869294240188e+01 +2.7680270157014707e+04 +8.9315547129385278e+05 -3.6080831462833367e+07 
+3.0015313935681498e-01 -1.0331662494240421e+00 +2.2903263822052682e+00 +1.7652764290225647e+01 -5.2959264386448538e+01 +2.7746437131431114e+04 +9.5011423713372857e+05 -3.9437452467603579e+07 
+4.0020418580908601e-01 -1.0331700985471293e+00 +2.2901945643286066e+00 +1.7725093570590094e+01 -6.0094867731242701e+01 +2.7813030500159784e+04 +1.0072969537280999e+06 -4.2724023074215993e+07 
+5.0025523226135804e-01 -1.0331738856352082e+00 +2.2900595584117633e+00 +1.7795957149220204e+01 -6.7190967234093662e+01 +2.7879457938608648e+04 +1.0647784737231534e+06 -4.5928763779498130e+07 
+6.0030627871362996e-01 -1.0331776060108993e+00 +2.2899225180682090e+00 +1.7865245909465514e+01 -7.4264098187955824e+01 +2.7945324302199100e+04 +1.1226219422746527e+06 -4.9043061770160541e+07 
+7.0035732516590099e-01 -1.0331812608202213e+00 +2.2897843695305666e+00 +1.7932996568481240e+01 -8.1328334982843785e+01 +2.8010951977303925e+04 +1.1808474309986855e+06 -5.2070502745549507e+07 
+8.0040837161817302e-01 -1.0331848526591894e+00 +2.2896459860984333e+00 +1.7999282848391612e+01 -8.8397272726887479e+01 +2.8076825578027998e+04 +1.2394651666106689e+06 -5.5017609160586461e+07 
+9.0045941807044405e-01 -1.0331883841237957e+00 +2.2895082411042891e+00 +1.8064178465579509e+01 -9.5484507357882293e+01 +2.8143429885653593e+04 +1.2984853796809043e+06 -5.7890904553838149e+07 
+1.0005104645227201e+00 -1.0331918578100154e+00 +2.2893720079077808e+00 +1.8127757128668712e+01 -1.0260363549641413e+02 +2.8211249898329395e+04 +1.3579183038385035e+06 -6.0696913806202829e+07 
+1.1005615109749900e+00 -1.0331952763138004e+00 +2.2892381598970029e+00 +1.8190092537268683e+01 -1.0976825455019389e+02 +2.8280770870480930e+04 +1.4177741765930555e+06 -6.3442163361256294e+07 
+1.2006125574272599e+00 -1.0331986422311099e+00 +2.2891075704761610e+00 +1.8251258383822030e+01 -1.1699196237832501e+02 +2.8352478281211195e+04 +1.4780632374662247e+06 -6.6133181072833322e+07 
+1.3006636038795301e+00 -1.0332019581578809e+00 +2.2889811130685249e+00 +1.8311328351335170e+01 -1.2428835740303900e+02 +2.8426857896310506e+04 +1.5387957287763681e+06 -6.8776496540877759e+07 
+1.4007146503318000e+00 -1.0332052266901035e+00 +2.2888596611112568e+00 +1.8370376119320206e+01 -1.3167103851466018e+02 +2.8504395659692593e+04 +1.5999818952229014e+06 -7.1378640597913384e+07 
+1.5007656967840699e+00 -1.0332084504237318e+00 +2.2887440880457079e+00 +1.8428475354286689e+01 -1.3915360481468932e+02 +2.8585577890686884e+04 +1.6616319825326679e+06 -7.3946146279723376e+07 
+1.6008167432363500e+00 -1.0332116319547542e+00 +2.2886352673249624e+00 +1.8485699715221788e+01 -1.4674965587729372e+02 +2.8670891187641966e+04 +1.7237562390962418e+06 -7.6485548379584014e+07 
+1.7008677896886200e+00 -1.0332147738791519e+00 +2.2885340723972813e+00 +1.8542122848605338e+01 -1.5447279129451871e+02 +2.8760822537385466e+04 +1.7863649134325655e+06 -7.9003383998062104e+07 
+1.8009188361408901e+00 -1.0332178787929818e+00 +2.2884413767134841e+00 +1.8597818398204584e+01 -1.6233661094346468e+02 +2.8855859136338891e+04 +1.8494682559323383e+06 -8.1506191701335251e+07 
+1.9009698825931600e+00 -1.0332209492923039e+00 +2.2883580537115709e+00 +1.8652859994302840e+01 -1.7035471456759862e+02 +2.8956488610607561e+04 +1.9130765165126193e+06 -8.4000512599424779e+07 
+2.0010209290454299e+00 -1.0332239879732024e+00 +2.2882849768223994e+00 +1.8707321256838295e+01 -1.7854070196401219e+02 +2.9063198960688711e+04 +1.9771999458124002e+06 -8.6492890083815277e+07 
+2.1010719754977001e+00 -1.0332269974318489e+00 +2.2882230194614590e+00 +1.8761275799661568e+01 -1.8690817282078848e+02 +2.9176478498890221e+04 +2.0418487944556926e+06 -8.8989869570975557e+07 
+2.2011230219499698e+00 -1.0332299802644140e+00 +2.2881730550275514e+00 +1.8814797221459472e+01 -1.9547072666978391e+02 +2.9296816031830043e+04 +2.1070333128302353e+06 -9.1497999386700869e+07 
+2.3011740684022501e+00 -1.0332329390671546e+00 +2.2881359568922623e+00 +1.8867959115030935e+01 -2.0424196264102753e+02 +2.9424700690670845e+04 +2.1727637498274334e+06 -9.4023829964122608e+07 
+2.4012251148545198e+00 -1.0332358764363776e+00 +2.2881125984049087e+00 +1.8920835060466320e+01 -2.1323547964258191e+02 +2.9560622075344854e+04 +2.2390503540027048e+06 -9.6573914561668321e+07 
+2.5012761613067900e+00 -1.0332387949684529e+00 +2.2881038528857602e+00 +1.8973498626397422e+01 -2.2246487629178313e+02 +2.9705070233854669e+04 +2.3059033736963216e+06 -9.9154809142402634e+07 
+2.6013272077590601e+00 -1.0332416963298299e+00 +2.2881103788634030e+00 +1.9025999623761205e+01 -2.3194081324026573e+02 +2.9858328495559788e+04 +2.3733337172359587e+06 -1.0177089875045055e+08 
+2.7013782542113298e+00 -1.0332445786663247e+00 +2.2881319626686873e+00 +1.9078311451355194e+01 -2.4166090221145106e+02 +3.0019617380909134e+04 +2.4413457897936832e+06 -1.0441733734529163e+08 
+2.8014293006636000e+00 -1.0332474392911926e+00 +2.2881681695171743e+00 +1.9130392852143974e+01 -2.5161919699980047e+02 +3.0187833978709812e+04 +2.5099403521683235e+06 -1.0708683061074762e+08 
+2.9014803471158799e+00 -1.0332502755177704e+00 +2.2882185646335573e+00 +1.9182202578544747e+01 -2.6180975098213514e+02 +3.0361875195063654e+04 +2.5791181605340657e+06 -1.0977208331549793e+08 
+3.0015313935681500e+00 -1.0332530846594281e+00 +2.2882827132540871e+00 +1.9233699385877255e+01 -2.7222661711273810e+02 +3.0540637875246895e+04 +2.6488799661820363e+06 -1.1246579987744562e+08 
+3.1015824400204202e+00 -1.0332558640296550e+00 +2.2883601806296263e+00 +1.9284842045500394e+01 -2.8286384796050095e+02 +3.0723018535346881e+04 +2.7192265156079000e+06 -1.1516068302721415e+08 
+3.2016334864726899e+00 -1.0332586109419843e+00 +2.2884505320250645e+00 +1.9335589334331814e+01 -2.9371549560606496e+02 +3.0907913550662681e+04 +2.7901585496575707e+06 -1.1784943466694114e+08 
+3.3016845329249600e+00 -1.0332613227100698e+00 +2.2885533327162535e+00 +1.9385900046312592e+01 -3.0477561148139631e+02 +3.1094218926341764e+04 +2.8616768024216625e+06 -1.2052475474379492e+08 
+3.4017355793772301e+00 -1.0332639966476100e+00 +2.2886681479980360e+00 +1.9435732985440879e+01 -3.1603824654276247e+02 +3.1280830416866778e+04 +2.9337820021017869e+06 -1.2317934177262248e+08 
+3.5017866258295101e+00 -1.0332666300683848e+00 +2.2887945431774619e+00 +1.9485046967979581e+01 -3.2749745098763560e+02 +3.1466643472207430e+04 +3.0064748690820881e+06 -1.2580589254183751e+08 
+3.6018376722817802e+00 -1.0332692202863449e+00 +2.2889320835826856e+00 +1.9533800836677749e+01 -3.3914727446825594e+02 +3.1650552954653918e+04 +3.0797561170937801e+06 -1.2839710072204152e+08 
+3.7018887187340499e+00 -1.0332717646154650e+00 +2.2890803345562984e+00 +1.9581953442616513e+01 -3.5098176579087857e+02 +3.1831453474113034e+04 +3.1536264511575382e+06 -1.3094565843027541e+08 
+3.8019397651863200e+00 -1.0332742603698306e+00 +2.2892388614620525e+00 +1.9629463657224672e+01 -3.6299497307615172e+02 +3.2008239144038838e+04 +3.2280865684403405e+06 -1.3344425501484151e+08 
+3.9019908116385902e+00 -1.0332767048636549e+00 +2.2894072296802919e+00 +1.9676290374143647e+01 -3.7518094353768015e+02 +3.2179803533644674e+04 +3.3031371566993762e+06 -1.3588557679058254e+08 
+4.0020418580908599e+00 -1.0332790954112649e+00 +2.2895850046112263e+00 +1.9722392510111131e+01 -3.8753372350137766e+02 +3.2345039643975968e+04 +3.3787788942290773e+06 -1.3826230689610821e+08 
+4.1020929045431300e+00 -1.0332814293270665e+00 +2.2897717516803531e+00 +1.9767729000591071e+01 -4.0004735850794174e+02 +3.2502839974896506e+04 +3.4550124502894552e+06 -1.4056712556228396e+08 
+4.2021439509954099e+00 -1.0332837039256029e+00 +2.2899670363326101e+00 +1.9812258807369261e+01 -4.1271589305644460e+02 +3.2652096365567704e+04 +3.5318384833777477e+06 -1.4279270930422780e+08 
+4.3021949974476801e+00 -1.0332859165215291e+00 +2.2901704240311305e+00 +1.9855940916801547e+01 -4.2553337051815794e+02 +3.2791700020818746e+04 +3.6092576406015861e+06 -1.4493173101974359e+08 
+4.4022460438999502e+00 -1.0332880644296738e+00 +2.2903814802697329e+00 +1.9898734347410237e+01 -4.3849383340536144e+02 +3.2920541356185793e+04 +3.6872705589864142e+06 -1.4697685921825764e+08 
+4.5022970903522204e+00 -1.0332901449649174e+00 +2.2905997705517476e+00 +1.9940598136849356e+01 -4.5159132242261308e+02 +3.3037510278030051e+04 +3.7658778606116823e+06 -1.4892075932262340e+08 
+4.6023481368044896e+00 -1.0332921560276043e+00 +2.2908248498950758e+00 +1.9981470967579032e+01 -4.6481690959555777e+02 +3.3142397846920299e+04 +3.8450603079032283e+06 -1.5076113008687997e+08 
+4.7023991832567598e+00 -1.0332940974740334e+00 +2.2910563362215646e+00 +2.0021182678533822e+01 -4.7815376119142849e+02 +3.3238890907579211e+04 +3.9247404599060668e+06 -1.5251682713454765e+08 
+4.8024502297090397e+00 -1.0332959695620827e+00 +2.2912938873932114e+00 +2.0059529543035925e+01 -4.9158396228500015e+02 +3.3331722662774024e+04 +4.0048311420869469e+06 -1.5421226078412896e+08 
+4.9025012761613098e+00 -1.0332977725495323e+00 +2.2915371612728057e+00 +2.0096307816602963e+01 -5.0508959766308976e+02 +3.3425626566151033e+04 +4.0852451772289760e+06 -1.5587184222628081e+08 
+5.0025523226135800e+00 -1.0332995066941599e+00 +2.2917858157232502e+00 +2.0131313750590611e+01 -5.1865275180088167e+02 +3.3525336057661669e+04 +4.1658953853329560e+06 -1.5751998225274962e+08 
+5.1026033690658501e+00 -1.0333011722536447e+00 +2.2920395086068606e+00 +2.0164343576575817e+01 -5.3225550890834870e+02 +3.3635584853443717e+04 +4.2466945840556463e+06 -1.5918109261006397e+08 
+5.2026544155181202e+00 -1.0333027694856780e+00 +2.2922978977819581e+00 +2.0195193522726036e+01 -5.4587995277803736e+02 +3.3761106634649157e+04 +4.3275555876921797e+06 -1.6087958452059743e+08 
+5.3027054619703904e+00 -1.0333042986478764e+00 +2.2925606410981763e+00 +2.0223659800302155e+01 -5.5950816672977226e+02 +3.3906635293527856e+04 +4.4083912070869049e+06 -1.6263986982002696e+08 
+5.4027565084226703e+00 -1.0333057599977740e+00 +2.2928273964146340e+00 +2.0249538605839611e+01 -5.7312223412027947e+02 +3.4076904893264480e+04 +4.4891142525813999e+06 -1.6448636077028990e+08 
+5.5028075548749404e+00 -1.0333071537928897e+00 +2.2930978215735216e+00 +2.0272626125972860e+01 -5.8670423761723953e+02 +3.4276649566326356e+04 +4.5696375298813237e+06 -1.6644346954367524e+08 
+5.6028586013272097e+00 -1.0333084802906014e+00 +2.2933715744178107e+00 +2.0292718523392175e+01 -6.0023625969994475e+02 +3.4510603781391677e+04 +4.6498738429596880e+06 -1.6853560949373913e+08 
+5.7029096477794798e+00 -1.0333097397482895e+00 +2.2936483127858698e+00 +2.0309611954467144e+01 -6.1370038255786062e+02 +3.4783502000633998e+04 +4.7297359936287077e+06 -1.7078719350031868e+08 
+5.8029606942317500e+00 -1.0333109324231962e+00 +2.2939276945059870e+00 +2.0323102550423474e+01 -6.2707868792607917e+02 +3.5100079036091585e+04 +4.8091367805725206e+06 -1.7322263565671608e+08 
+5.9030117406840201e+00 -1.0333120585725237e+00 +2.2942093774030150e+00 +2.0332986431693726e+01 -6.4035325729952024e+02 +3.5465069766861852e+04 +4.8879890006693313e+06 -1.7586634989900130e+08 
+6.0030627871363000e+00 -1.0333131184533535e+00 +2.2944930192947552e+00 +2.0339059694119975e+01 -6.5350617185093506e+02 +3.5883209404591078e+04 +4.9662054485729486e+06 -1.7874275127334386e+08 
+6.1031138335885702e+00 -1.0333141123226808e+00 +2.2947782779892303e+00 +2.0341118416105854e+01 -6.6651951236966829e+02 +3.6359233346561661e+04 +5.0436989164265320e+06 -1.8187625520525786e+08 
+6.2031648800408403e+00 -1.0333150404374076e+00 +2.2950648112869700e+00 +2.0338958656691428e+01 -6.7937535934030336e+02 +3.6897877206094228e+04 +5.1203821943663890e+06 -1.8529127762396312e+08 
+6.3032159264931096e+00 -1.0333159030543335e+00 +2.2953522769804984e+00 +2.0332376452885416e+01 -6.9205579294839049e+02 +3.7503876872654400e+04 +5.1961680706147412e+06 -1.8901223527526313e+08 
+6.4032669729453797e+00 -1.0333167004301271e+00 +2.2956403328513821e+00 +2.0321167819290615e+01 -7.0454289301423717e+02 +3.8181968490710758e+04 +5.2709693311692597e+06 -1.9306354553882059e+08 
+6.5033180193976499e+00 -1.0333174328212422e+00 +2.2959286366428873e+00 +2.0305128730868411e+01 -7.1681873781222851e+02 +3.8936888838306884e+04 +5.3446987445665076e+06 -1.9746962904936504e+08 
+6.6033690658499298e+00 -1.0333181011497685e+00 +2.2962168840450881e+00 +2.0284140724093660e+01 -7.2886919326547070e+02 +3.9772023943165696e+04 +5.4172823238045461e+06 -2.0224946582349172e+08 
+6.7034201123021999e+00 -1.0333187091326268e+00 +2.2965048434757676e+00 +2.0258447585036606e+01 -7.4069348494716201e+02 +4.0685037016260190e+04 +5.4886950513293892e+06 -2.0739786100813654e+08 
+6.8034711587544701e+00 -1.0333192612045448e+00 +2.2967922816245450e+00 +2.0228387029071406e+01 -7.5229370105162786e+02 +4.1672110354425633e+04 +5.5589222284357958e+06 -2.1290315170176440e+08 
+6.9035222052067402e+00 -1.0333197618002214e+00 +2.2970789651008614e+00 +2.0194296776105482e+01 -7.6367192950467609e+02 +4.2729426174032145e+04 +5.6279491657416029e+06 -2.1875367427843112e+08 
+7.0035732516590103e+00 -1.0333202153542329e+00 +2.2973646604426414e+00 +2.0156514535528927e+01 -7.7483025840972925e+02 +4.3853166902799574e+04 +5.6957611870270902e+06 -2.2493776583776534e+08 
+7.1036242981112796e+00 -1.0333206263011672e+00 +2.2976491341104639e+00 +2.0115378026006493e+01 -7.8577077594631908e+02 +4.5039514801221681e+04 +5.7623436290805424e+06 -2.3144376238589016e+08 
+7.2036753445635497e+00 -1.0333209990754451e+00 +2.2979321524804330e+00 +2.0071224952950629e+01 -7.9649557025796173e+02 +4.6284652397324106e+04 +5.8276818415058395e+06 -2.3826000091510773e+08 
+7.3037263910158297e+00 -1.0333213381114985e+00 +2.2982134818443618e+00 +2.0024393029230428e+01 -8.0700672955560094e+02 +4.7584762092717974e+04 +5.8917611877912562e+06 -2.4537481751880261e+08 
+7.4037774374680998e+00 -1.0333216478436584e+00 +2.2984928884064089e+00 +1.9975219965322644e+01 -8.1730634211262873e+02 +4.8936026353842761e+04 +5.9545670457938202e+06 -2.5277654830646089e+08 
+7.5038284839203699e+00 -1.0333219327061542e+00 +2.2987701382823289e+00 +1.9924043465897185e+01 -8.2739649633481417e+02 +5.0334627775304230e+04 +6.0160848085529283e+06 -2.6045352968955883e+08 
+7.6038795303726401e+00 -1.0333221971331787e+00 +2.2990449974968667e+00 +1.9871201240348871e+01 -8.3727928078051957e+02 +5.1776748889301161e+04 +6.0762998849382149e+06 -2.6839409749437445e+08 
+7.7039305768249102e+00 -1.0333224455588241e+00 +2.2993172319764446e+00 +1.9817030993790009e+01 -8.4695678404111948e+02 +5.3258572328822993e+04 +6.1351976993670231e+06 -2.7658658770820534e+08 
+7.8039816232771804e+00 -1.0333226824170885e+00 +2.2995866075492652e+00 +1.9761870430773943e+01 -8.5643109483537921e+02 +5.4776280765799769e+04 +6.1927636928831730e+06 -2.8501933619939131e+08 
+7.9040326697294496e+00 -1.0333229121418934e+00 +2.2998528899464401e+00 +1.9706057254358424e+01 -8.6570430213531711e+02 +5.6326056931308587e+04 +6.2489833242978733e+06 -2.9368067881253886e+08 
+8.0040837161817304e+00 -1.0333231391670830e+00 +2.3001158447930754e+00 +1.9649929169376023e+01 -8.7477849499968704e+02 +5.7904083553338496e+04 +6.3038420697277067e+06 -3.0255895106549054e+08 
+8.1041347626340006e+00 -1.0333233679263800e+00 +2.3003752376086006e+00 +1.9593823875132962e+01 -8.8365576268827317e+02 +5.9506543494729580e+04 +6.3573254237385439e+06 -3.1164248879150081e+08 
+8.2041858090862707e+00 -1.0333236028534372e+00 +2.3006308338001795e+00 +1.9538079073408653e+01 -8.9233819454721436e+02 +6.1129619609888039e+04 +6.4094188991086613e+06 -3.2091962747548640e+08 
+8.3042368555385409e+00 -1.0333238483818377e+00 +2.3008823986710736e+00 +1.9483032468451007e+01 -9.0082788036922852e+02 +6.2769494743850410e+04 +6.4601080294714877e+06 -3.3037870223857319e+08 
+8.4042879019908092e+00 -1.0333241089449885e+00 +2.3011296974025535e+00 +1.9429021754816414e+01 -9.0912690991780812e+02 +6.4422351961093620e+04 +6.5093783668809822e+06 -3.4000804891024435e+08 
+8.5043389484430794e+00 -1.0333243889765205e+00 +2.3013724953457273e+00 +1.9376384704045325e+01 -9.1723738580309146e+02 +6.6084372214538249e+04 +6.5572155848514838e+06 -3.4979598925197560e+08 
+8.6043899948953602e+00 -1.0333246916016554e+00 +2.3016105010442343e+00 +1.9325428017309363e+01 -9.2515800587096260e+02 +6.7750970169260268e+04 +6.6035969535567649e+06 -3.5972324675582725e+08 
+8.7044410413476303e+00 -1.0333250152508300e+00 +2.3018429188093759e+00 +1.9276344767614816e+01 -9.3286136498317626e+02 +6.9414640329573973e+04 +6.6483755791872721e+06 -3.6974313574877018e+08 
+8.8044920877999004e+00 -1.0333253573188603e+00 +2.3020687703598286e+00 +1.9229306164220361e+01 -9.4031098058137559e+02 +7.1067058198304629e+04 +6.6913557962852381e+06 -3.7980203919815832e+08 
+8.9045431342521706e+00 -1.0333257151999846e+00 +2.3022870775372519e+00 +1.9184483338871779e+01 -9.4747036895701115e+02 +7.2699900519684510e+04 +6.7323419094522167e+06 -3.8984634511179733e+08 
+9.0045941807044407e+00 -1.0333260862877880e+00 +2.3024968623374216e+00 +1.9142047333994963e+01 -9.5430304615502439e+02 +7.4304845534084961e+04 +6.7711381973332688e+06 -3.9982244776772070e+08 
+9.1046452271567109e+00 -1.0333264679752290e+00 +2.3026971469056852e+00 +1.9102169105151876e+01 -9.6077252770879204e+02 +7.5873572934437456e+04 +6.8075489103494836e+06 -4.0967674751396197e+08 
+9.2046962736089899e+00 -1.0333268576545858e+00 +2.3028869535444700e+00 +1.9065019513646771e+01 -9.6684232870112692e+02 +7.7397763993598783e+04 +6.8413782702205610e+06 -4.1935565133078474e+08 
+9.3047473200612600e+00 -1.0333272527174842e+00 +2.3030653047115268e+00 +1.9030769331627532e+01 -9.7247596356398583e+02 +7.8869101465517277e+04 +6.8724304680440547e+06 -4.2880557235583383e+08 
+9.4047983665135302e+00 -1.0333276505548232e+00 +2.3032312230389316e+00 +1.8999589230304913e+01 -9.7763694651000367e+02 +8.0279269807557765e+04 +6.9005096660752874e+06 -4.3797293093401116e+08 
+9.5048494129658003e+00 -1.0333280485568226e+00 +2.3033837313264267e+00 +1.8971649787144496e+01 -9.8228879117580709e+02 +8.1619955034877174e+04 +6.9254199948559357e+06 -4.4680415389339727e+08 
+9.6049004594180705e+00 -1.0333284441129591e+00 +2.3035218525467331e+00 +1.8947121477712233e+01 -9.8639501061676867e+02 +8.2882844874720875e+04 +6.9469655523558771e+06 -4.5524567527674478e+08 
+9.7049515058703406e+00 -1.0333288346119365e+00 +2.3036446098567906e+00 +1.8926174670417677e+01 -9.8991911754042042e+02 +8.4059628858654585e+04 +6.9649504047033498e+06 -4.6324393675563508e+08 
+9.8050025523226108e+00 -1.0333292174417612e+00 +2.3037510266006174e+00 +1.8908979636844510e+01 -9.9282462418268756e+02 +8.5141998128474224e+04 +6.9791785845327936e+06 -4.7074538670831996e+08 
+9.9050535987748898e+00 -1.0333295899896051e+00 +2.3038401263060519e+00 +1.8895706533189902e+01 -9.9507504210841500e+02 +8.6121645773895201e+04 +6.9894540891357837e+06 -4.7769648178397346e+08 
+1.0005104645227201e+01 -1.0333299496418591e+00 +2.3039109327006697e+00 +1.8886525409230359e+01 -9.9663388252267919e+02 +8.6990266665889969e+04 +6.9955808815336805e+06 -4.8404368611388594e+08 
+1.0105155691679400e+01 -1.0333302937841444e+00 +2.3039624697131527e+00 +1.8881606206517599e+01 -9.9746465615938439e+02 +8.7739557487494196e+04 +6.9973628889966281e+06 -4.8973347144765615e+08 
