# field on trajectory
# s[mm] rx[mm] ry[mm] rz[mm] bx[T] by[T] bz[T]
-0.0000000000000000e+00 +9.1076201166355002e+00 +0.0000000000000000e+00 -0.0000000000000000e+00 +1.1123702581029580e-02 -1.0331384362751892e+00 -5.8655480392233901e-02
-1.0005104645227200e-01 +9.1076196006322601e+00 +0.0000000000000000e+00 -1.0005104645049701e-01 +1.1123887667970090e-02 -1.0331345742226514e+00 -5.8655122055059968e-02
-2.0010209290454301e-01 +9.1076180526189905e+00 +0.0000000000000000e+00 -2.0010209289035000e-01 +1.1124069487592878e-02 -1.0331306718133848e+00 -5.8654767285296706e-02
-3.0015313935681498e-01 +9.1076154725992300e+00 +0.0000000000000000e+00 -3.0015313930891202e-01 +1.1124248131851948e-02 -1.0331267354015412e+00 -5.8654417801103823e-02
-4.0020418580908601e-01 +9.1076118605712200e+00 +0.0000000000000000e+00 -4.0020418569554000e-01 +1.1124423692723043e-02 -1.0331227713410427e+00 -5.8654075320657223e-02
-5.0025523226135804e-01 +9.1076072165331805e+00 +0.0000000000000000e+00 -5.0025523203958799e-01 +1.1124596262200442e-02 -1.0331187859855693e+00 -5.8653741562143959e-02
-6.0030627871362996e-01 +9.1076015404886608e+00 +0.0000000000000000e+00 -6.0030627833041095e-01 +1.1124765932293753e-02 -1.0331147856885381e+00 -5.8653418243757138e-02
-7.0035732516590099e-01 +9.1075948324376501e+00 +0.0000000000000000e+00 -7.0035732455736299e-01 +1.1124932795025249e-02 -1.0331107768031231e+00 -5.8653107083692625e-02
-8.0040837161817302e-01 +9.1075870923766207e+00 +0.0000000000000000e+00 -8.0040837070980198e-01 +1.1125096942426823e-02 -1.0331067656822481e+00 -5.8652809800144291e-02
-9.0045941807044405e-01 +9.1075783203073204e+00 +0.0000000000000000e+00 -9.0045941677707997e-01 +1.1125258466536706e-02 -1.0331027586785637e+00 -5.8652528111298792e-02
-1.0005104645227201e+00 +9.1075685162297706e+00 +0.0000000000000000e+00 -1.0005104627485499e+00 +1.1125417459396669e-02 -1.0330987621444592e+00 -5.8652263735331743e-02
-1.1005615109749900e+00 +9.1075576801457405e+00 +0.0000000000000000e+00 -1.1005615086135800e+00 +1.1125574013048912e-02 -1.0330947824320473e+00 -5.8652018390402974e-02
-1.2006125574272599e+00 +9.1075458120516792e+00 +0.0000000000000000e+00 -1.2006125543615100e+00 +1.1125728219533318e-02 -1.0330908258931808e+00 -5.8651793794652803e-02
-1.3006636038795301e+00 +9.1075329119511395e+00 +0.0000000000000000e+00 -1.3006635999817000e+00 +1.1125880170883970e-02 -1.0330868988794157e+00 -5.8651591666196032e-02
-1.4007146503318000e+00 +9.1075189798405596e+00 +0.0000000000000000e+00 -1.4007146454635000e+00 +1.1126029959126676e-02 -1.0330830077420408e+00 -5.8651413723119321e-02
-1.5007656967840699e+00 +9.1075040157234994e+00 +0.0000000000000000e+00 -1.5007656907962801e+00 +1.1126177676275481e-02 -1.0330791588320414e+00 -5.8651261683474717e-02
-1.6008167432363500e+00 +9.1074880195981898e+00 +0.0000000000000000e+00 -1.6008167359693799e+00 +1.1126323469111070e-02 -1.0330753587532582e+00 -5.8651136815301569e-02
-1.7008677896886200e+00 +9.1074709914646199e+00 +0.0000000000000000e+00 -1.7008677809721600e+00 +1.1126467698547757e-02 -1.0330716150988177e+00 -5.8651038627549189e-02
-1.8009188361408901e+00 +9.1074529313228005e+00 +0.0000000000000000e+00 -1.8009188257939699e+00 +1.1126610777802805e-02 -1.0330679357034096e+00 -5.8650966199350618e-02
-1.9009698825931600e+00 +9.1074338391727103e+00 +0.0000000000000000e+00 -1.9009698704241800e+00 +1.1126753120071227e-02 -1.0330643284015280e+00 -5.8650918609801789e-02
-2.0010209290454299e+00 +9.1074137150161505e+00 +0.0000000000000000e+00 -2.0010209148521301e+00 +1.1126895138522807e-02 -1.0330608010274773e+00 -5.8650894937958511e-02
-2.1010719754977001e+00 +9.1073925588495506e+00 +0.0000000000000000e+00 -2.1010719590671898e+00 +1.1127037246299546e-02 -1.0330573614153971e+00 -5.8650894262834666e-02
-2.2011230219499698e+00 +9.1073703706746993e+00 +0.0000000000000000e+00 -2.2011230030586999e+00 +1.1127179856512412e-02 -1.0330540173992460e+00 -5.8650915663398355e-02
-2.3011740684022501e+00 +9.1073471504933696e+00 +0.0000000000000000e+00 -2.3011740468160200e+00 +1.1127323382238687e-02 -1.0330507768128259e+00 -5.8650958218569693e-02
-2.4012251148545198e+00 +9.1073228983037797e+00 +0.0000000000000000e+00 -2.4012250903285000e+00 +1.1127468236519243e-02 -1.0330476474897972e+00 -5.8651021007218640e-02
-2.5012761613067900e+00 +9.1072976141041497e+00 +0.0000000000000000e+00 -2.5012761335854998e+00 +1.1127614832355581e-02 -1.0330446372636810e+00 -5.8651103108161795e-02
-2.6013272077590601e+00 +9.1072712978980501e+00 +0.0000000000000000e+00 -2.6013271765763899e+00 +1.1127763582706748e-02 -1.0330417539678551e+00 -5.8651203600159248e-02
-2.7013782542113298e+00 +9.1072439496836903e+00 +0.0000000000000000e+00 -2.7013782192905000e+00 +1.1127914900486915e-02 -1.0330390054355894e+00 -5.8651321561912981e-02
-2.8014293006636000e+00 +9.1072155694610704e+00 +0.0000000000000000e+00 -2.8014292617172001e+00 +1.1128069198562235e-02 -1.0330363995000369e+00 -5.8651456072063415e-02
-2.9014803471158799e+00 +9.1071861572302009e+00 +0.0000000000000000e+00 -2.9014803038458301e+00 +1.1128226889748082e-02 -1.0330339439942493e+00 -5.8651606209186920e-02
-3.0015313935681500e+00 +9.1071557129910694e+00 +0.0000000000000000e+00 -3.0015313456657702e+00 +1.1128388386806166e-02 -1.0330316467511846e+00 -5.8651771051793193e-02
-3.1015824400204202e+00 +9.1071242367454595e+00 +0.0000000000000000e+00 -3.1015823871663502e+00 +1.1128554102441634e-02 -1.0330295156037113e+00 -5.8651949678322275e-02
-3.2016334864726899e+00 +9.1070917284915893e+00 +0.0000000000000000e+00 -3.2016334283369399e+00 +1.1128724449300419e-02 -1.0330275583846347e+00 -5.8652141167142534e-02
-3.3016845329249600e+00 +9.1070581882277004e+00 +0.0000000000000000e+00 -3.3016844691668901e+00 +1.1128899839966217e-02 -1.0330257829266902e+00 -5.8652344596547563e-02
-3.4017355793772301e+00 +9.1070236159573206e+00 +0.0000000000000000e+00 -3.4017355096455599e+00 +1.1129080686957480e-02 -1.0330241970625484e+00 -5.8652559044752924e-02
-3.5017866258295101e+00 +9.1069880116786806e+00 +0.0000000000000000e+00 -3.5017865497623002e+00 +1.1129267402723950e-02 -1.0330228086248294e+00 -5.8652783589895542e-02
-3.6018376722817802e+00 +9.1069513753917892e+00 +0.0000000000000000e+00 -3.6018375895064700e+00 +1.1129460218863661e-02 -1.0330216227952116e+00 -5.8653017474164154e-02
-3.7018887187340499e+00 +9.1069137070966395e+00 +0.0000000000000000e+00 -3.7018886288674100e+00 +1.1129658681526367e-02 -1.0330206347048150e+00 -5.8653260562032614e-02
-3.8019397651863200e+00 +9.1068750067950095e+00 +0.0000000000000000e+00 -3.8019396678344899e+00 +1.1129862174494113e-02 -1.0330198371036599e+00 -5.8653512865522964e-02
-3.9019908116385902e+00 +9.1068352744833394e+00 +0.0000000000000000e+00 -3.9019907063970600e+00 +1.1130070081612889e-02 -1.0330192227423647e+00 -5.8653774396769720e-02
-4.0020418580908599e+00 +9.1067945101634198e+00 +0.0000000000000000e+00 -4.0020417445444796e+00 +1.1130281786798346e-02 -1.0330187843721710e+00 -5.8654045168028746e-02
-4.1020929045431300e+00 +9.1067527138370199e+00 +0.0000000000000000e+00 -4.1020927822660997e+00 +1.1130496674042025e-02 -1.0330185147449999e+00 -5.8654325191687659e-02
-4.2021439509954099e+00 +9.1067098855023705e+00 +0.0000000000000000e+00 -4.2021438195512797e+00 +1.1130714127417667e-02 -1.0330184066135084e+00 -5.8654614480276424e-02
-4.3021949974476801e+00 +9.1066660251594502e+00 +0.0000000000000000e+00 -4.3021948563893604e+00 +1.1130933531087022e-02 -1.0330184527311221e+00 -5.8654913046476555e-02
-4.4022460438999502e+00 +9.1066211328065094e+00 +0.0000000000000000e+00 -4.4022458927697201e+00 +1.1131154269306134e-02 -1.0330186458520929e+00 -5.8655220903131577e-02
-4.5022970903522204e+00 +9.1065752084488594e+00 +0.0000000000000000e+00 -4.5022969286816901e+00 +1.1131375726431072e-02 -1.0330189787315218e+00 -5.8655538063256081e-02
-4.6023481368044896e+00 +9.1065282520811692e+00 +0.0000000000000000e+00 -4.6023479641146396e+00 +1.1131597286924706e-02 -1.0330194441254483e+00 -5.8655864540047557e-02
-4.7023991832567598e+00 +9.1064802637070095e+00 +0.0000000000000000e+00 -4.7023989990579196e+00 +1.1131818335362054e-02 -1.0330200347908516e+00 -5.8656200346894248e-02
-4.8024502297090397e+00 +9.1064312433245895e+00 +0.0000000000000000e+00 -4.8024500335008904e+00 +1.1132038256436938e-02 -1.0330207434857308e+00 -5.8656545497386810e-02
-4.9025012761613098e+00 +9.1063811909321402e+00 +0.0000000000000000e+00 -4.9025010674329002e+00 +1.1132256434967841e-02 -1.0330215629691373e+00 -5.8656900005327535e-02
-5.0025523226135800e+00 +9.1063301065332105e+00 +0.0000000000000000e+00 -5.0025521008432996e+00 +1.1132472255903879e-02 -1.0330224860012118e+00 -5.8657263884739914e-02
-5.1026033690658501e+00 +9.1062779901260207e+00 +0.0000000000000000e+00 -5.1026031337214599e+00 +1.1132685104331217e-02 -1.0330235053432530e+00 -5.8657637149879711e-02
-5.2026544155181202e+00 +9.1062248417123506e+00 +0.0000000000000000e+00 -5.2026541660567203e+00 +1.1132894365478907e-02 -1.0330246137577455e+00 -5.8658019815243982e-02
-5.3027054619703904e+00 +9.1061706612886404e+00 +0.0000000000000000e+00 -5.3027051978384501e+00 +1.1133099424725276e-02 -1.0330258040084253e+00 -5.8658411895581984e-02
-5.4027565084226703e+00 +9.1061154488584606e+00 +0.0000000000000000e+00 -5.4027562290559903e+00 +1.1133299667603616e-02 -1.0330270688603012e+00 -5.8658813405903946e-02
-5.5028075548749404e+00 +9.1060592044200206e+00 +0.0000000000000000e+00 -5.5028072596986997e+00 +1.1133494479813022e-02 -1.0330284010797097e+00 -5.8659224361490937e-02
-5.6028586013272097e+00 +9.1060019279733204e+00 +0.0000000000000000e+00 -5.6028582897559396e+00 +1.1133683459120851e-02 -1.0330297926546141e+00 -5.8659644713503864e-02
-5.7029096477794798e+00 +9.1059436195183707e+00 +0.0000000000000000e+00 -5.7029093192170599e+00 +1.1133866982606228e-02 -1.0330312327063744e+00 -5.8660074176426685e-02
-5.8029606942317500e+00 +9.1058842790551608e+00 +0.0000000000000000e+00 -5.8029603480714202e+00 +1.1134045606337805e-02 -1.0330327096972185e+00 -5.8660512410238598e-02
-5.9030117406840201e+00 +9.1058239065854707e+00 +0.0000000000000000e+00 -5.9030113763083696e+00 +1.1134219886271161e-02 -1.0330342120890366e+00 -5.8660959074801046e-02
-6.0030627871363000e+00 +9.1057625021075204e+00 +0.0000000000000000e+00 -6.0030624039172604e+00 +1.1134390378242638e-02 -1.0330357283433613e+00 -5.8661413829850365e-02
-6.1031138335885702e+00 +9.1057000656213205e+00 +0.0000000000000000e+00 -6.1031134308874604e+00 +1.1134557637962799e-02 -1.0330372469213285e+00 -5.8661876334989350e-02
-6.2031648800408403e+00 +9.1056365971268605e+00 +0.0000000000000000e+00 -6.2031644572083096e+00 +1.1134722221010139e-02 -1.0330387562836496e+00 -5.8662346249679580e-02
-6.3032159264931096e+00 +9.1055720966241402e+00 +0.0000000000000000e+00 -6.3032154828691800e+00 +1.1134884682824718e-02 -1.0330402448905793e+00 -5.8662823233233422e-02
-6.4032669729453797e+00 +9.1055065641149504e+00 +0.0000000000000000e+00 -6.4032665078594100e+00 +1.1135045578701765e-02 -1.0330417012018829e+00 -5.8663306944806010e-02
-6.5033180193976499e+00 +9.1054399995957205e+00 +0.0000000000000000e+00 -6.5033175321683601e+00 +1.1135205463785561e-02 -1.0330431136768232e+00 -5.8663797043388088e-02
-6.6033690658499298e+00 +9.1053724030699996e+00 +0.0000000000000000e+00 -6.6033685557853898e+00 +1.1135364893062631e-02 -1.0330444707741000e+00 -5.8664293187796819e-02
-6.7034201123021999e+00 +9.1053037745378091e+00 +0.0000000000000000e+00 -6.7034195786998501e+00 +1.1135524421355784e-02 -1.0330457609518444e+00 -5.8664795036668924e-02
-6.8034711587544701e+00 +9.1052341139955892e+00 +0.0000000000000000e+00 -6.8034706009011003e+00 +1.1135684603317743e-02 -1.0330469726675893e+00 -5.8665302248452789e-02
-6.9035222052067402e+00 +9.1051634214468908e+00 +0.0000000000000000e+00 -6.9035216223784897e+00 +1.1135845993424402e-02 -1.0330480943782150e+00 -5.8665814481399604e-02
-7.0035732516590103e+00 +9.1050916968899305e+00 +0.0000000000000000e+00 -7.0035726431213803e+00 +1.1136009145968904e-02 -1.0330491145399454e+00 -5.8666331393556495e-02
-7.1036242981112796e+00 +9.1050189403247099e+00 +0.0000000000000000e+00 -7.1036236631191203e+00 +1.1136174615055040e-02 -1.0330500216083043e+00 -5.8666852642758061e-02
-7.2036753445635497e+00 +9.1049451517530091e+00 +0.0000000000000000e+00 -7.2036746823610702e+00 +1.1136342954590877e-02 -1.0330508040380837e+00 -5.8667377886618403e-02
-7.3037263910158297e+00 +9.1048703311712806e+00 +0.0000000000000000e+00 -7.3037257008365799e+00 +1.1136514718282630e-02 -1.0330514502833292e+00 -5.8667906782523926e-02
-7.4037774374680998e+00 +9.1047944785830701e+00 +0.0000000000000000e+00 -7.4037767185350001e+00 +1.1136690459627870e-02 -1.0330519487972836e+00 -5.8668438987624187e-02
-7.5038284839203699e+00 +9.1047175939865994e+00 +0.0000000000000000e+00 -7.5038277354457001e+00 +1.1136870731898420e-02 -1.0330522880325184e+00 -5.8668974158826860e-02
-7.6038795303726401e+00 +9.1046396773836609e+00 +0.0000000000000000e+00 -7.6038787515580202e+00 +1.1137055865048545e-02 -1.0330524591557457e+00 -5.8669511986404466e-02
-7.7039305768249102e+00 +9.1045607287706805e+00 +0.0000000000000000e+00 -7.7039297668613296e+00 +1.1137245393190703e-02 -1.0330524630174511e+00 -5.8670052280400661e-02
-7.8039816232771804e+00 +9.1044807481512198e+00 +0.0000000000000000e+00 -7.8039807813449800e+00 +1.1137438673263875e-02 -1.0330523026266698e+00 -5.8670594877636421e-02
-7.9040326697294496e+00 +9.1043997355235007e+00 +0.0000000000000000e+00 -7.9040317949983097e+00 +1.1137635062427476e-02 -1.0330519809927907e+00 -5.8671139615015071e-02
-8.0040837161817304e+00 +9.1043176908892995e+00 +0.0000000000000000e+00 -8.0040828078106898e+00 +1.1137833918069062e-02 -1.0330515011255463e+00 -5.8671686329524610e-02
-8.1041347626340006e+00 +9.1042346142468507e+00 +0.0000000000000000e+00 -8.1041338197714801e+00 +1.1138034597812615e-02 -1.0330508660350366e+00 -5.8672234858241766e-02
-8.2041858090862707e+00 +9.1041505055961398e+00 +0.0000000000000000e+00 -8.2041848308700196e+00 +1.1138236459526430e-02 -1.0330500787317305e+00 -5.8672785038334778e-02
-8.3042368555385409e+00 +9.1040653649371706e+00 +0.0000000000000000e+00 -8.3042358410956805e+00 +1.1138438861331151e-02 -1.0330491422264758e+00 -5.8673336707066752e-02
-8.4042879019908092e+00 +9.1039791922699393e+00 +0.0000000000000000e+00 -8.4042868504377992e+00 +1.1138641161607891e-02 -1.0330480595305109e+00 -5.8673889701799084e-02
-8.5043389484430794e+00 +9.1038919875980202e+00 +0.0000000000000000e+00 -8.5043378588857408e+00 +1.1138842719006087e-02 -1.0330468336554639e+00 -5.8674443859994346e-02
-8.6043899948953602e+00 +9.1038037509160592e+00 +0.0000000000000000e+00 -8.6043888664288701e+00 +1.1139042892452013e-02 -1.0330454676133947e+00 -5.8674999019220860e-02
-8.7044410413476303e+00 +9.1037144822276108e+00 +0.0000000000000000e+00 -8.7044398730565202e+00 +1.1139241041156184e-02 -1.0330439644167602e+00 -5.8675555017154178e-02
-8.8044920877999004e+00 +9.1036241815309200e+00 +0.0000000000000000e+00 -8.8044908787580596e+00 +1.1139436524621911e-02 -1.0330423270784592e+00 -5.8676111691581878e-02
-8.9045431342521706e+00 +9.1035328488259601e+00 +0.0000000000000000e+00 -8.9045418835228496e+00 +1.1139628702653099e-02 -1.0330405586118234e+00 -5.8676668880406062e-02
-9.0045941807044407e+00 +9.1034404841127508e+00 +0.0000000000000000e+00 -9.0045928873402303e+00 +1.1139816935362333e-02 -1.0330386620306322e+00 -5.8677226421646952e-02
-9.1046452271567109e+00 +9.1033470873930593e+00 +0.0000000000000000e+00 -9.1046438901995597e+00 +1.1140000583178905e-02 -1.0330366403491196e+00 -5.8677784153445954e-02
-9.2046962736089899e+00 +9.1032526586651095e+00 +0.0000000000000000e+00 -9.2046948920902096e+00 +1.1140179006857018e-02 -1.0330344965819938e+00 -5.8678341914069516e-02
-9.3047473200612600e+00 +9.1031571979306793e+00 +0.0000000000000000e+00 -9.3047458930015097e+00 +1.1140351567483589e-02 -1.0330322337444304e+00 -5.8678899541911744e-02
-9.4047983665135302e+00 +9.1030607051879997e+00 +0.0000000000000000e+00 -9.4047968929228301e+00 +1.1140517626486575e-02 -1.0330298548521022e+00 -5.8679456875498470e-02
-9.5048494129658003e+00 +9.1029631804370599e+00 +0.0000000000000000e+00 -9.5048478918435304e+00 +1.1140676545670004e-02 -1.0330273629215387e+00 -5.8680013753496699e-02
-9.6049004594180705e+00 +9.1028646236796291e+00 +0.0000000000000000e+00 -9.6048988897529508e+00 +1.1140827962341738e-02 -1.0330247646902251e+00 -5.8680570082745638e-02
-9.7049515058703406e+00 +9.1027650349139595e+00 +0.0000000000000000e+00 -9.7049498866404598e+00 +1.1140972465965205e-02 -1.0330220797687140e+00 -5.8681126005532602e-02
-9.8050025523226108e+00 +9.1026644141418007e+00 +0.0000000000000000e+00 -9.8050008824953991e+00 +1.1141110851502789e-02 -1.0330193305488877e+00 -5.8681681714908389e-02
-9.9050535987748898e+00 +9.1025627613596107e+00 +0.0000000000000000e+00 -9.9050518773071392e+00 +1.1141243913590740e-02 -1.0330165394215094e+00 -5.8682237403785475e-02
-1.0005104645227201e+01 +9.1024600765709298e+00 +0.0000000000000000e+00 -1.0005102871065001e+01 +1.1141372446529059e-02 -1.0330137287761587e+00 -5.8682793264932670e-02
-1.0105155691679400e+01 +9.1023563597757793e+00 +0.0000000000000000e+00 -1.0105153863758400e+01 +1.1141497244272240e-02 -1.0330109210012235e+00 -5.8683349490972411e-02
-1.0205206738131700e+01 +9.1022516109723703e+00 +0.0000000000000000e+00 -1.0205204855376600e+01 +1.1141619100419532e-02 -1.0330081384838627e+00 -5.8683906274376647e-02
-1.0305257784584001e+01 +9.1021458301607101e+00 +0.0000000000000000e+00 -1.0305255845909100e+01 +1.1141738808205156e-02 -1.0330054036099670e+00 -5.8684463807462402e-02
-1.0405308831036200e+01 +9.1020390173425607e+00 +0.0000000000000000e+00 -1.0405306835345099e+01 +1.1141857160488653e-02 -1.0330027387641219e+00 -5.8685022282387998e-02
-1.0505359877488500e+01 +9.1019311725161600e+00 +0.0000000000000000e+00 -1.0505357823674100e+01 +1.1141974949745391e-02 -1.0330001663295878e+00 -5.8685581891149460e-02
-1.0605410923940800e+01 +9.1018222956832808e+00 +0.0000000000000000e+00 -1.0605408810885301e+01 +1.1142092968056657e-02 -1.0329977086882522e+00 -5.8686142825576028e-02
-1.0705461970393101e+01 +9.1017123868421397e+00 +0.0000000000000000e+00 -1.0705459796968199e+01 +1.1142212007100244e-02 -1.0329953882206093e+00 -5.8686705277326771e-02
-1.0805513016845300e+01 +9.1016014459927401e+00 +0.0000000000000000e+00 -1.0805510781912000e+01 +1.1142332858140589e-02 -1.0329932273057165e+00 -5.8687269437886214e-02
-1.0905564063297600e+01 +9.1014894731368603e+00 +0.0000000000000000e+00 -1.0905561765706199e+01 +1.1142456312019119e-02 -1.0329912483211594e+00 -5.8687835498560222e-02
-1.1005615109749900e+01 +9.1013764682745109e+00 +0.0000000000000000e+00 -1.1005612748340100e+01 +1.1142583159144681e-02 -1.0329894736430263e+00 -5.8688403650472551e-02
-1.1105666156202100e+01 +9.1012624314038906e+00 +0.0000000000000000e+00 -1.1105663729803000e+01 +1.1142714189483897e-02 -1.0329879256458752e+00 -5.8688974084560766e-02
-1.1205717202654400e+01 +9.1011473625250208e+00 +0.0000000000000000e+00 -1.1205714710084401e+01 +1.1142850192551339e-02 -1.0329866267026895e+00 -5.8689546991571966e-02
-1.1305768249106700e+01 +9.1010312616396707e+00 +0.0000000000000000e+00 -1.1305765689173500e+01 +1.1142991957399874e-02 -1.0329855991848476e+00 -5.8690122562058723e-02
-1.1405819295559001e+01 +9.1009141287460693e+00 +0.0000000000000000e+00 -1.1405816667059700e+01 +1.1143140272611171e-02 -1.0329848654620961e+00 -5.8690700986375730e-02
-1.1505870342011200e+01 +9.1007959638459806e+00 +0.0000000000000000e+00 -1.1505867643732399e+01 +1.1143295926230787e-02 -1.0329844479012231e+00 -5.8691282454642529e-02
-1.1605921388463500e+01 +9.1006767669376405e+00 +0.0000000000000000e+00 -1.1605918619181001e+01 +1.1143459382685053e-02 -1.0329843613359766e+00 -5.8691866965760488e-02
-1.1705972434915800e+01 +9.1005565380228095e+00 +0.0000000000000000e+00 -1.1705969593394700e+01 +1.1143630021524112e-02 -1.0329845953174119e+00 -5.8692453877386169e-02
