# field on trajectory
# s[mm] rx[mm] ry[mm] rz[mm] bx[T] by[T] bz[T]
0.0000000000000000e+00 +9.1013000000000002e+00 +0.0000000000000000e+00 +0.0000000000000000e+00 +1.1491326969186326e-02 -1.0322198301241212e+00 -5.8838312885387344e-02
1.0000000000000001e-01 +9.1012994842015349e+00 +0.0000000000000000e+00 +9.9999999998226341e-02 +1.1491390571938532e-02 -1.0322212262883119e+00 -5.8836572612393827e-02
2.0000000000000001e-01 +9.1012979368052029e+00 +0.0000000000000000e+00 +1.9999999998581075e-01 +1.1491454513562861e-02 -1.0322226535629804e+00 -5.8834857695703402e-02
3.0000000000000004e-01 +9.1012953578095797e+00 +0.0000000000000000e+00 +2.9999999995211124e-01 +1.1491518889063764e-02 -1.0322241116698807e+00 -5.8833168688730786e-02
4.0000000000000002e-01 +9.1012917472132067e+00 +0.0000000000000000e+00 +3.9999999988648577e-01 +1.1491583793441597e-02 -1.0322256003306796e+00 -5.8831506144841735e-02
5.0000000000000000e-01 +9.1012871050145971e+00 +0.0000000000000000e+00 +4.9999999977829235e-01 +1.1491649321692882e-02 -1.0322271192669530e+00 -5.8829870617350351e-02
5.9999999999999998e-01 +9.1012814312122323e+00 +0.0000000000000000e+00 +5.9999999961688877e-01 +1.1491715582588746e-02 -1.0322286684904041e+00 -5.8828262617388848e-02
6.9999999999999996e-01 +9.1012747258045668e+00 +0.0000000000000000e+00 +6.9999999939163282e-01 +1.1491782740011247e-02 -1.0322302491734761e+00 -5.8826682487526871e-02
7.9999999999999993e-01 +9.1012669887900195e+00 +0.0000000000000000e+00 +7.9999999909188246e-01 +1.1491850971621765e-02 -1.0322318627785421e+00 -5.8825130528162968e-02
8.9999999999999991e-01 +9.1012582201669794e+00 +0.0000000000000000e+00 +8.9999999870699532e-01 +1.1491920455084745e-02 -1.0322335107676017e+00 -5.8823607039656056e-02
9.9999999999999989e-01 +9.1012484199337997e+00 +0.0000000000000000e+00 +9.9999999822632901e-01 +1.1491991368069424e-02 -1.0322351946022073e+00 -5.8822112322328632e-02
1.0999999999999999e+00 +9.1012375880887983e+00 +0.0000000000000000e+00 +1.0999999976392412e+00 +1.1492063888251551e-02 -1.0322369157433955e+00 -5.8820646676469655e-02
1.2000000000000000e+00 +9.1012257246302575e+00 +0.0000000000000000e+00 +1.1999999969350894e+00 +1.1492138193315120e-02 -1.0322386756516149e+00 -5.8819210402337598e-02
1.3000000000000000e+00 +9.1012128295564185e+00 +0.0000000000000000e+00 +1.2999999961032314e+00 +1.1492214460954093e-02 -1.0322404757866559e+00 -5.8817803800163534e-02
1.4000000000000001e+00 +9.1011989028654838e+00 +0.0000000000000000e+00 +1.3999999951330242e+00 +1.1492292868874146e-02 -1.0322423176075788e+00 -5.8816427170154062e-02
1.5000000000000002e+00 +9.1011839445556149e+00 +0.0000000000000000e+00 +1.4999999940138256e+00 +1.1492373594794367e-02 -1.0322442025726439e+00 -5.8815080812494383e-02
1.6000000000000003e+00 +9.1011679546249269e+00 +0.0000000000000000e+00 +1.5999999927349926e+00 +1.1492456816449007e-02 -1.0322461321392404e+00 -5.8813765027351347e-02
1.7000000000000004e+00 +9.1011509330714961e+00 +0.0000000000000000e+00 +1.6999999912858827e+00 +1.1492542711589204e-02 -1.0322481077638157e+00 -5.8812480114876428e-02
1.8000000000000005e+00 +9.1011328798933473e+00 +0.0000000000000000e+00 +1.7999999896558532e+00 +1.1492631457984695e-02 -1.0322501309018035e+00 -5.8811226375208796e-02
1.9000000000000006e+00 +9.1011137950884624e+00 +0.0000000000000000e+00 +1.8999999878342608e+00 +1.1492723233425569e-02 -1.0322522030075536e+00 -5.8810004108478239e-02
2.0000000000000004e+00 +9.1010936786547703e+00 +0.0000000000000000e+00 +1.9999999858104629e+00 +1.1492818215723972e-02 -1.0322543255342622e+00 -5.8808813614808379e-02
2.1000000000000005e+00 +9.1010725305901534e+00 +0.0000000000000000e+00 +2.0999999835738161e+00 +1.1492916582715845e-02 -1.0322564999338977e+00 -5.8807655194319450e-02
2.2000000000000006e+00 +9.1010503508924412e+00 +0.0000000000000000e+00 +2.1999999811136779e+00 +1.1493018512262644e-02 -1.0322587276571340e+00 -5.8806529147131560e-02
2.3000000000000007e+00 +9.1010271395594078e+00 +0.0000000000000000e+00 +2.2999999784194047e+00 +1.1493124182253083e-02 -1.0322610101532756e+00 -5.8805435773367512e-02
2.4000000000000008e+00 +9.1010028965887759e+00 +0.0000000000000000e+00 +2.3999999754803532e+00 +1.1493233770604839e-02 -1.0322633488701907e+00 -5.8804375373155957e-02
2.5000000000000009e+00 +9.1009776219782097e+00 +0.0000000000000000e+00 +2.4999999722858801e+00 +1.1493347455266275e-02 -1.0322657452542356e+00 -5.8803348246634413e-02
2.6000000000000010e+00 +9.1009513157253163e+00 +0.0000000000000000e+00 +2.5999999688253421e+00 +1.1493465331613552e-02 -1.0322681996757104e+00 -5.8802354553584159e-02
2.7000000000000011e+00 +9.1009239778276481e+00 +0.0000000000000000e+00 +2.6999999650880953e+00 +1.1493587164623785e-02 -1.0322707082057574e+00 -5.8801393892318470e-02
2.8000000000000012e+00 +9.1008956082827002e+00 +0.0000000000000000e+00 +2.7999999610634965e+00 +1.1493712636664013e-02 -1.0322732658405025e+00 -5.8800465720770703e-02
2.9000000000000012e+00 +9.1008662070879200e+00 +0.0000000000000000e+00 +2.8999999567409018e+00 +1.1493841430090289e-02 -1.0322758675756802e+00 -5.8799569496860479e-02
3.0000000000000013e+00 +9.1008357742407107e+00 +0.0000000000000000e+00 +2.9999999521096674e+00 +1.1493973227245366e-02 -1.0322785084066735e+00 -5.8798704678493574e-02
3.1000000000000014e+00 +9.1008043097384359e+00 +0.0000000000000000e+00 +3.0999999471591493e+00 +1.1494107710456348e-02 -1.0322811833285659e+00 -5.8797870723562226e-02
3.2000000000000015e+00 +9.1007718135784277e+00 +0.0000000000000000e+00 +3.1999999418787035e+00 +1.1494244562032414e-02 -1.0322838873361828e+00 -5.8797067089945129e-02
3.3000000000000016e+00 +9.1007382857579859e+00 +0.0000000000000000e+00 +3.2999999362576862e+00 +1.1494383464262441e-02 -1.0322866154241397e+00 -5.8796293235507661e-02
3.4000000000000017e+00 +9.1007037262743893e+00 +0.0000000000000000e+00 +3.3999999302854529e+00 +1.1494524099412743e-02 -1.0322893625868854e+00 -5.8795548618101927e-02
3.5000000000000018e+00 +9.1006681351248968e+00 +0.0000000000000000e+00 +3.4999999239513597e+00 +1.1494666149724697e-02 -1.0322921238187499e+00 -5.8794832695566991e-02
3.6000000000000019e+00 +9.1006315123067516e+00 +0.0000000000000000e+00 +3.5999999172447619e+00 +1.1494809297412480e-02 -1.0322948941139904e+00 -5.8794144925728875e-02
3.7000000000000020e+00 +9.1005938578171897e+00 +0.0000000000000000e+00 +3.6999999101550154e+00 +1.1494953224660690e-02 -1.0322976684668352e+00 -5.8793484766400742e-02
3.8000000000000020e+00 +9.1005551716534434e+00 +0.0000000000000000e+00 +3.7999999026714755e+00 +1.1495097613622064e-02 -1.0323004418715289e+00 -5.8792851675383041e-02
3.9000000000000021e+00 +9.1005154538127471e+00 +0.0000000000000000e+00 +3.8999998947834973e+00 +1.1495242146415162e-02 -1.0323032093223810e+00 -5.8792245110463603e-02
4.0000000000000018e+00 +9.1004747042923366e+00 +0.0000000000000000e+00 +3.9999998864804365e+00 +1.1495386505122038e-02 -1.0323059658138085e+00 -5.8791664529417781e-02
4.1000000000000014e+00 +9.1004329230894641e+00 +0.0000000000000000e+00 +4.0999998777516478e+00 +1.1495530371785903e-02 -1.0323087063403846e+00 -5.8791109390008582e-02
4.2000000000000011e+00 +9.1003901102013938e+00 +0.0000000000000000e+00 +4.1999998685864872e+00 +1.1495673428408862e-02 -1.0323114258968809e+00 -5.8790579149986796e-02
4.3000000000000007e+00 +9.1003462656254150e+00 +0.0000000000000000e+00 +4.2999998589743091e+00 +1.1495815356949549e-02 -1.0323141194783172e+00 -5.8790073267091091e-02
4.4000000000000004e+00 +9.1003013893588385e+00 +0.0000000000000000e+00 +4.3999998489044687e+00 +1.1495955839320815e-02 -1.0323167820800017e+00 -5.8789591199048072e-02
4.5000000000000000e+00 +9.1002554813990102e+00 +0.0000000000000000e+00 +4.4999998383663211e+00 +1.1496094557387454e-02 -1.0323194086975831e+00 -5.8789132403572676e-02
4.5999999999999996e+00 +9.1002085417433101e+00 +0.0000000000000000e+00 +4.5999998273492206e+00 +1.1496231302553906e-02 -1.0323219943179245e+00 -5.8788696451638922e-02
4.6999999999999993e+00 +9.1001605703891588e+00 +0.0000000000000000e+00 +4.6999998158425225e+00 +1.1496366304567081e-02 -1.0323245338915903e+00 -5.8788283367330850e-02
4.7999999999999989e+00 +9.1001115673340234e+00 +0.0000000000000000e+00 +4.7999998038355809e+00 +1.1496499902802562e-02 -1.0323270223602936e+00 -5.8787893288094049e-02
4.8999999999999986e+00 +9.1000615325754239e+00 +0.0000000000000000e+00 +4.8999997913177511e+00 +1.1496632436684419e-02 -1.0323294546660848e+00 -5.8787526351478096e-02
4.9999999999999982e+00 +9.1000104661109340e+00 +0.0000000000000000e+00 +4.9999997782783874e+00 +1.1496764245688145e-02 -1.0323318257513892e+00 -5.8787182695142499e-02
5.0999999999999979e+00 +9.0999583679381910e+00 +0.0000000000000000e+00 +5.0999997647068449e+00 +1.1496895669343643e-02 -1.0323341305590441e+00 -5.8786862456862522e-02
5.1999999999999975e+00 +9.0999052380548981e+00 +0.0000000000000000e+00 +5.1999997505924780e+00 +1.1497027047238184e-02 -1.0323363640323349e+00 -5.8786565774535192e-02
5.2999999999999972e+00 +9.0998510764588278e+00 +0.0000000000000000e+00 +5.2999997359246409e+00 +1.1497158719019388e-02 -1.0323385211150313e+00 -5.8786292786185072e-02
5.3999999999999968e+00 +9.0997958831478307e+00 +0.0000000000000000e+00 +5.3999997206926880e+00 +1.1497291024398188e-02 -1.0323405967514274e+00 -5.8786043629970287e-02
5.4999999999999964e+00 +9.0997396581198391e+00 +0.0000000000000000e+00 +5.4999997048859743e+00 +1.1497424303151775e-02 -1.0323425858863737e+00 -5.8785818444188273e-02
5.5999999999999961e+00 +9.0996824013728705e+00 +0.0000000000000000e+00 +5.5999996884938543e+00 +1.1497558895126617e-02 -1.0323444834653197e+00 -5.8785617367281807e-02
5.6999999999999957e+00 +9.0996241129050368e+00 +0.0000000000000000e+00 +5.6999996715056822e+00 +1.1497695140241366e-02 -1.0323462844343452e+00 -5.8785440537844812e-02
5.7999999999999954e+00 +9.0995647927145438e+00 +0.0000000000000000e+00 +5.7999996539108123e+00 +1.1497833378489858e-02 -1.0323479837402012e+00 -5.8785288094628310e-02
5.8999999999999950e+00 +9.0995044407996986e+00 +0.0000000000000000e+00 +5.8999996356985989e+00 +1.1497973949944076e-02 -1.0323495763303452e+00 -5.8785160176546315e-02
5.9999999999999947e+00 +9.0994430571589184e+00 +0.0000000000000000e+00 +5.9999996168583971e+00 +1.1498117194757098e-02 -1.0323510571529797e+00 -5.8785056922681669e-02
6.0999999999999943e+00 +9.0993806417907290e+00 +0.0000000000000000e+00 +6.0999995973795604e+00 +1.1498263453166088e-02 -1.0323524211570869e+00 -5.8784978472292013e-02
6.1999999999999940e+00 +9.0993171946937750e+00 +0.0000000000000000e+00 +6.1999995772514440e+00 +1.1498413065495231e-02 -1.0323536632924690e+00 -5.8784924964815626e-02
6.2999999999999936e+00 +9.0992527158668217e+00 +0.0000000000000000e+00 +6.2999995564634030e+00 +1.1498566372158715e-02 -1.0323547785097817e+00 -5.8784896539877396e-02
6.3999999999999932e+00 +9.0991872053087626e+00 +0.0000000000000000e+00 +6.3999995350047909e+00 +1.1498723713663677e-02 -1.0323557617605748e+00 -5.8784893337294614e-02
6.4999999999999929e+00 +9.0991206630186223e+00 +0.0000000000000000e+00 +6.4999995128649628e+00 +1.1498885430613188e-02 -1.0323566079973274e+00 -5.8784915497082972e-02
6.5999999999999925e+00 +9.0990530889955608e+00 +0.0000000000000000e+00 +6.5999994900332739e+00 +1.1499051760681769e-02 -1.0323573147216856e+00 -5.8784963030527763e-02
6.6999999999999922e+00 +9.0989844832388798e+00 +0.0000000000000000e+00 +6.6999994664990785e+00 +1.1499222529466217e-02 -1.0323578896291865e+00 -5.8785035433256208e-02
6.7999999999999918e+00 +9.0989148457480109e+00 +0.0000000000000000e+00 +6.7999994422517318e+00 +1.1499397459458797e-02 -1.0323583429644996e+00 -5.8785132071831232e-02
6.8999999999999915e+00 +9.0988441765225083e+00 +0.0000000000000000e+00 +6.8999994172805881e+00 +1.1499576273057831e-02 -1.0323586849731685e+00 -5.8785252312652150e-02
6.9999999999999911e+00 +9.0987724755620363e+00 +0.0000000000000000e+00 +6.9999993915750025e+00 +1.1499758692563452e-02 -1.0323589259016377e+00 -5.8785395521946809e-02
7.0999999999999908e+00 +9.0986997428663603e+00 +0.0000000000000000e+00 +7.0999993651243303e+00 +1.1499944440173392e-02 -1.0323590759972825e+00 -5.8785561065763679e-02
7.1999999999999904e+00 +9.0986259784353383e+00 +0.0000000000000000e+00 +7.1999993379179266e+00 +1.1500133237978738e-02 -1.0323591455084398e+00 -5.8785748309963963e-02
7.2999999999999901e+00 +9.0985511822689062e+00 +0.0000000000000000e+00 +7.2999993099451466e+00 +1.1500324807959712e-02 -1.0323591446844349e+00 -5.8785956620213763e-02
7.3999999999999897e+00 +9.0984753543670731e+00 +0.0000000000000000e+00 +7.3999992811953454e+00 +1.1500518871981434e-02 -1.0323590837756123e+00 -5.8786185361976107e-02
7.4999999999999893e+00 +9.0983984947299064e+00 +0.0000000000000000e+00 +7.4999992516578784e+00 +1.1500715151789697e-02 -1.0323589730333629e+00 -5.8786433900503164e-02
7.5999999999999890e+00 +9.0983206033575250e+00 +0.0000000000000000e+00 +7.5999992213221006e+00 +1.1500913369006740e-02 -1.0323588227101557e+00 -5.8786701600828314e-02
7.6999999999999886e+00 +9.0982416802500872e+00 +0.0000000000000000e+00 +7.6999991901773681e+00 +1.1501113245127016e-02 -1.0323586430595644e+00 -5.8786987827758215e-02
7.7999999999999883e+00 +9.0981617254077793e+00 +0.0000000000000000e+00 +7.7999991582130352e+00 +1.1501314501512963e-02 -1.0323584443362970e+00 -5.8787291945864996e-02
7.8999999999999879e+00 +9.0980807388308058e+00 +0.0000000000000000e+00 +7.8999991254184581e+00 +1.1501516859390800e-02 -1.0323582367962256e+00 -5.8787613319478307e-02
7.9999999999999876e+00 +9.0979987205193851e+00 +0.0000000000000000e+00 +7.9999990917829917e+00 +1.1501720039846263e-02 -1.0323580306964157e+00 -5.8787951312677472e-02
8.0999999999999872e+00 +9.0979156704737285e+00 +0.0000000000000000e+00 +8.0999990572959923e+00 +1.1501923763820414e-02 -1.0323578362951513e+00 -5.8788305289283582e-02
8.1999999999999869e+00 +9.0978315886940386e+00 +0.0000000000000000e+00 +8.1999990219468142e+00 +1.1502127752105398e-02 -1.0323576638519698e+00 -5.8788674612851567e-02
8.2999999999999865e+00 +9.0977464751804966e+00 +0.0000000000000000e+00 +8.2999989857248124e+00 +1.1502331725340225e-02 -1.0323575236276841e+00 -5.8789058646662361e-02
8.3999999999999861e+00 +9.0976603299332517e+00 +0.0000000000000000e+00 +8.3999989486193432e+00 +1.1502535404006548e-02 -1.0323574258844164e+00 -5.8789456753714976e-02
8.4999999999999858e+00 +9.0975731529524086e+00 +0.0000000000000000e+00 +8.4999989106197624e+00 +1.1502738508424442e-02 -1.0323573808856246e+00 -5.8789868296718603e-02
8.5999999999999854e+00 +9.0974849442380208e+00 +0.0000000000000000e+00 +8.5999988717154245e+00 +1.1502940857903633e-02 -1.0323573969432089e+00 -5.8790292783940407e-02
8.6999999999999851e+00 +9.0973957037900810e+00 +0.0000000000000000e+00 +8.6999988318956856e+00 +1.1503142668323786e-02 -1.0323574745580986e+00 -5.8790730306935900e-02
8.7999999999999847e+00 +9.0973054316085236e+00 +0.0000000000000000e+00 +8.7999987911498998e+00 +1.1503344254845411e-02 -1.0323576122784248e+00 -5.8791181103237361e-02
8.8999999999999844e+00 +9.0972141276932188e+00 +0.0000000000000000e+00 +8.8999987494674233e+00 +1.1503545932778676e-02 -1.0323578086524674e+00 -5.8791645410531508e-02
8.9999999999999840e+00 +9.0971217920439802e+00 +0.0000000000000000e+00 +8.9999987068376104e+00 +1.1503748017588241e-02 -1.0323580622286426e+00 -5.8792123466664785e-02
9.0999999999999837e+00 +9.0970284246605644e+00 +0.0000000000000000e+00 +9.0999986632498153e+00 +1.1503950824898149e-02 -1.0323583715554963e+00 -5.8792615509648663e-02
9.1999999999999833e+00 +9.0969340255426729e+00 +0.0000000000000000e+00 +9.1999986186933942e+00 +1.1504154670496678e-02 -1.0323587351816992e+00 -5.8793121777665047e-02
9.2999999999999829e+00 +9.0968385946899524e+00 +0.0000000000000000e+00 +9.2999985731577013e+00 +1.1504359870341239e-02 -1.0323591516560380e+00 -5.8793642509071542e-02
9.3999999999999826e+00 +9.0967421321019977e+00 +0.0000000000000000e+00 +9.3999985266320927e+00 +1.1504566740563209e-02 -1.0323596195274065e+00 -5.8794177942406808e-02
9.4999999999999822e+00 +9.0966446377783505e+00 +0.0000000000000000e+00 +9.4999984791059227e+00 +1.1504775597472837e-02 -1.0323601373448026e+00 -5.8794728316395893e-02
9.5999999999999819e+00 +9.0965461117185029e+00 +0.0000000000000000e+00 +9.5999984305685455e+00 +1.1504986757564107e-02 -1.0323607036573155e+00 -5.8795293869955592e-02
9.6999999999999815e+00 +9.0964465539219006e+00 +0.0000000000000000e+00 +9.6999983810093156e+00 +1.1505200537519562e-02 -1.0323613170141244e+00 -5.8795874842199697e-02
9.7999999999999812e+00 +9.0963459643879414e+00 +0.0000000000000000e+00 +9.7999983304175871e+00 +1.1505417254215227e-02 -1.0323619759644858e+00 -5.8796471472444455e-02
9.8999999999999808e+00 +9.0962443431159787e+00 +0.0000000000000000e+00 +9.8999982787827161e+00 +1.1505637224725432e-02 -1.0323626790577272e+00 -5.8797084000213724e-02
9.9999999999999805e+00 +9.0961416901053180e+00 +0.0000000000000000e+00 +9.9999982260940552e+00 +1.1505860766327718e-02 -1.0323634248432449e+00 -5.8797712665244493e-02
1.0099999999999980e+01 +9.0960380053552274e+00 +0.0000000000000000e+00 +1.0099998172340960e+01 +1.1506088196507645e-02 -1.0323642118704888e+00 -5.8798357707492081e-02
1.0199999999999980e+01 +9.0959332888649307e+00 +0.0000000000000000e+00 +1.0199998117512786e+01 +1.1506319832963711e-02 -1.0323650386889611e+00 -5.8799019367135524e-02
1.0299999999999979e+01 +9.0958275406336124e+00 +0.0000000000000000e+00 +1.0299998061598885e+01 +1.1506555993612173e-02 -1.0323659038482051e+00 -5.8799697884582877e-02
1.0399999999999979e+01 +9.0957207606604200e+00 +0.0000000000000000e+00 +1.0399998004588612e+01 +1.1506796996591930e-02 -1.0323668058978008e+00 -5.8800393500476569e-02
1.0499999999999979e+01 +9.0956129489444635e+00 +0.0000000000000000e+00 +1.0499997946471321e+01 +1.1507043160269377e-02 -1.0323677433873559e+00 -5.8801106455698721e-02
1.0599999999999978e+01 +9.0955041054848174e+00 +0.0000000000000000e+00 +1.0599997887236366e+01 +1.1507294678618482e-02 -1.0323687148236524e+00 -5.8801836861177167e-02
1.0699999999999978e+01 +9.0953942302805224e+00 +0.0000000000000000e+00 +1.0699997826873101e+01 +1.1507551247158642e-02 -1.0323697185421434e+00 -5.8802584307090421e-02
1.0799999999999978e+01 +9.0952833233305874e+00 +0.0000000000000000e+00 +1.0799997765370881e+01 +1.1507812436560591e-02 -1.0323707528355566e+00 -5.8803348253183244e-02
1.0899999999999977e+01 +9.0951713846339910e+00 +0.0000000000000000e+00 +1.0899997702719059e+01 +1.1508077817240099e-02 -1.0323718159967485e+00 -5.8804128158933419e-02
1.0999999999999977e+01 +9.0950584141896815e+00 +0.0000000000000000e+00 +1.0999997638906988e+01 +1.1508346959351422e-02 -1.0323729063187026e+00 -5.8804923483544977e-02
1.1099999999999977e+01 +9.0949444119965825e+00 +0.0000000000000000e+00 +1.1099997573924023e+01 +1.1508619432780838e-02 -1.0323740220945234e+00 -5.8805733685941608e-02
1.1199999999999976e+01 +9.0948293780535909e+00 +0.0000000000000000e+00 +1.1199997507759518e+01 +1.1508894807140109e-02 -1.0323751616174368e+00 -5.8806558224759942e-02
1.1299999999999976e+01 +9.0947133123595805e+00 +0.0000000000000000e+00 +1.1299997440402825e+01 +1.1509172651759981e-02 -1.0323763231807794e+00 -5.8807396558342932e-02
1.1399999999999975e+01 +9.0945962149134019e+00 +0.0000000000000000e+00 +1.1399997371843298e+01 +1.1509452535683688e-02 -1.0323775050780009e+00 -5.8808248144733066e-02
1.1499999999999975e+01 +9.0944780857138880e+00 +0.0000000000000000e+00 +1.1499997302070291e+01 +1.1509734027660423e-02 -1.0323787056026557e+00 -5.8809112441665791e-02
1.1599999999999975e+01 +9.0943589247598506e+00 +0.0000000000000000e+00 +1.1599997231073157e+01 +1.1510016696138860e-02 -1.0323799230484023e+00 -5.8809988906562811e-02
1.1699999999999974e+01 +9.0942387320500870e+00 +0.0000000000000000e+00 +1.1699997158841251e+01 +1.1510300109260647e-02 -1.0323811557089970e+00 -5.8810876996525464e-02
1.1799999999999974e+01 +9.0941175075833769e+00 +0.0000000000000000e+00 +1.1799997085363923e+01 +1.1510583834853887e-02 -1.0323824018782917e+00 -5.8811776168327987e-02
