# trajectory
# s[mm] rx[mm] ry[mm] rz[mm] px[rad] py[rad] pz[rad]
0.0000000000000000e+00 +9.0449999999999999e+00 +0.0000000000000000e+00 +0.0000000000000000e+00 +0.0000000000000000e+00 +0.0000000000000000e+00 +1.0000000000000000e+00
-1.0000000000000001e-01 +9.0449994845575787e+00 +0.0000000000000000e+00 -9.9999999998228797e-02 +1.0308856272820952e-05 +0.0000000000000000e+00 +9.9999999994686373e-01
-2.0000000000000001e-01 +9.0449979382271817e+00 +0.0000000000000000e+00 -1.9999999998583029e-01 +2.0617759427392434e-05 +0.0000000000000000e+00 +9.9999999978745402e-01
-3.0000000000000004e-01 +9.0449953610041511e+00 +0.0000000000000000e+00 -2.9999999995217708e-01 +3.0926708860933095e-05 +0.0000000000000000e+00 +9.9999999952176932e-01
-4.0000000000000002e-01 +9.0449917528838863e+00 +0.0000000000000000e+00 -3.9999999988664159e-01 +4.1235703992072591e-05 +0.0000000000000000e+00 +9.9999999914980831e-01
-5.0000000000000000e-01 +9.0449871138618470e+00 +0.0000000000000000e+00 -4.9999999977859610e-01 +5.1544744260852227e-05 +0.0000000000000000e+00 +9.9999999867156963e-01
-5.9999999999999998e-01 +9.0449814439335476e+00 +0.0000000000000000e+00 -5.9999999961741279e-01 +6.1853829128725630e-05 +0.0000000000000000e+00 +9.9999999808705187e-01
-6.9999999999999996e-01 +9.0449747430945528e+00 +0.0000000000000000e+00 -6.9999999939246371e-01 +7.2162958078559418e-05 +0.0000000000000000e+00 +9.9999999739625367e-01
-7.9999999999999993e-01 +9.0449670113404785e+00 +0.0000000000000000e+00 -7.9999999909312081e-01 +8.2472130614633847e-05 +0.0000000000000000e+00 +9.9999999659917371e-01
-8.9999999999999991e-01 +9.0449582486669922e+00 +0.0000000000000000e+00 -8.9999999870875569e-01 +9.2781346262643549e-05 +0.0000000000000000e+00 +9.9999999569581077e-01
-9.9999999999999989e-01 +9.0449484550698038e+00 +0.0000000000000000e+00 -9.9999999822874008e-01 +1.0309060456969817e-04 +0.0000000000000000e+00 +9.9999999468616352e-01
-1.0999999999999999e+00 +9.0449376305446698e+00 +0.0000000000000000e+00 -1.0999999976424455e+00 +1.1339990510432312e-04 +0.0000000000000000e+00 +9.9999999357023062e-01
-1.2000000000000000e+00 +9.0449257750873890e+00 +0.0000000000000000e+00 -1.1999999969392432e+00 +1.2370924745646022e-04 +0.0000000000000000e+00 +9.9999999234801085e-01
-1.3000000000000000e+00 +9.0449128886937977e+00 +0.0000000000000000e+00 -1.2999999961085047e+00 +1.3401863123746851e-04 +0.0000000000000000e+00 +9.9999999101950299e-01
-1.4000000000000001e+00 +9.0448989713597729e+00 +0.0000000000000000e+00 -1.3999999951396009e+00 +1.4432805608012486e-04 +0.0000000000000000e+00 +9.9999998958470582e-01
-1.5000000000000002e+00 +9.0448840230812255e+00 +0.0000000000000000e+00 -1.4999999940219029e+00 +1.5463752163862474e-04 +0.0000000000000000e+00 +9.9999998804361812e-01
-1.6000000000000003e+00 +9.0448680438541000e+00 +0.0000000000000000e+00 -1.5999999927447814e+00 +1.6494702758858306e-04 +0.0000000000000000e+00 +9.9999998639623866e-01
-1.7000000000000004e+00 +9.0448510336743713e+00 +0.0000000000000000e+00 -1.6999999912976074e+00 +1.7525657362703475e-04 +0.0000000000000000e+00 +9.9999998464256634e-01
-1.8000000000000005e+00 +9.0448329925380477e+00 +0.0000000000000000e+00 -1.7999999896697514e+00 +1.8556615947243566e-04 +0.0000000000000000e+00 +9.9999998278259983e-01
-1.9000000000000006e+00 +9.0448139204411593e+00 +0.0000000000000000e+00 -1.8999999878505840e+00 +1.9587578486466317e-04 +0.0000000000000000e+00 +9.9999998081633801e-01
-2.0000000000000004e+00 +9.0447938173797642e+00 +0.0000000000000000e+00 -1.9999999858294757e+00 +2.0618544956501714e-04 +0.0000000000000000e+00 +9.9999997874377966e-01
-2.1000000000000005e+00 +9.0447726833499438e+00 +0.0000000000000000e+00 -2.0999999835957968e+00 +2.1649515335513060e-04 +0.0000000000000000e+00 +9.9999997656492368e-01
-2.2000000000000006e+00 +9.0447505183477972e+00 +0.0000000000000000e+00 -2.1999999811389173e+00 +2.2680489602498169e-04 +0.0000000000000000e+00 +9.9999997427976894e-01
-2.3000000000000007e+00 +9.0447273223694484e+00 +0.0000000000000000e+00 -2.2999999784482075e+00 +2.3711467736090521e-04 +0.0000000000000000e+00 +9.9999997188831424e-01
-2.4000000000000008e+00 +9.0447030954110428e+00 +0.0000000000000000e+00 -2.3999999755130368e+00 +2.4742449714450302e-04 +0.0000000000000000e+00 +9.9999996939055835e-01
-2.5000000000000009e+00 +9.0446778374687451e+00 +0.0000000000000000e+00 -2.4999999723227755e+00 +2.5773435515264440e-04 +0.0000000000000000e+00 +9.9999996678650027e-01
-2.6000000000000010e+00 +9.0446515485387451e+00 +0.0000000000000000e+00 -2.5999999688667934e+00 +2.6804425115746613e-04 +0.0000000000000000e+00 +9.9999996407613878e-01
-2.7000000000000011e+00 +9.0446242286172538e+00 +0.0000000000000000e+00 -2.6999999651344599e+00 +2.7835418492637291e-04 +0.0000000000000000e+00 +9.9999996125947288e-01
-2.8000000000000012e+00 +9.0445958777005089e+00 +0.0000000000000000e+00 -2.7999999611151445e+00 +2.8866415622203726e-04 +0.0000000000000000e+00 +9.9999995833650135e-01
-2.9000000000000012e+00 +9.0445664957847676e+00 +0.0000000000000000e+00 -2.8999999567982164e+00 +2.9897416480239994e-04 +0.0000000000000000e+00 +9.9999995530722319e-01
-3.0000000000000013e+00 +9.0445360828663137e+00 +0.0000000000000000e+00 -2.9999999521730452e+00 +3.0928421042066977e-04 +0.0000000000000000e+00 +9.9999995217163729e-01
-3.1000000000000014e+00 +9.0445046389414561e+00 +0.0000000000000000e+00 -3.0999999472290001e+00 +3.1959429282532375e-04 +0.0000000000000000e+00 +9.9999994892974253e-01
-3.2000000000000015e+00 +9.0444721640065300e+00 +0.0000000000000000e+00 -3.1999999419554501e+00 +3.2990441176010714e-04 +0.0000000000000000e+00 +9.9999994558153793e-01
-3.3000000000000016e+00 +9.0444386580578957e+00 +0.0000000000000000e+00 -3.2999999363417643e+00 +3.4021456696403315e-04 +0.0000000000000000e+00 +9.9999994212702237e-01
-3.4000000000000017e+00 +9.0444041210919384e+00 +0.0000000000000000e+00 -3.3999999303773110e+00 +3.5052475817138321e-04 +0.0000000000000000e+00 +9.9999993856619485e-01
-3.5000000000000018e+00 +9.0443685531050715e+00 +0.0000000000000000e+00 -3.4999999240514592e+00 +3.6083498511170649e-04 +0.0000000000000000e+00 +9.9999993489905437e-01
-3.6000000000000019e+00 +9.0443319540937352e+00 +0.0000000000000000e+00 -3.5999999173535779e+00 +3.7114524750981996e-04 +0.0000000000000000e+00 +9.9999993112559993e-01
-3.7000000000000020e+00 +9.0442943240543983e+00 +0.0000000000000000e+00 -3.6999999102730357e+00 +3.8145554508580798e-04 +0.0000000000000000e+00 +9.9999992724583064e-01
-3.8000000000000020e+00 +9.0442556629835558e+00 +0.0000000000000000e+00 -3.7999999027992004e+00 +3.9176587755502222e-04 +0.0000000000000000e+00 +9.9999992325974540e-01
-3.9000000000000021e+00 +9.0442159708777332e+00 +0.0000000000000000e+00 -3.8999998949214407e+00 +4.0207624462808121e-04 +0.0000000000000000e+00 +9.9999991916734321e-01
-4.0000000000000018e+00 +9.0441752477334862e+00 +0.0000000000000000e+00 -3.9999998866291251e+00 +4.1238664601087006e-04 +0.0000000000000000e+00 +9.9999991496862317e-01
-4.1000000000000014e+00 +9.0441334935473972e+00 +0.0000000000000000e+00 -4.0999998779116211e+00 +4.2269708140499595e-04 +0.0000000000000000e+00 +9.9999991066358440e-01
-4.2000000000000011e+00 +9.0440907083160802e+00 +0.0000000000000000e+00 -4.1999998687582973e+00 +4.3300755051280218e-04 +0.0000000000000000e+00 +9.9999990625222590e-01
-4.3000000000000007e+00 +9.0440468920361798e+00 +0.0000000000000000e+00 -4.2999998591585218e+00 +4.4331805304238174e-04 +0.0000000000000000e+00 +9.9999990173454678e-01
-4.4000000000000004e+00 +9.0440020447043672e+00 +0.0000000000000000e+00 -4.3999998491016621e+00 +4.5362858870803206e-04 +0.0000000000000000e+00 +9.9999989711054615e-01
-4.5000000000000000e+00 +9.0439561663173436e+00 +0.0000000000000000e+00 -4.4999998385770867e+00 +4.6393915723025357e-04 +0.0000000000000000e+00 +9.9999989238022313e-01
-4.5999999999999996e+00 +9.0439092568718351e+00 +0.0000000000000000e+00 -4.5999998275741625e+00 +4.7424975833574830e-04 +0.0000000000000000e+00 +9.9999988754357672e-01
-4.6999999999999993e+00 +9.0438613163645982e+00 +0.0000000000000000e+00 -4.6999998160822578e+00 +4.8456039175741843e-04 +0.0000000000000000e+00 +9.9999988260060613e-01
-4.7999999999999989e+00 +9.0438123447924141e+00 +0.0000000000000000e+00 -4.7999998040907395e+00 +4.9487105723436463e-04 +0.0000000000000000e+00 +9.9999987755131048e-01
-4.8999999999999986e+00 +9.0437623421520907e+00 +0.0000000000000000e+00 -4.8999997915889750e+00 +5.0518175451188423e-04 +0.0000000000000000e+00 +9.9999987239568888e-01
-4.9999999999999982e+00 +9.0437113084404608e+00 +0.0000000000000000e+00 -4.9999997785663322e+00 +5.1549248334146981e-04 +0.0000000000000000e+00 +9.9999986713374056e-01
-5.0999999999999979e+00 +9.0436592436543801e+00 +0.0000000000000000e+00 -5.0999997650121784e+00 +5.2580324348080716e-04 +0.0000000000000000e+00 +9.9999986176546463e-01
-5.1999999999999975e+00 +9.0436061477907295e+00 +0.0000000000000000e+00 -5.1999997509158806e+00 +5.3611403469377311e-04 +0.0000000000000000e+00 +9.9999985629086019e-01
-5.2999999999999972e+00 +9.0435520208464126e+00 +0.0000000000000000e+00 -5.2999997362668063e+00 +5.4642485675043383e-04 +0.0000000000000000e+00 +9.9999985070992647e-01
-5.3999999999999968e+00 +9.0434968628183583e+00 +0.0000000000000000e+00 -5.3999997210543222e+00 +5.5673570942704276e-04 +0.0000000000000000e+00 +9.9999984502266259e-01
-5.4999999999999964e+00 +9.0434406737035147e+00 +0.0000000000000000e+00 -5.4999997052677951e+00 +5.6704659250603813e-04 +0.0000000000000000e+00 +9.9999983922906777e-01
-5.5999999999999961e+00 +9.0433834534988513e+00 +0.0000000000000000e+00 -5.5999996888965917e+00 +5.7735750577604086e-04 +0.0000000000000000e+00 +9.9999983332914111e-01
-5.6999999999999957e+00 +9.0433252022013608e+00 +0.0000000000000000e+00 -5.6999996719300787e+00 +5.8766844903185235e-04 +0.0000000000000000e+00 +9.9999982732288184e-01
-5.7999999999999954e+00 +9.0432659198080536e+00 +0.0000000000000000e+00 -5.7999996543576238e+00 +5.9797942207445156e-04 +0.0000000000000000e+00 +9.9999982121028919e-01
-5.8999999999999950e+00 +9.0432056063159596e+00 +0.0000000000000000e+00 -5.8999996361685927e+00 +6.0829042471099309e-04 +0.0000000000000000e+00 +9.9999981499136226e-01
-5.9999999999999947e+00 +9.0431442617221300e+00 +0.0000000000000000e+00 -5.9999996173523522e+00 +6.1860145675480410e-04 +0.0000000000000000e+00 +9.9999980866610028e-01
-6.0999999999999943e+00 +9.0430818860236339e+00 +0.0000000000000000e+00 -6.0999995978982682e+00 +6.2891251802478076e-04 +0.0000000000000000e+00 +9.9999980223450247e-01
-6.1999999999999940e+00 +9.0430184792175563e+00 +0.0000000000000000e+00 -6.1999995777957082e+00 +6.3922360833877320e-04 +0.0000000000000000e+00 +9.9999979569656805e-01
-6.2999999999999936e+00 +9.0429540413010034e+00 +0.0000000000000000e+00 -6.2999995570340372e+00 +6.4953472750697275e-04 +0.0000000000000000e+00 +9.9999978905229625e-01
-6.3999999999999932e+00 +9.0428885722710994e+00 +0.0000000000000000e+00 -6.3999995356026229e+00 +6.5984587533131117e-04 +0.0000000000000000e+00 +9.9999978230168629e-01
-6.4999999999999929e+00 +9.0428220721249897e+00 +0.0000000000000000e+00 -6.4999995134908302e+00 +6.7015705160546133e-04 +0.0000000000000000e+00 +9.9999977544473750e-01
-6.5999999999999925e+00 +9.0427545408598373e+00 +0.0000000000000000e+00 -6.5999994906880257e+00 +6.8046825611483815e-04 +0.0000000000000000e+00 +9.9999976848144900e-01
-6.6999999999999922e+00 +9.0426859784728322e+00 +0.0000000000000000e+00 -6.6999994671835754e+00 +6.9077948863659915e-04 +0.0000000000000000e+00 +9.9999976141182012e-01
-6.7999999999999918e+00 +9.0426163849611836e+00 +0.0000000000000000e+00 -6.7999994429668451e+00 +7.0109074893964568e-04 +0.0000000000000000e+00 +9.9999975423585019e-01
-6.8999999999999915e+00 +9.0425457603221258e+00 +0.0000000000000000e+00 -6.8999994180272006e+00 +7.1140203678462339e-04 +0.0000000000000000e+00 +9.9999974695353855e-01
-6.9999999999999911e+00 +9.0424741045529160e+00 +0.0000000000000000e+00 -6.9999993923540078e+00 +7.2171335192392351e-04 +0.0000000000000000e+00 +9.9999973956488442e-01
-7.0999999999999908e+00 +9.0424014176508383e+00 +0.0000000000000000e+00 -7.0999993659366325e+00 +7.3202469410168385e-04 +0.0000000000000000e+00 +9.9999973206988724e-01
-7.1999999999999904e+00 +9.0423276996132032e+00 +0.0000000000000000e+00 -7.1999993387644405e+00 +7.4233606305378985e-04 +0.0000000000000000e+00 +9.9999972446854635e-01
-7.2999999999999901e+00 +9.0422529504373443e+00 +0.0000000000000000e+00 -7.2999993108267969e+00 +7.5264745850787572e-04 +0.0000000000000000e+00 +9.9999971676086108e-01
-7.3999999999999897e+00 +9.0421771701206275e+00 +0.0000000000000000e+00 -7.3999992821130673e+00 +7.6295888018332553e-04 +0.0000000000000000e+00 +9.9999970894683077e-01
-7.4999999999999893e+00 +9.0421003586604431e+00 +0.0000000000000000e+00 -7.4999992526126178e+00 +7.7327032779127476e-04 +0.0000000000000000e+00 +9.9999970102645497e-01
-7.5999999999999890e+00 +9.0420225160542138e+00 +0.0000000000000000e+00 -7.5999992223148132e+00 +7.8358180103461135e-04 +0.0000000000000000e+00 +9.9999969299973301e-01
-7.6999999999999886e+00 +9.0419436422993922e+00 +0.0000000000000000e+00 -7.6999991912090193e+00 +7.9389329960797726e-04 +0.0000000000000000e+00 +9.9999968486666435e-01
-7.7999999999999883e+00 +9.0418637373934594e+00 +0.0000000000000000e+00 -7.7999991592846012e+00 +8.0420482319776970e-04 +0.0000000000000000e+00 +9.9999967662724842e-01
-7.8999999999999879e+00 +9.0417828013339303e+00 +0.0000000000000000e+00 -7.8999991265309237e+00 +8.1451637148214284e-04 +0.0000000000000000e+00 +9.9999966828148479e-01
-7.9999999999999876e+00 +9.0417008341183518e+00 +0.0000000000000000e+00 -7.9999990929373528e+00 +8.2482794413100903e-04 +0.0000000000000000e+00 +9.9999965982937300e-01
-8.0999999999999872e+00 +9.0416178357443044e+00 +0.0000000000000000e+00 -8.0999990584932533e+00 +8.3513954080650466e-04 +0.0000000000000000e+00 +9.9999965127091250e-01
-8.1999999999999869e+00 +9.0415338062094008e+00 +0.0000000000000000e+00 -8.1999990231879902e+00 +8.4545116116809351e-04 +0.0000000000000000e+00 +9.9999964260610275e-01
-8.2999999999999865e+00 +9.0414487455112909e+00 +0.0000000000000000e+00 -8.2999989870109285e+00 +8.5576280487766965e-04 +0.0000000000000000e+00 +9.9999963383494339e-01
-8.3999999999999861e+00 +9.0413626536476581e+00 +0.0000000000000000e+00 -8.3999989499514331e+00 +8.6607447160002096e-04 +0.0000000000000000e+00 +9.9999962495743400e-01
-8.4999999999999858e+00 +9.0412755306162165e+00 +0.0000000000000000e+00 -8.4999989119988690e+00 +8.7638616100282841e-04 +0.0000000000000000e+00 +9.9999961597357412e-01
-8.5999999999999854e+00 +9.0411873764147135e+00 +0.0000000000000000e+00 -8.5999988731426029e+00 +8.8669787275666586e-04 +0.0000000000000000e+00 +9.9999960688336342e-01
-8.6999999999999851e+00 +9.0410981910409305e+00 +0.0000000000000000e+00 -8.6999988333719980e+00 +8.9700960653499946e-04 +0.0000000000000000e+00 +9.9999959768680147e-01
-8.7999999999999847e+00 +9.0410079744926826e+00 +0.0000000000000000e+00 -8.7999987926764192e+00 +9.0732136201418718e-04 +0.0000000000000000e+00 +9.9999958838388781e-01
-8.8999999999999844e+00 +9.0409167267678150e+00 +0.0000000000000000e+00 -8.8999987510452314e+00 +9.1763313887347831e-04 +0.0000000000000000e+00 +9.9999957897462211e-01
-8.9999999999999840e+00 +9.0408244478642050e+00 +0.0000000000000000e+00 -8.9999987084677997e+00 +9.2794493679501308e-04 +0.0000000000000000e+00 +9.9999956945900392e-01
-9.0999999999999837e+00 +9.0407311377797637e+00 +0.0000000000000000e+00 -9.0999986649334872e+00 +9.3825675546382187e-04 +0.0000000000000000e+00 +9.9999955983703304e-01
-9.1999999999999833e+00 +9.0406367965124304e+00 +0.0000000000000000e+00 -9.1999986204316606e+00 +9.4856859456782488e-04 +0.0000000000000000e+00 +9.9999955010870900e-01
-9.2999999999999829e+00 +9.0405414240601782e+00 +0.0000000000000000e+00 -9.2999985749516831e+00 +9.5888045379783173e-04 +0.0000000000000000e+00 +9.9999954027403148e-01
-9.3999999999999826e+00 +9.0404450204210107e+00 +0.0000000000000000e+00 -9.3999985284829215e+00 +9.6919233284754056e-04 +0.0000000000000000e+00 +9.9999953033300015e-01
-9.4999999999999822e+00 +9.0403475855929596e+00 +0.0000000000000000e+00 -9.4999984810147389e+00 +9.7950423141353782e-04 +0.0000000000000000e+00 +9.9999952028561478e-01
-9.5999999999999819e+00 +9.0402491195740886e+00 +0.0000000000000000e+00 -9.5999984325365002e+00 +9.8981614919529753e-04 +0.0000000000000000e+00 +9.9999951013187494e-01
-9.6999999999999815e+00 +9.0401496223624900e+00 +0.0000000000000000e+00 -9.6999983830375687e+00 +1.0001280858951808e-03 +0.0000000000000000e+00 +9.9999949987178038e-01
-9.7999999999999812e+00 +9.0400490939562879e+00 +0.0000000000000000e+00 -9.7999983325073110e+00 +1.0104400412184350e-03 +0.0000000000000000e+00 +9.9999948950533080e-01
-9.8999999999999808e+00 +9.0399475343536349e+00 +0.0000000000000000e+00 -9.8999982809350904e+00 +1.0207520148731934e-03 +0.0000000000000000e+00 +9.9999947903252595e-01
-9.9999999999999805e+00 +9.0398449435527120e+00 +0.0000000000000000e+00 -9.9999982283102717e+00 +1.0310640065704746e-03 +0.0000000000000000e+00 +9.9999946845336551e-01
-1.0099999999999980e+01 +9.0397413215517286e+00 +0.0000000000000000e+00 -1.0099998174622218e+01 +1.0413760160243699e-03 +0.0000000000000000e+00 +9.9999945776784926e-01
-1.0199999999999980e+01 +9.0396366683489244e+00 +0.0000000000000000e+00 -1.0199998119860297e+01 +1.0516880429541134e-03 +0.0000000000000000e+00 +9.9999944697597687e-01
-1.0299999999999979e+01 +9.0395309839425639e+00 +0.0000000000000000e+00 -1.0299998064013868e+01 +1.0620000870861554e-03 +0.0000000000000000e+00 +9.9999943607774811e-01
-1.0399999999999979e+01 +9.0394242683309418e+00 +0.0000000000000000e+00 -1.0399998007072300e+01 +1.0723121481543559e-03 +0.0000000000000000e+00 +9.9999942507316275e-01
-1.0499999999999979e+01 +9.0393165215123776e+00 +0.0000000000000000e+00 -1.0499997949024955e+01 +1.0826242258999911e-03 +0.0000000000000000e+00 +9.9999941396222058e-01
-1.0599999999999978e+01 +9.0392077434852141e+00 +0.0000000000000000e+00 -1.0599997889861198e+01 +1.0929363200717587e-03 +0.0000000000000000e+00 +9.9999940274492138e-01
-1.0699999999999978e+01 +9.0390979342478222e+00 +0.0000000000000000e+00 -1.0699997829570394e+01 +1.1032484304257842e-03 +0.0000000000000000e+00 +9.9999939142126482e-01
-1.0799999999999978e+01 +9.0389870937985961e+00 +0.0000000000000000e+00 -1.0799997768141907e+01 +1.1135605567256274e-03 +0.0000000000000000e+00 +9.9999937999125066e-01
-1.0899999999999977e+01 +9.0388752221359532e+00 +0.0000000000000000e+00 -1.0899997705565099e+01 +1.1238726987422886e-03 +0.0000000000000000e+00 +9.9999936845487869e-01
-1.0999999999999977e+01 +9.0387623192583320e+00 +0.0000000000000000e+00 -1.0999997641829337e+01 +1.1341848562542150e-03 +0.0000000000000000e+00 +9.9999935681214869e-01
-1.1099999999999977e+01 +9.0386483851641941e+00 +0.0000000000000000e+00 -1.1099997576923984e+01 +1.1444970290473079e-03 +0.0000000000000000e+00 +9.9999934506306043e-01
-1.1199999999999976e+01 +9.0385334198520209e+00 +0.0000000000000000e+00 -1.1199997510838404e+01 +1.1548092169149293e-03 +0.0000000000000000e+00 +9.9999933320761358e-01
-1.1299999999999976e+01 +9.0384174233203147e+00 +0.0000000000000000e+00 -1.1299997443561962e+01 +1.1651214196579083e-03 +0.0000000000000000e+00 +9.9999932124580804e-01
-1.1399999999999975e+01 +9.0383003955675996e+00 +0.0000000000000000e+00 -1.1399997375084020e+01 +1.1754336370845492e-03 +0.0000000000000000e+00 +9.9999930917764346e-01
-1.1499999999999975e+01 +9.0381823365924152e+00 +0.0000000000000000e+00 -1.1499997305393943e+01 +1.1857458690106382e-03 +0.0000000000000000e+00 +9.9999929700311962e-01
-1.1599999999999975e+01 +9.0380632463933210e+00 +0.0000000000000000e+00 -1.1599997234481098e+01 +1.1960581152594507e-03 +0.0000000000000000e+00 +9.9999928472223631e-01
-1.1699999999999974e+01 +9.0379431249688924e+00 +0.0000000000000000e+00 -1.1699997162334846e+01 +1.2063703756617593e-03 +0.0000000000000000e+00 +9.9999927233499331e-01
