# multipoles
# s[mm] polynom_b[n=0][T/m^n] polynom_b[n=1][T/m^n] polynom_b[n=2][T/m^n] polynom_b[n=3][T/m^n] polynom_b[n=4][T/m^n] polynom_b[n=5][T/m^n] polynom_b[n=6][T/m^n] 
+0.0000000000000000e+00 -1.0328842287549642e+00 +2.3212327953374463e+00 +2.0221072480428564e+01 -7.1493536766622765e+02 -9.4233949762565790e+03 +4.6223081992425369e+06 +1.0849996912337531e+08 
+1.0000000000000001e-01 -1.0328806944662017e+00 +2.3210166597694228e+00 +2.0225021224103003e+01 -7.1167830651473082e+02 -9.2339559352603446e+03 +4.6185092692985917e+06 +1.0679192428314646e+08 
+2.0000000000000001e-01 -1.0328771063433562e+00 +2.3207793483999013e+00 +2.0220326433088541e+01 -7.0769775465177133e+02 -8.8664269121339421e+03 +4.6103328036056897e+06 +1.0412933265768476e+08 
+3.0000000000000004e-01 -1.0328734644959541e+00 +2.3205199546094573e+00 +2.0206461713367354e+01 -7.0297081925879934e+02 -8.3105195779043843e+03 +4.5976129085576246e+06 +1.0046123276578374e+08 
+4.0000000000000002e-01 -1.0328697690335149e+00 +2.3202375718246788e+00 +2.0182900679841310e+01 -6.9747460936797120e+02 -7.5559460138954782e+03 +4.5801837066980461e+06 +9.5736666316590667e+07 
+5.0000000000000000e-01 -1.0328660200654913e+00 +2.3199312935130827e+00 +2.0149116949675616e+01 -6.9118623575880576e+02 -6.5924185953488322e+03 +4.5578793364556832e+06 +8.9904677718163371e+07 
+5.9999999999999998e-01 -1.0328622182538250e+00 +2.3196005753516205e+00 +2.0104815189497909e+01 -6.8409566054718573e+02 -5.4145136061376397e+03 +4.5306213498262055e+06 +8.2940363607099101e+07 
+6.9999999999999996e-01 -1.0328583664345328e+00 +2.3192462826546083e+00 +2.0050616931285656e+01 -6.7624308842907408e+02 -4.0360798561522497e+03 +4.4986724960707389e+06 +7.4921974281885535e+07 
+7.9999999999999993e-01 -1.0328544679781315e+00 +2.3188696235014081e+00 +1.9987371112378842e+01 -6.6768100006233249e+02 -2.4757393809265864e+03 +4.4623787550306674e+06 +6.5953291394937657e+07 
+8.9999999999999991e-01 -1.0328505262550165e+00 +2.3184718059924663e+00 +1.9915926659711307e+01 -6.5846187675158217e+02 -7.5211410631699448e+02 +4.4220861111394530e+06 +5.6138096526257217e+07 
+9.9999999999999989e-01 -1.0328465446355208e+00 +2.3180540382425949e+00 +1.9837132496370486e+01 -6.4863820013597990e+02 +1.1161740573723423e+03 +4.3781405504355868e+06 +4.5580171448564656e+07 
+1.0999999999999999e+00 -1.0328425264898591e+00 +2.3176175283759042e+00 +1.9751837532995555e+01 -6.3826245187972552e+02 +3.1105034236418624e+03 +4.3308880574495103e+06 +3.4383296912593611e+07 
+1.2000000000000000e+00 -1.0328384751880793e+00 +2.3171634845104605e+00 +1.9660890660126398e+01 -6.2738711312579505e+02 +5.2122527148100853e+03 +4.2806746109032361e+06 +2.2651251556867786e+07 
+1.3000000000000000e+00 -1.0328343941001328e+00 +2.3166931147677379e+00 +1.9565140755492262e+01 -6.1606466462416790e+02 +7.4028009621946258e+03 +4.2278461831892617e+06 +1.0487812177948253e+07 
+1.4000000000000001e+00 -1.0328302865957750e+00 +2.3162076272538723e+00 +1.9465436670906147e+01 -6.0434758605954084e+02 +9.6635277928694304e+03 +4.1727487352562305e+06 -2.0032478393921431e+06 
+1.5000000000000002e+00 -1.0328261560446128e+00 +2.3157082300571927e+00 +1.9362627235902629e+01 -5.9228835585023410e+02 +1.1975813402766480e+04 +4.1157282142237891e+06 -1.4718158608749479e+07 
+1.6000000000000003e+00 -1.0328220058160624e+00 +2.3151961312423914e+00 +1.9257561252424413e+01 -5.7993945085952498e+02 +1.4321038690752390e+04 +4.0571305505232941e+06 -2.7553154573262673e+07 
+1.7000000000000004e+00 -1.0328178392793821e+00 +2.3146725388437286e+00 +1.9151087495510726e+01 -5.6735334604709431e+02 +1.6680585295974484e+04 +3.9973016545949322e+06 -4.0404474919981271e+07 
+1.8000000000000005e+00 -1.0328136598035922e+00 +2.3141386608612500e+00 +1.9044054703680501e+01 -5.5458251424665241e+02 +1.9035835810701312e+04 +3.9365874144302332e+06 -5.3168364776014604e+07 
+1.9000000000000006e+00 -1.0328094707574946e+00 +2.3135957052469824e+00 +1.8937311579840681e+01 -5.4167942562178030e+02 +2.1368173801381294e+04 +3.8753336911500841e+06 -6.5741075515091516e+07 
+2.0000000000000004e+00 -1.0328052755096802e+00 +2.3130448799066019e+00 +1.8831706789443604e+01 -5.2869654759221271e+02 +2.3658983893251720e+04 +3.8138863173971740e+06 -7.8018865395236745e+07 
+2.1000000000000005e+00 -1.0328010774284526e+00 +2.3124873926924705e+00 +1.8728088950912202e+01 -5.1568634449535853e+02 +2.5889651985058121e+04 +3.7525910941257682e+06 -8.9898000771708190e+07 
+2.2000000000000006e+00 -1.0327968798819203e+00 +2.3119244513898001e+00 +1.8627306645772062e+01 -5.0270127707370358e+02 +2.8041565089039104e+04 +3.6917937864613226e+06 -1.0127475552367008e+08 
+2.3000000000000007e+00 -1.0327926862378587e+00 +2.3113572637201854e+00 +1.8530208399127755e+01 -4.8979380240805222e+02 +3.0096111755609643e+04 +3.6318401219933373e+06 -1.1204541332442829e+08 
+2.4000000000000008e+00 -1.0327884998638202e+00 +2.3107870373278421e+00 +1.8437642692927724e+01 -4.7701637342679095e+02 +3.2034681848544755e+04 +3.5730757868125392e+06 -1.2210626674422668e+08 
+2.5000000000000009e+00 -1.0327843241270118e+00 +2.3102149797691998e+00 +1.8350457947734558e+01 -4.6442143833710679e+02 +3.3838666958706803e+04 +3.5158464201585534e+06 -1.3135361955986720e+08 
+2.6000000000000010e+00 -1.0327801618248322e+00 +2.3096425080963461e+00 +1.8269393181457655e+01 -4.5205857377850447e+02 +3.5492156230783061e+04 +3.4604496766969794e+06 -1.3970119583366105e+08 
+2.7000000000000011e+00 -1.0327760135787425e+00 +2.3090719998253371e+00 +1.8194757493259406e+01 -4.3997101496825593e+02 +3.6989662438722145e+04 +3.4070355982244927e+06 -1.4712960963200209e+08 
+2.8000000000000012e+00 -1.0327718794906582e+00 +2.3085061019688067e+00 +1.8126753968762582e+01 -4.2820162547391823e+02 +3.8328227428862330e+04 +3.3557278189720125e+06 -1.5363561107916951e+08 
+2.9000000000000012e+00 -1.0327677596625724e+00 +2.3079474613925268e+00 +1.8065585670092727e+01 -4.1679326290358216e+02 +3.9504893974451028e+04 +3.3066499321498172e+06 -1.5921595643614310e+08 
+3.0000000000000013e+00 -1.0327636541966603e+00 +2.3073987248251404e+00 +1.8011455647799867e+01 -4.0578877915367593e+02 +4.0516705558062436e+04 +3.2599254913747134e+06 -1.6386740704454589e+08 
+3.1000000000000014e+00 -1.0327595631951858e+00 +2.3068625388304342e+00 +1.7964566927097898e+01 -3.9523101952598529e+02 +4.1360706659337855e+04 +3.2156780056603616e+06 -1.6758673075465098e+08 
+3.2000000000000015e+00 -1.0327554867606967e+00 +2.3063415498099831e+00 +1.7925122529075860e+01 -3.8516282275558939e+02 +4.2033942372703197e+04 +3.1740309397967141e+06 -1.7037070014103070e+08 
+3.3000000000000016e+00 -1.0327514249958669e+00 +2.3058384039895348e+00 +1.7893325450136967e+01 -3.7562702054527608e+02 +4.2533458814569931e+04 +3.1351077117836904e+06 -1.7221609447222602e+08 
+3.4000000000000017e+00 -1.0327473780036751e+00 +2.3053557474083473e+00 +1.7869378681273464e+01 -3.6666643721586905e+02 +4.2856302781731421e+04 +3.0990316910384009e+06 -1.7311969813209030e+08 
+3.5000000000000018e+00 -1.0327433458873361e+00 +2.3048962259136712e+00 +1.7853485197460557e+01 -3.5832388948241208e+02 +4.2999521973136478e+04 +3.0659261972567104e+06 -1.7307830171652561e+08 
+3.6000000000000019e+00 -1.0327393287503221e+00 +2.3044624851510935e+00 +1.7845847957934364e+01 -3.5064218611455772e+02 +4.2960165006408606e+04 +3.0359144986316040e+06 -1.7208870214948216e+08 
+3.7000000000000020e+00 -1.0327353266965031e+00 +2.3040571705533734e+00 +1.7846669922127710e+01 -3.4366412755550465e+02 +4.2735281130640404e+04 +3.0091198098087194e+06 -1.7014770134650275e+08 
+3.8000000000000020e+00 -1.0327313398300051e+00 +2.3036829273329764e+00 +1.7856154029344189e+01 -3.3743250565132126e+02 +4.2321920640723656e+04 +2.9856652905224287e+06 -1.6725210824466404e+08 
+3.9000000000000021e+00 -1.0327273682553775e+00 +2.3033424004724399e+00 +1.7874503217569217e+01 -3.3199010331549124e+02 +4.1717134532882839e+04 +2.9656740438292399e+06 -1.6339873717776310e+08 
+4.0000000000000018e+00 -1.0327234120775350e+00 +2.3030382347167300e+00 +1.7901920413781426e+01 -3.2737969424122144e+02 +4.0917974718522666e+04 +2.9492691145965103e+06 -1.5858440896360332e+08 
+4.1000000000000014e+00 -1.0327194714018140e+00 +2.3027730745601516e+00 +1.7938608539165973e+01 -3.2364404248145132e+02 +3.9921493939019514e+04 +2.9365734873042149e+06 -1.5280595051529577e+08 
+4.2000000000000011e+00 -1.0327155463339732e+00 +2.3025495642417830e+00 +1.7984770506768005e+01 -3.2082590224079422e+02 +3.8724745834020818e+04 +2.9277100849591088e+06 -1.4606019521484891e+08 
+4.3000000000000007e+00 -1.0327116369802907e+00 +2.3023703477351352e+00 +1.8040609231494457e+01 -3.1896801753105677e+02 +3.7324784770658385e+04 +2.9228017673253822e+06 -1.3834398213457400e+08 
+4.4000000000000004e+00 -1.0327077434474849e+00 +2.3022380687382067e+00 +1.8106327618339350e+01 -3.1811312181966326e+02 +3.5718666089067898e+04 +2.9219713290486964e+06 -1.2965415725028452e+08 
+4.5000000000000000e+00 -1.0327038658428040e+00 +2.3021553706467293e+00 +1.8182128567517594e+01 -3.1830393740991815e+02 +3.3903446032010179e+04 +2.9253414987252480e+06 -1.1998757297425823e+08 
+4.5999999999999996e+00 -1.0327000043932386e+00 +2.3021240238983585e+00 +1.8268058991604043e+01 -3.1956579160848867e+02 +3.1879396101963812e+04 +2.9329715725028976e+06 -1.0935505606442392e+08 
+4.6999999999999993e+00 -1.0326961601384725e+00 +2.3021425071043171e+00 +1.8363636603880497e+01 -3.2185802324453476e+02 +2.9657739718827754e+04 +2.9446739072245611e+06 -9.7815055067585632e+07 
+4.7999999999999989e+00 -1.0326923343986691e+00 +2.3022085196292839e+00 +1.8468268958934484e+01 -3.2512423919204394e+02 +2.7251990917112729e+04 +2.9602005472583920e+06 -8.5435968411610693e+07 
+4.8999999999999986e+00 -1.0326885284942557e+00 +2.3023197609344312e+00 +1.8581363672081341e+01 -3.2930805140612955e+02 +2.4675661987981417e+04 +2.9793035793719082e+06 -7.2286183646606579e+07 
+4.9999999999999982e+00 -1.0326847437459388e+00 +2.3024739305906841e+00 +1.8702328424734326e+01 -3.3435307751901888e+02 +2.1942263324640982e+04 +3.0017351369812326e+06 -5.8434076482027560e+07 
+5.0999999999999979e+00 -1.0326809814747027e+00 +2.3026687282878462e+00 +1.8830570966816115e+01 -3.4020294129212800e+02 +1.9065303325132212e+04 +3.0272474037133362e+06 -4.3948010114003994e+07 
+5.1999999999999975e+00 -1.0326772430018061e+00 +2.3029018538558339e+00 +1.8965499119103466e+01 -3.4680127342627191e+02 +1.6058288297154462e+04 +3.0555926190738287e+06 -2.8896334567701571e+07 
+5.2999999999999972e+00 -1.0326735296487948e+00 +2.3031710072688596e+00 +1.9106520777502869e+01 -3.5409171190368158e+02 +1.2934722326177351e+04 +3.0865230814408185e+06 -1.3347385860741852e+07 
+5.3999999999999968e+00 -1.0326698427375072e+00 +2.3034738886587944e+00 +1.9253043917826417e+01 -3.6201790254681674e+02 +9.7081071228425590e+03 +3.1197911522147222e+06 +2.6305149610879049e+06 
+5.4999999999999964e+00 -1.0326661835900859e+00 +2.3038081983299925e+00 +1.9404476599323782e+01 -3.7052349967723558e+02 +6.3919419135805792e+03 +3.1551492606838029e+06 +1.8969062523708485e+07 
+5.5999999999999961e+00 -1.0326625535289915e+00 +2.3041716367665357e+00 +1.9560226969667365e+01 -3.7955216648463124e+02 +2.9997232845874801e+03 +3.1923499070246965e+06 +3.5599968109931171e+07 
+5.6999999999999957e+00 -1.0326589538770137e+00 +2.3045619046474677e+00 +1.9719703269365546e+01 -3.8904757570179265e+02 -4.5505494910687935e+02 +3.2311456672711731e+06 +5.2454960474135585e+07 
+5.7999999999999954e+00 -1.0326553859571934e+00 +2.3049767028566843e+00 +1.9882313824849607e+01 -3.9895341006770167e+02 -3.9589016669554467e+03 +3.2712891969214277e+06 +6.9465785698246390e+07 
+5.8999999999999950e+00 -1.0326518510930200e+00 +2.3054137324981774e+00 +2.0047467076739991e+01 -4.0921336298791056e+02 -7.4983290372487581e+03 +3.3125332357771434e+06 +8.6564210243822321e+07 
+5.9999999999999947e+00 -1.0326483506082340e+00 +2.3058706949044181e+00 +2.0214571557262378e+01 -4.1977113895519869e+02 -1.1059852132903163e+04 +3.3546306112939981e+06 +1.0368201931523518e+08 
+6.0999999999999943e+00 -1.0326448858269643e+00 +2.3063452916504947e+00 +2.0383035911066258e+01 -4.3057045416297871e+02 -1.4629989385463930e+04 +3.3973342431192314e+06 +1.2075101924789964e+08 
+6.1999999999999940e+00 -1.0326414580736771e+00 +2.3068352245615285e+00 +2.0552268891530780e+01 -4.4155503693636882e+02 -1.8195262567140835e+04 +3.4403971466085194e+06 +1.3770303763582996e+08 
+6.2999999999999936e+00 -1.0326380686732044e+00 +2.3073381957318535e+00 +2.0721679367830365e+01 -4.5266862845810272e+02 -2.1742196977447464e+04 +3.4835724379193569e+06 +1.5446992442675278e+08 
+6.3999999999999932e+00 -1.0326347189507599e+00 +2.3078519075317341e+00 +2.0890676329111351e+01 -4.6385498317685222e+02 -2.5257321574769136e+04 +3.5266133373847012e+06 +1.7098355276499626e+08 
+6.4999999999999929e+00 -1.0326314102320406e+00 +2.3083740626801519e+00 +2.1058668907642584e+01 -4.7505787189495646e+02 -2.8727169612207021e+04 +3.5692731914793020e+06 +1.8717582278086400e+08 
+6.5999999999999925e+00 -1.0326281428775383e+00 +2.3089021203914957e+00 +2.1225069546370836e+01 -4.8621990671896424e+02 -3.2139075946222685e+04 +3.6113108928099973e+06 +2.0298484543453419e+08 
+6.6999999999999922e+00 -1.0326249130306544e+00 +2.3094323665551282e+00 +2.1389274953113720e+01 -4.9727183932634722e+02 -3.5482722553962252e+04 +3.6524560750489389e+06 +2.1836856778676730e+08 
+6.7999999999999918e+00 -1.0326217157005797e+00 +2.3099607479215716e+00 +2.1550672998711175e+01 -5.0813987317432077e+02 -3.8748226244014819e+04 +3.6924196265759021e+06 +2.3328903244038647e+08 
+6.8999999999999915e+00 -1.0326185458952590e+00 +2.3104832115083673e+00 +2.1708651472318703e+01 -5.1875022028902458e+02 -4.1925702994727908e+04 +3.7309124821416475e+06 +2.4770827995742753e+08 
+6.9999999999999911e+00 -1.0326153986213564e+00 +2.3109957046170835e+00 +2.1862598077511212e+01 -5.2902910183213862e+02 -4.5005267881128297e+04 +3.7676456282516029e+06 +2.6158834829456416e+08 
+7.0999999999999908e+00 -1.0326122688842558e+00 +2.3114941748396656e+00 +2.2011900435091249e+01 -5.3890274831420925e+02 -4.7977035153453064e+04 +3.8023301042685723e+06 +2.7489127322230244e+08 
+7.1999999999999904e+00 -1.0326091516879383e+00 +2.3119745700747769e+00 +2.2155946070290739e+01 -5.4829740005077667e+02 -5.0831118010809994e+04 +3.8346770047594421e+06 +2.8757908726769978e+08 
+7.2999999999999901e+00 -1.0326060420349807e+00 +2.3124328385329171e+00 +2.2294122414574780e+01 -5.5713930734837766e+02 -5.3557628654930042e+04 +3.8643974804596114e+06 +2.9961382000003016e+08 
+7.3999999999999897e+00 -1.0326029349265222e+00 +2.3128649287471394e+00 +2.2425816804010385e+01 -5.6535473079881262e+02 -5.6146678276792300e+04 +3.8912027397016846e+06 +3.1095749799037480e+08 
+7.4999999999999893e+00 -1.0325998253621425e+00 +2.3132667895811365e+00 +2.2550416467387009e+01 -5.7286994152462091e+02 -5.8588376856500407e+04 +3.9148040496297511e+06 +3.2157214390278441e+08 
+7.5999999999999890e+00 -1.0325967083398764e+00 +2.3136343702440438e+00 +2.2667308529078962e+01 -5.7961122163183916e+02 -6.0872833228613985e+04 +3.9349127386657433e+06 +3.3141977681364566e+08 
+7.6999999999999886e+00 -1.0325935788561096e+00 +2.3139636202953402e+00 +2.2775879999134929e+01 -5.8550486433841763e+02 -6.2990154917133492e+04 +3.9512401969831991e+06 +3.4046241146096712e+08 
+7.7999999999999883e+00 -1.0325904319056192e+00 +2.3142504896552367e+00 +2.2875517781799449e+01 -5.9047717429488478e+02 -6.4930448324600657e+04 +3.9634978781936332e+06 +3.4866205919942516e+08 
+7.8999999999999879e+00 -1.0325872624813941e+00 +2.3144909286179258e+00 +2.2965608653245070e+01 -5.9445446797820614e+02 -6.6683818312084622e+04 +3.9713973014150388e+06 +3.5598072598101205e+08 
+7.9999999999999876e+00 -1.0325840655747103e+00 +2.3146808878530387e+00 +2.3045539275366611e+01 -5.9736307372727867e+02 -6.8240368492140347e+04 +3.9746500512355743e+06 +3.6238041380859882e+08 
+8.0999999999999872e+00 -1.0325808361749835e+00 +2.3148163184270945e+00 +2.3114696179310609e+01 -5.9912933238767459e+02 -6.9590200935253568e+04 +3.9729677812876613e+06 +3.6782311936999631e+08 
+8.1999999999999869e+00 -1.0325775692697901e+00 +2.3148931718055015e+00 +2.3172465770109309e+01 -5.9967959736519140e+02 -7.0723416272887218e+04 +3.9660622143058940e+06 +3.7227083454411012e+08 
+8.2999999999999865e+00 -1.0325742598447671e+00 +2.3149073998618075e+00 +2.3218234317059000e+01 -5.9894023491280416e+02 -7.1630113534688891e+04 +3.9536451436159592e+06 +3.7568554565200561e+08 
+8.3999999999999861e+00 -1.0325709028835655e+00 +2.3148549548903197e+00 +2.3251387949919057e+01 -5.9683762449467440e+02 -7.2300390098016796e+04 +3.9354284350132262e+06 +3.7802923325893414e+08 
+8.4999999999999858e+00 -1.0325674933679445e+00 +2.3147317896898998e+00 +2.3271312691403384e+01 -5.9329815938492425e+02 -7.2724342267422122e+04 +3.9111240138174514e+06 +3.7926387363385957e+08 
+8.5999999999999854e+00 -1.0325640283497033e+00 +2.3145354984757747e+00 +2.3277651661608751e+01 -5.8828029541482977e+02 -7.2896537416088206e+04 +3.8805725429502921e+06 +3.7937018262423170e+08 
+8.6999999999999851e+00 -1.0325605130080444e+00 +2.3142699911681786e+00 +2.3270885114960805e+01 -5.8186686957489746e+02 -7.2825655753111452e+04 +3.8441280774679994e+06 +3.7838804545182931e+08 
+8.7999999999999847e+00 -1.0325569545241060e+00 +2.3139407197891679e+00 +2.3251657228422431e+01 -5.7417126470496157e+02 -7.2523006241368435e+04 +3.8022729375849301e+06 +3.7636831900038242e+08 
+8.8999999999999844e+00 -1.0325533600804722e+00 +2.3135531362455879e+00 +2.3220612246671127e+01 -5.6530685986250103e+02 -7.1999897850360416e+04 +3.7554894165591234e+06 +3.7336185671455330e+08 
+8.9999999999999840e+00 -1.0325497368612273e+00 +2.3131126922884526e+00 +2.3178394494787156e+01 -5.5538702980603910e+02 -7.1267639748270405e+04 +3.7042597828605790e+06 +3.6941950899907905e+08 
+9.0999999999999837e+00 -1.0325460920520362e+00 +2.3126248394992239e+00 +2.3125648384873614e+01 -5.4452514455948619e+02 -7.0337541387871024e+04 +3.6490662775319256e+06 +3.6459212350761473e+08 
+9.1999999999999833e+00 -1.0325424328401367e+00 +2.3120950292803570e+00 +2.3063018411383485e+01 -5.3283456915246109e+02 -6.9220912367423138e+04 +3.5903911127049290e+06 +3.5893054432723457e+08 
+9.2999999999999829e+00 -1.0325387664145023e+00 +2.3115287128522861e+00 +2.2991149167135795e+01 -5.2042866350557858e+02 -6.7929062683286815e+04 +3.5287164708462800e+06 +3.5248561302449602e+08 
+9.3999999999999826e+00 -1.0325350999657688e+00 +2.3109313412473829e+00 +2.2910685331425697e+01 -5.0742078224580649e+02 -6.6473302471104980e+04 +3.4645245036450285e+06 +3.4530816731510371e+08 
+9.4999999999999822e+00 -1.0325314406863855e+00 +2.3103083652881264e+00 +2.2822271683774936e+01 -4.9392427404843914e+02 -6.4864942205623680e+04 +3.3982973281057449e+06 +3.3744904183048868e+08 
+9.5999999999999819e+00 -1.0325277957705861e+00 +2.3096652355994953e+00 +2.2726553097757012e+01 -4.8005248200119570e+02 -6.3115292547192432e+04 +3.3305170286656148e+06 +3.2895906727572632e+08 
+9.6999999999999815e+00 -1.0325241724145076e+00 +2.3090074025868210e+00 +2.2624174551239271e+01 -4.6591874292161077e+02 -6.1235664483904729e+04 +3.2616656531022489e+06 +3.1988907094788903e+08 
+9.7999999999999812e+00 -1.0325205778162074e+00 +2.3083403164360190e+00 +2.2515781125040103e+01 -4.5163638738637383e+02 -5.9237369262459855e+04 +3.1922252127588894e+06 +3.1028987627753001e+08 
+9.8999999999999808e+00 -1.0325170191757114e+00 +2.3076694271011613e+00 +2.2402018005031231e+01 -4.3731873932441113e+02 -5.7131718380072489e+04 +3.1226776800347450e+06 +3.0021230264273143e+08 
+9.9999999999999805e+00 -1.0325135036950841e+00 +2.3070001842960810e+00 +2.2283530487493408e+01 -4.2307911577463108e+02 -5.4930023641324602e+04 +3.0535049869688493e+06 +2.8970716550504863e+08 
+1.0099999999999980e+01 -1.0325100385784762e+00 +2.3063380374973850e+00 +2.2160963981218352e+01 -4.0903082696311509e+02 -5.2643597152353701e+04 +2.9851890256534647e+06 +2.7882527624201483e+08 
