# field on trajectory
# s[mm] rx[mm] ry[mm] rz[mm] bx[T] by[T] bz[T]
0.0000000000000000e+00 +9.1076201166355002e+00 +0.0000000000000000e+00 +0.0000000000000000e+00 +1.0818018310813710e-02 -1.0325643674608791e+00 -5.9209104910943097e-02
1.0005104645227200e-01 +9.1076196006322601e+00 +0.0000000000000000e+00 +1.0005104645049701e-01 +1.0817858168610410e-02 -1.0325687653625633e+00 -5.9208164436479152e-02
2.0010209290454301e-01 +9.1076180526189905e+00 +0.0000000000000000e+00 +2.0010209289035000e-01 +1.0817711494325087e-02 -1.0325732123863016e+00 -5.9207224751763189e-02
3.0015313935681498e-01 +9.1076154725992300e+00 +0.0000000000000000e+00 +3.0015313930891202e-01 +1.0817581067330898e-02 -1.0325777053340577e+00 -5.9206286832984928e-02
4.0020418580908601e-01 +9.1076118605712200e+00 +0.0000000000000000e+00 +4.0020418569554000e-01 +1.0817469667044851e-02 -1.0325822410072727e+00 -5.9205351656372182e-02
5.0025523226135804e-01 +9.1076072165331805e+00 +0.0000000000000000e+00 +5.0025523203958799e-01 +1.0817380072935555e-02 -1.0325868162067191e+00 -5.9204420198195919e-02
6.0030627871362996e-01 +9.1076015404886608e+00 +0.0000000000000000e+00 +6.0030627833041095e-01 +1.0817314198009175e-02 -1.0325914276324484e+00 -5.9203493264510597e-02
7.0035732516590099e-01 +9.1075948324376501e+00 +0.0000000000000000e+00 +7.0035732455736299e-01 +1.0817270515663165e-02 -1.0325960715871048e+00 -5.9202570985554481e-02
8.0040837161817302e-01 +9.1075870923766207e+00 +0.0000000000000000e+00 +8.0040837070980198e-01 +1.0817246645965442e-02 -1.0326007442743153e+00 -5.9201653323937030e-02
9.0045941807044405e-01 +9.1075783203073204e+00 +0.0000000000000000e+00 +9.0045941677707997e-01 +1.0817240209003079e-02 -1.0326054418971142e+00 -5.9200740242317779e-02
1.0005104645227201e+00 +9.1075685162297706e+00 +0.0000000000000000e+00 +1.0005104627485499e+00 +1.0817248824874505e-02 -1.0326101606579783e+00 -5.9199831703408881e-02
1.1005615109749900e+00 +9.1075576801457405e+00 +0.0000000000000000e+00 +1.1005615086135800e+00 +1.0817270113681313e-02 -1.0326148967588409e+00 -5.9198927669976753e-02
1.2006125574272599e+00 +9.1075458120516792e+00 +0.0000000000000000e+00 +1.2006125543615100e+00 +1.0817301695520474e-02 -1.0326196464011321e+00 -5.9198028104844612e-02
1.3006636038795301e+00 +9.1075329119511395e+00 +0.0000000000000000e+00 +1.3006635999817000e+00 +1.0817341190475796e-02 -1.0326244057857639e+00 -5.9197132970892935e-02
1.4007146503318000e+00 +9.1075189798405596e+00 +0.0000000000000000e+00 +1.4007146454635000e+00 +1.0817386218610425e-02 -1.0326291711131910e+00 -5.9196242231062936e-02
1.5007656967840699e+00 +9.1075040157234994e+00 +0.0000000000000000e+00 +1.5007656907962801e+00 +1.0817434399958243e-02 -1.0326339385833969e+00 -5.9195355848356959e-02
1.6008167432363500e+00 +9.1074880195981898e+00 +0.0000000000000000e+00 +1.6008167359693799e+00 +1.0817483354516268e-02 -1.0326387043959411e+00 -5.9194473785841493e-02
1.7008677896886200e+00 +9.1074709914646199e+00 +0.0000000000000000e+00 +1.7008677809721600e+00 +1.0817530702236351e-02 -1.0326434647499692e+00 -5.9193596006648433e-02
1.8009188361408901e+00 +9.1074529313228005e+00 +0.0000000000000000e+00 +1.8009188257939699e+00 +1.0817574063017178e-02 -1.0326482158442301e+00 -5.9192722473976972e-02
1.9009698825931600e+00 +9.1074338391727103e+00 +0.0000000000000000e+00 +1.9009698704241800e+00 +1.0817611056696217e-02 -1.0326529538771054e+00 -5.9191853151095659e-02
2.0010209290454299e+00 +9.1074137150161505e+00 +0.0000000000000000e+00 +2.0010209148521301e+00 +1.0817639303041610e-02 -1.0326576750466205e+00 -5.9190988001343932e-02
2.1010719754977001e+00 +9.1073925588495506e+00 +0.0000000000000000e+00 +2.1010719590671898e+00 +1.0817656421744376e-02 -1.0326623755504849e+00 -5.9190126988134716e-02
2.2011230219499698e+00 +9.1073703706746993e+00 +0.0000000000000000e+00 +2.2011230030586999e+00 +1.0817660032409984e-02 -1.0326670515860870e+00 -5.9189270074955273e-02
2.3011740684022501e+00 +9.1073471504933696e+00 +0.0000000000000000e+00 +2.3011740468160200e+00 +1.0817647754550479e-02 -1.0326716993505272e+00 -5.9188417225369570e-02
2.4012251148545198e+00 +9.1073228983037797e+00 +0.0000000000000000e+00 +2.4012250903285000e+00 +1.0817617207576589e-02 -1.0326763150406506e+00 -5.9187568403020439e-02
2.5012761613067900e+00 +9.1072976141041497e+00 +0.0000000000000000e+00 +2.5012761335854998e+00 +1.0817566010791108e-02 -1.0326808948530575e+00 -5.9186723571631274e-02
2.6013272077590601e+00 +9.1072712978980501e+00 +0.0000000000000000e+00 +2.6013271765763899e+00 +1.0817492563740589e-02 -1.0326854362914970e+00 -5.9185882752025167e-02
2.7013782542113298e+00 +9.1072439496836903e+00 +0.0000000000000000e+00 +2.7013782192905000e+00 +1.0817398270185102e-02 -1.0326899418926094e+00 -5.9185046184608146e-02
2.8014293006636000e+00 +9.1072155694610704e+00 +0.0000000000000000e+00 +2.8014292617172001e+00 +1.0817285256778076e-02 -1.0326944154034303e+00 -5.9184214162652370e-02
2.9014803471158799e+00 +9.1071861572302009e+00 +0.0000000000000000e+00 +2.9014803038458301e+00 +1.0817155650213663e-02 -1.0326988605702616e+00 -5.9183386979474249e-02
3.0015313935681500e+00 +9.1071557129910694e+00 +0.0000000000000000e+00 +3.0015313456657702e+00 +1.0817011577233910e-02 -1.0327032811386436e+00 -5.9182564928432643e-02
3.1015824400204202e+00 +9.1071242367454595e+00 +0.0000000000000000e+00 +3.1015823871663502e+00 +1.0816855164635795e-02 -1.0327076808533249e+00 -5.9181748302926933e-02
3.2016334864726899e+00 +9.1070917284915893e+00 +0.0000000000000000e+00 +3.2016334283369399e+00 +1.0816688539278611e-02 -1.0327120634582490e+00 -5.9180937396395759e-02
3.3016845329249600e+00 +9.1070581882277004e+00 +0.0000000000000000e+00 +3.3016844691668901e+00 +1.0816513828090912e-02 -1.0327164326965159e+00 -5.9180132502314804e-02
3.4017355793772301e+00 +9.1070236159573206e+00 +0.0000000000000000e+00 +3.4017355096455599e+00 +1.0816333158077472e-02 -1.0327207923103470e+00 -5.9179333914194658e-02
3.5017866258295101e+00 +9.1069880116786806e+00 +0.0000000000000000e+00 +3.5017865497623002e+00 +1.0816148656326836e-02 -1.0327251460410805e+00 -5.9178541925579961e-02
3.6018376722817802e+00 +9.1069513753917892e+00 +0.0000000000000000e+00 +3.6018375895064700e+00 +1.0815962450018129e-02 -1.0327294976291286e+00 -5.9177756830046988e-02
3.7018887187340499e+00 +9.1069137070966395e+00 +0.0000000000000000e+00 +3.7018886288674100e+00 +1.0815776666428302e-02 -1.0327338508139567e+00 -5.9176978921202023e-02
3.8019397651863200e+00 +9.1068750067950095e+00 +0.0000000000000000e+00 +3.8019396678344899e+00 +1.0815593432939143e-02 -1.0327382093340485e+00 -5.9176208492679357e-02
3.9019908116385902e+00 +9.1068352744833394e+00 +0.0000000000000000e+00 +3.9019907063970600e+00 +1.0815414877044701e-02 -1.0327425769268999e+00 -5.9175445838140245e-02
4.0020418580908599e+00 +9.1067945101634198e+00 +0.0000000000000000e+00 +4.0020417445444796e+00 +1.0815243126357989e-02 -1.0327469573289656e+00 -5.9174691251270166e-02
4.1020929045431300e+00 +9.1067527138370199e+00 +0.0000000000000000e+00 +4.1020927822660997e+00 +1.0815080308618280e-02 -1.0327513542756432e+00 -5.9173945025777358e-02
4.2021439509954099e+00 +9.1067098855023705e+00 +0.0000000000000000e+00 +4.2021438195512797e+00 +1.0814928551698390e-02 -1.0327557715012583e+00 -5.9173207455391563e-02
4.3021949974476801e+00 +9.1066660251594502e+00 +0.0000000000000000e+00 +4.3021948563893604e+00 +1.0814789983611557e-02 -1.0327602127390212e+00 -5.9172478833861633e-02
4.4022460438999502e+00 +9.1066211328065094e+00 +0.0000000000000000e+00 +4.4022458927697201e+00 +1.0814666732518694e-02 -1.0327646817210117e+00 -5.9171759454954044e-02
4.5022970903522204e+00 +9.1065752084488594e+00 +0.0000000000000000e+00 +4.5022969286816901e+00 +1.0814560926727302e-02 -1.0327691821781144e+00 -5.9171049612447908e-02
4.6023481368044896e+00 +9.1065282520811692e+00 +0.0000000000000000e+00 +4.6023479641146396e+00 +1.0814473999978142e-02 -1.0327737165249757e+00 -5.9170349375321708e-02
4.7023991832567598e+00 +9.1064802637070095e+00 +0.0000000000000000e+00 +4.7023989990579196e+00 +1.0814404791996862e-02 -1.0327782822651912e+00 -5.9169657973107186e-02
4.8024502297090397e+00 +9.1064312433245895e+00 +0.0000000000000000e+00 +4.8024500335008904e+00 +1.0814351537044206e-02 -1.0327828757568887e+00 -5.9168974439426605e-02
4.9025012761613098e+00 +9.1063811909321402e+00 +0.0000000000000000e+00 +4.9025010674329002e+00 +1.0814312469226805e-02 -1.0327874933587846e+00 -5.9168297807876753e-02
5.0025523226135800e+00 +9.1063301065332105e+00 +0.0000000000000000e+00 +5.0025521008432996e+00 +1.0814285822487269e-02 -1.0327921314302393e+00 -5.9167627112025070e-02
5.1026033690658501e+00 +9.1062779901260207e+00 +0.0000000000000000e+00 +5.1026031337214599e+00 +1.0814269830594884e-02 -1.0327967863313487e+00 -5.9166961385407113e-02
5.2026544155181202e+00 +9.1062248417123506e+00 +0.0000000000000000e+00 +5.2026541660567203e+00 +1.0814262727135553e-02 -1.0328014544229875e+00 -5.9166299661522197e-02
5.3027054619703904e+00 +9.1061706612886404e+00 +0.0000000000000000e+00 +5.3027051978384501e+00 +1.0814262745502474e-02 -1.0328061320668991e+00 -5.9165640973830931e-02
5.4027565084226703e+00 +9.1061154488584606e+00 +0.0000000000000000e+00 +5.4027562290559903e+00 +1.0814268118885917e-02 -1.0328108156257294e+00 -5.9164984355750461e-02
5.5028075548749404e+00 +9.1060592044200206e+00 +0.0000000000000000e+00 +5.5028072596986997e+00 +1.0814277080264058e-02 -1.0328155014631260e+00 -5.9164328840652168e-02
5.6028586013272097e+00 +9.1060019279733204e+00 +0.0000000000000000e+00 +5.6028582897559396e+00 +1.0814287862392975e-02 -1.0328201859437851e+00 -5.9163673461857642e-02
5.7029096477794798e+00 +9.1059436195183707e+00 +0.0000000000000000e+00 +5.7029093192170599e+00 +1.0814298697797046e-02 -1.0328248654335217e+00 -5.9163017252635286e-02
5.8029606942317500e+00 +9.1058842790551608e+00 +0.0000000000000000e+00 +5.8029603480714202e+00 +1.0814307818759278e-02 -1.0328295362993385e+00 -5.9162359246196887e-02
5.9030117406840201e+00 +9.1058239065854707e+00 +0.0000000000000000e+00 +5.9030113763083696e+00 +1.0814313457311530e-02 -1.0328341949094852e+00 -5.9161698475694073e-02
6.0030627871363000e+00 +9.1057625021075204e+00 +0.0000000000000000e+00 +6.0030624039172604e+00 +1.0814313845225073e-02 -1.0328388376335400e+00 -5.9161033974215238e-02
6.1031138335885702e+00 +9.1057000656213205e+00 +0.0000000000000000e+00 +6.1031134308874604e+00 +1.0814307214000686e-02 -1.0328434608424606e+00 -5.9160364774781676e-02
6.2031648800408403e+00 +9.1056365971268605e+00 +0.0000000000000000e+00 +6.2031644572083096e+00 +1.0814291794859087e-02 -1.0328480609086568e+00 -5.9159689910344301e-02
6.3032159264931096e+00 +9.1055720966241402e+00 +0.0000000000000000e+00 +6.3032154828691800e+00 +1.0814265818731234e-02 -1.0328526342060558e+00 -5.9159008413780134e-02
6.4032669729453797e+00 +9.1055065641149504e+00 +0.0000000000000000e+00 +6.4032665078594100e+00 +1.0814227516248623e-02 -1.0328571771101644e+00 -5.9158319317888709e-02
6.5033180193976499e+00 +9.1054399995957205e+00 +0.0000000000000000e+00 +6.5033175321683601e+00 +1.0814175117753349e-02 -1.0328616859981754e+00 -5.9157621655398951e-02
6.6033690658499298e+00 +9.1053724030699996e+00 +0.0000000000000000e+00 +6.6033685557853898e+00 +1.0814107441437935e-02 -1.0328661578912068e+00 -5.9156914746818653e-02
6.7034201123021999e+00 +9.1053037745378091e+00 +0.0000000000000000e+00 +6.7034195786998501e+00 +1.0814025435563769e-02 -1.0328705921379144e+00 -5.9156198955207830e-02
6.8034711587544701e+00 +9.1052341139955892e+00 +0.0000000000000000e+00 +6.8034706009011003e+00 +1.0813930530753130e-02 -1.0328749886146775e+00 -5.9155474879709194e-02
6.9035222052067402e+00 +9.1051634214468908e+00 +0.0000000000000000e+00 +6.9035216223784897e+00 +1.0813824157964676e-02 -1.0328793471991824e+00 -5.9154743119626069e-02
7.0035732516590103e+00 +9.1050916968899305e+00 +0.0000000000000000e+00 +7.0035726431213803e+00 +1.0813707748508598e-02 -1.0328836677704978e+00 -5.9154004274429337e-02
7.1036242981112796e+00 +9.1050189403247099e+00 +0.0000000000000000e+00 +7.1036236631191203e+00 +1.0813582734061024e-02 -1.0328879502091020e+00 -5.9153258943762443e-02
7.2036753445635497e+00 +9.1049451517530091e+00 +0.0000000000000000e+00 +7.2036746823610702e+00 +1.0813450546678691e-02 -1.0328921943969291e+00 -5.9152507727446860e-02
7.3037263910158297e+00 +9.1048703311712806e+00 +0.0000000000000000e+00 +7.3037257008365799e+00 +1.0813312618813898e-02 -1.0328964002174326e+00 -5.9151751225488679e-02
7.4037774374680998e+00 +9.1047944785830701e+00 +0.0000000000000000e+00 +7.4037767185350001e+00 +1.0813170383328699e-02 -1.0329005675555967e+00 -5.9150990038082760e-02
7.5038284839203699e+00 +9.1047175939865994e+00 +0.0000000000000000e+00 +7.5038277354457001e+00 +1.0813025273510034e-02 -1.0329046962980162e+00 -5.9150224765619819e-02
7.6038795303726401e+00 +9.1046396773836609e+00 +0.0000000000000000e+00 +7.6038787515580202e+00 +1.0812878723084058e-02 -1.0329087863329172e+00 -5.9149456008691023e-02
7.7039305768249102e+00 +9.1045607287706805e+00 +0.0000000000000000e+00 +7.7039297668613296e+00 +1.0812732166231123e-02 -1.0329128375502241e+00 -5.9148684368094610e-02
7.8039816232771804e+00 +9.1044807481512198e+00 +0.0000000000000000e+00 +7.8039807813449800e+00 +1.0812587037599965e-02 -1.0329168498415775e+00 -5.9147910444840239e-02
7.9040326697294496e+00 +9.1043997355235007e+00 +0.0000000000000000e+00 +7.9040317949983097e+00 +1.0812444772322806e-02 -1.0329208231004050e+00 -5.9147134840155824e-02
8.0040837161817304e+00 +9.1043176908892995e+00 +0.0000000000000000e+00 +8.0040828078106898e+00 +1.0812306806029674e-02 -1.0329247572219495e+00 -5.9146358155492365e-02
8.1041347626340006e+00 +9.1042346142468507e+00 +0.0000000000000000e+00 +8.1041338197714801e+00 +1.0812174574863283e-02 -1.0329286521033285e+00 -5.9145580992530138e-02
8.2041858090862707e+00 +9.1041505055961398e+00 +0.0000000000000000e+00 +8.2041848308700196e+00 +1.0812049515493489e-02 -1.0329325076435683e+00 -5.9144803953183972e-02
8.3042368555385409e+00 +9.1040653649371706e+00 +0.0000000000000000e+00 +8.3042358410956805e+00 +1.0811933065131960e-02 -1.0329363237436526e+00 -5.9144027639608826e-02
8.4042879019908092e+00 +9.1039791922699393e+00 +0.0000000000000000e+00 +8.4042868504377992e+00 +1.0811826661546781e-02 -1.0329401003065688e+00 -5.9143252654205600e-02
8.5043389484430794e+00 +9.1038919875980202e+00 +0.0000000000000000e+00 +8.5043378588857408e+00 +1.0811731743044842e-02 -1.0329438372373418e+00 -5.9142479599613544e-02
8.6043899948953602e+00 +9.1038037509160592e+00 +0.0000000000000000e+00 +8.6043888664288701e+00 +1.0811649300903461e-02 -1.0329475344232060e+00 -5.9141708901741814e-02
8.7044410413476303e+00 +9.1037144822276108e+00 +0.0000000000000000e+00 +8.7044398730565202e+00 +1.0811578754130899e-02 -1.0329511916821337e+00 -5.9140940364792234e-02
8.8044920877999004e+00 +9.1036241815309200e+00 +0.0000000000000000e+00 +8.8044908787580596e+00 +1.0811519176257551e-02 -1.0329548088151237e+00 -5.9140173656247408e-02
8.9045431342521706e+00 +9.1035328488259601e+00 +0.0000000000000000e+00 +8.9045418835228496e+00 +1.0811469640376863e-02 -1.0329583856211653e+00 -5.9139408443284677e-02
9.0045941807044407e+00 +9.1034404841127508e+00 +0.0000000000000000e+00 +9.0045928873402303e+00 +1.0811429219130565e-02 -1.0329619218971748e+00 -5.9138644392765949e-02
9.1046452271567109e+00 +9.1033470873930593e+00 +0.0000000000000000e+00 +9.1046438901995597e+00 +1.0811396984693748e-02 -1.0329654174379159e+00 -5.9137881171227008e-02
9.2046962736089899e+00 +9.1032526586651095e+00 +0.0000000000000000e+00 +9.2046948920902096e+00 +1.0811372008760216e-02 -1.0329688720359413e+00 -5.9137118444867694e-02
9.3047473200612600e+00 +9.1031571979306793e+00 +0.0000000000000000e+00 +9.3047458930015097e+00 +1.0811353362527379e-02 -1.0329722854815042e+00 -5.9136355879540761e-02
9.4047983665135302e+00 +9.1030607051879997e+00 +0.0000000000000000e+00 +9.4047968929228301e+00 +1.0811340116681681e-02 -1.0329756575625009e+00 -5.9135593140742147e-02
9.5048494129658003e+00 +9.1029631804370599e+00 +0.0000000000000000e+00 +9.5048478918435304e+00 +1.0811331341383585e-02 -1.0329789880643885e+00 -5.9134829893600173e-02
9.6049004594180705e+00 +9.1028646236796291e+00 +0.0000000000000000e+00 +9.6048988897529508e+00 +1.0811326106252728e-02 -1.0329822767701131e+00 -5.9134065802864968e-02
9.7049515058703406e+00 +9.1027650349139595e+00 +0.0000000000000000e+00 +9.7049498866404598e+00 +1.0811323480353296e-02 -1.0329855234600454e+00 -5.9133300532898614e-02
9.8050025523226108e+00 +9.1026644141418007e+00 +0.0000000000000000e+00 +9.8050008824953991e+00 +1.0811322532178983e-02 -1.0329887279118988e+00 -5.9132533747664216e-02
9.9050535987748898e+00 +9.1025627613596107e+00 +0.0000000000000000e+00 +9.9050518773071392e+00 +1.0811322329638471e-02 -1.0329918899006729e+00 -5.9131765110716168e-02
1.0005104645227201e+01 +9.1024600765709298e+00 +0.0000000000000000e+00 +1.0005102871065001e+01 +1.0811321940040164e-02 -1.0329950091985542e+00 -5.9130994285188643e-02
1.0105155691679400e+01 +9.1023563597757793e+00 +0.0000000000000000e+00 +1.0105153863758400e+01 +1.0811320430077820e-02 -1.0329980855748682e+00 -5.9130220933786178e-02
1.0205206738131700e+01 +9.1022516109723703e+00 +0.0000000000000000e+00 +1.0205204855376600e+01 +1.0811316865815657e-02 -1.0330011187960055e+00 -5.9129444718773183e-02
1.0305257784584001e+01 +9.1021458301607101e+00 +0.0000000000000000e+00 +1.0305255845909100e+01 +1.0811310312673445e-02 -1.0330041086253370e+00 -5.9128665301963076e-02
1.0405308831036200e+01 +9.1020390173425607e+00 +0.0000000000000000e+00 +1.0405306835345099e+01 +1.0811299835411748e-02 -1.0330070548231463e+00 -5.9127882344708060e-02
1.0505359877488500e+01 +9.1019311725161600e+00 +0.0000000000000000e+00 +1.0505357823674100e+01 +1.0811284498146745e-02 -1.0330099571465043e+00 -5.9127095507878043e-02
1.0605410923940800e+01 +9.1018222956832808e+00 +0.0000000000000000e+00 +1.0605408810885301e+01 +1.0811263588430656e-02 -1.0330128148739248e+00 -5.9126304368009572e-02
1.0705461970393101e+01 +9.1017123868421397e+00 +0.0000000000000000e+00 +1.0705459796968199e+01 +1.0811237157308310e-02 -1.0330156256622287e+00 -5.9125508215593946e-02
1.0805513016845300e+01 +9.1016014459927401e+00 +0.0000000000000000e+00 +1.0805510781912000e+01 +1.0811205418663575e-02 -1.0330183868239757e+00 -5.9124706280348514e-02
1.0905564063297600e+01 +9.1014894731368603e+00 +0.0000000000000000e+00 +1.0905561765706199e+01 +1.0811168586731038e-02 -1.0330210956725572e+00 -5.9123897792083005e-02
1.1005615109749900e+01 +9.1013764682745109e+00 +0.0000000000000000e+00 +1.1005612748340100e+01 +1.0811126876105772e-02 -1.0330237495222283e+00 -5.9123081980703124e-02
1.1105666156202100e+01 +9.1012624314038906e+00 +0.0000000000000000e+00 +1.1105663729803000e+01 +1.0811080501753056e-02 -1.0330263456881346e+00 -5.9122258076214164e-02
1.1205717202654400e+01 +9.1011473625250208e+00 +0.0000000000000000e+00 +1.1205714710084401e+01 +1.0811029679017882e-02 -1.0330288814863280e+00 -5.9121425308723649e-02
1.1305768249106700e+01 +9.1010312616396707e+00 +0.0000000000000000e+00 +1.1305765689173500e+01 +1.0810974623634626e-02 -1.0330313542337926e+00 -5.9120582908444873e-02
1.1405819295559001e+01 +9.1009141287460693e+00 +0.0000000000000000e+00 +1.1405816667059700e+01 +1.0810915551736945e-02 -1.0330337612484832e+00 -5.9119730105700714e-02
1.1505870342011200e+01 +9.1007959638459806e+00 +0.0000000000000000e+00 +1.1505867643732399e+01 +1.0810852679867106e-02 -1.0330360998493338e+00 -5.9118866130926227e-02
1.1605921388463500e+01 +9.1006767669376405e+00 +0.0000000000000000e+00 +1.1605918619181001e+01 +1.0810786224985975e-02 -1.0330383673562995e+00 -5.9117990214672754e-02
1.1705972434915800e+01 +9.1005565380228095e+00 +0.0000000000000000e+00 +1.1705969593394700e+01 +1.0810716404482347e-02 -1.0330405610903641e+00 -5.9117101587610431e-02
1.1806023481367999e+01 +9.1004352770997308e+00 +0.0000000000000000e+00 +1.1806020566362900e+01 +1.0810643436182895e-02 -1.0330426783735849e+00 -5.9116199480532337e-02
