# trajectory
# s[mm] rx[mm] ry[mm] rz[mm] px[rad] py[rad] pz[rad]
0.0000000000000000e+00 +9.1762999999999995e+00 +0.0000000000000000e+00 +0.0000000000000000e+00 +0.0000000000000000e+00 +0.0000000000000000e+00 +1.0000000000000000e+00
-1.0000000000000001e-01 +9.1762994846205128e+00 +0.0000000000000000e+00 -9.9999999998229228e-02 +1.0307587628221051e-05 +0.0000000000000000e+00 +9.9999999994687683e-01
-2.0000000000000001e-01 +9.1762979384829038e+00 +0.0000000000000000e+00 -1.9999999998583384e-01 +2.0615162346363110e-05 +0.0000000000000000e+00 +9.9999999978750753e-01
-3.0000000000000004e-01 +9.1762953615884904e+00 +0.0000000000000000e+00 -2.9999999995218923e-01 +3.0922723629489629e-05 +0.0000000000000000e+00 +9.9999999952189256e-01
-4.0000000000000002e-01 +9.1762917539386439e+00 +0.0000000000000000e+00 -3.9999999988667084e-01 +4.1230270938624567e-05 +0.0000000000000000e+00 +9.9999999915003235e-01
-5.0000000000000000e-01 +9.1762871155347874e+00 +0.0000000000000000e+00 -4.9999999977865417e-01 +5.1537803720747322e-05 +0.0000000000000000e+00 +9.9999999867192735e-01
-5.9999999999999998e-01 +9.1762814463784022e+00 +0.0000000000000000e+00 -5.9999999961751482e-01 +6.1845321408787648e-05 +0.0000000000000000e+00 +9.9999999808757811e-01
-6.9999999999999996e-01 +9.1762747464710284e+00 +0.0000000000000000e+00 -6.9999999939262836e-01 +7.2152823421620463e-05 +0.0000000000000000e+00 +9.9999999739698509e-01
-7.9999999999999993e-01 +9.1762670158142612e+00 +0.0000000000000000e+00 -7.9999999909337038e-01 +8.2460309164060733e-05 +0.0000000000000000e+00 +9.9999999660014871e-01
-8.9999999999999991e-01 +9.1762582544097580e+00 +0.0000000000000000e+00 -8.9999999870911662e-01 +9.2767778026858245e-05 +0.0000000000000000e+00 +9.9999999569706965e-01
-9.9999999999999989e-01 +9.1762484622592382e+00 +0.0000000000000000e+00 -9.9999999822924290e-01 +1.0307522938669234e-04 +0.0000000000000000e+00 +9.9999999468774847e-01
-1.0999999999999999e+00 +9.1762376393644853e+00 +0.0000000000000000e+00 -1.0999999976431249e+00 +1.1338266260616666e-04 +0.0000000000000000e+00 +9.9999999357218583e-01
-1.2000000000000000e+00 +9.1762257857273433e+00 +0.0000000000000000e+00 -1.1999999969401387e+00 +1.2369007703380387e-04 +0.0000000000000000e+00 +9.9999999235038228e-01
-1.3000000000000000e+00 +9.1762129013497269e+00 +0.0000000000000000e+00 -1.2999999961096600e+00 +1.3399747200404025e-04 +0.0000000000000000e+00 +9.9999999102233861e-01
-1.4000000000000001e+00 +9.1761989862336133e+00 +0.0000000000000000e+00 -1.3999999951410651e+00 +1.4430484683722032e-04 +0.0000000000000000e+00 +9.9999998958805547e-01
-1.5000000000000002e+00 +9.1761840403810524e+00 +0.0000000000000000e+00 -1.4999999940237299e+00 +1.5461220083959150e-04 +0.0000000000000000e+00 +9.9999998804753354e-01
-1.6000000000000003e+00 +9.1761680637941634e+00 +0.0000000000000000e+00 -1.5999999927470305e+00 +1.6491953330881733e-04 +0.0000000000000000e+00 +9.9999998640077359e-01
-1.7000000000000004e+00 +9.1761510564751312e+00 +0.0000000000000000e+00 -1.6999999913003434e+00 +1.7522684359467849e-04 +0.0000000000000000e+00 +9.9999998464777640e-01
-1.8000000000000005e+00 +9.1761330184262029e+00 +0.0000000000000000e+00 -1.7999999896730448e+00 +1.8553413115977624e-04 +0.0000000000000000e+00 +9.9999998278854285e-01
-1.9000000000000006e+00 +9.1761139496496718e+00 +0.0000000000000000e+00 -1.8999999878545109e+00 +1.9584139558504994e-04 +0.0000000000000000e+00 +9.9999998082307362e-01
-2.0000000000000004e+00 +9.1760938501478684e+00 +0.0000000000000000e+00 -1.9999999858341182e+00 +2.0614863656977675e-04 +0.0000000000000000e+00 +9.9999997875136948e-01
-2.1000000000000005e+00 +9.1760727199231464e+00 +0.0000000000000000e+00 -2.0999999836012435e+00 +2.1645585393157175e-04 +0.0000000000000000e+00 +9.9999997657343120e-01
-2.2000000000000006e+00 +9.1760505589778720e+00 +0.0000000000000000e+00 -2.1999999811452633e+00 +2.2676304760638864e-04 +0.0000000000000000e+00 +9.9999997428925957e-01
-2.3000000000000007e+00 +9.1760273673144130e+00 +0.0000000000000000e+00 -2.2999999784555545e+00 +2.3707021764852106e-04 +0.0000000000000000e+00 +9.9999997189885537e-01
-2.4000000000000008e+00 +9.1760031449351249e+00 +0.0000000000000000e+00 -2.3999999755214936e+00 +2.4737736423060451e-04 +0.0000000000000000e+00 +9.9999996940221914e-01
-2.5000000000000009e+00 +9.1759778918423400e+00 +0.0000000000000000e+00 -2.4999999723324575e+00 +2.5768448764361868e-04 +0.0000000000000000e+00 +9.9999996679935166e-01
-2.6000000000000010e+00 +9.1759516080383552e+00 +0.0000000000000000e+00 -2.5999999688778228e+00 +2.6799158829689056e-04 +0.0000000000000000e+00 +9.9999996409025349e-01
-2.7000000000000011e+00 +9.1759242935254210e+00 +0.0000000000000000e+00 -2.6999999651469668e+00 +2.7829866671809800e-04 +0.0000000000000000e+00 +9.9999996127492519e-01
-2.8000000000000012e+00 +9.1758959483057314e+00 +0.0000000000000000e+00 -2.7999999611292665e+00 +2.8860572355327393e-04 +0.0000000000000000e+00 +9.9999995835336719e-01
-2.9000000000000012e+00 +9.1758665723814055e+00 +0.0000000000000000e+00 -2.8999999568140993e+00 +2.9891275956681101e-04 +0.0000000000000000e+00 +9.9999995532557995e-01
-3.0000000000000013e+00 +9.1758361657544825e+00 +0.0000000000000000e+00 -2.9999999521908416e+00 +3.0921977564146697e-04 +0.0000000000000000e+00 +9.9999995219156390e-01
-3.1000000000000014e+00 +9.1758047284269075e+00 +0.0000000000000000e+00 -3.0999999472488708e+00 +3.1952677277837047e-04 +0.0000000000000000e+00 +9.9999994895131927e-01
-3.2000000000000015e+00 +9.1757722604005210e+00 +0.0000000000000000e+00 -3.1999999419775644e+00 +3.2983375209702764e-04 +0.0000000000000000e+00 +9.9999994560484640e-01
-3.3000000000000016e+00 +9.1757387616770423e+00 +0.0000000000000000e+00 -3.2999999363662993e+00 +3.4014071483532896e-04 +0.0000000000000000e+00 +9.9999994215214527e-01
-3.4000000000000017e+00 +9.1757042322580613e+00 +0.0000000000000000e+00 -3.3999999304044524e+00 +3.5044766234955697e-04 +0.0000000000000000e+00 +9.9999993859321601e-01
-3.5000000000000018e+00 +9.1756686721450293e+00 +0.0000000000000000e+00 -3.4999999240814015e+00 +3.6075459611439436e-04 +0.0000000000000000e+00 +9.9999993492805850e-01
-3.6000000000000019e+00 +9.1756320813392431e+00 +0.0000000000000000e+00 -3.5999999173865231e+00 +3.7106151771145178e-04 +0.0000000000000000e+00 +9.9999993115667263e-01
-3.7000000000000020e+00 +9.1755944598418395e+00 +0.0000000000000000e+00 -3.6999999103091947e+00 +3.8136842870298580e-04 +0.0000000000000000e+00 +9.9999992727905807e-01
-3.8000000000000020e+00 +9.1755558076538080e+00 +0.0000000000000000e+00 -3.7999999028387936e+00 +3.9167533050561405e-04 +0.0000000000000000e+00 +9.9999992329521470e-01
-3.9000000000000021e+00 +9.1755161247760029e+00 +0.0000000000000000e+00 -3.8999998949646968e+00 +4.0198222437883924e-04 +0.0000000000000000e+00 +9.9999991920514231e-01
-4.0000000000000018e+00 +9.1754754112091597e+00 +0.0000000000000000e+00 -3.9999998866762811e+00 +4.1228911142505384e-04 +0.0000000000000000e+00 +9.9999991500884067e-01
-4.1000000000000014e+00 +9.1754336669539143e+00 +0.0000000000000000e+00 -4.0999998779629241e+00 +4.2259599258954534e-04 +0.0000000000000000e+00 +9.9999991070630956e-01
-4.2000000000000011e+00 +9.1753908920108120e+00 +0.0000000000000000e+00 -4.1999998688140021e+00 +4.3290286866050153e-04 +0.0000000000000000e+00 +9.9999990629754876e-01
-4.3000000000000007e+00 +9.1753470863803308e+00 +0.0000000000000000e+00 -4.2999998592188931e+00 +4.4320974026901613e-04 +0.0000000000000000e+00 +9.9999990178255826e-01
-4.4000000000000004e+00 +9.1753022500628916e+00 +0.0000000000000000e+00 -4.3999998491669734e+00 +4.5351660788909437e-04 +0.0000000000000000e+00 +9.9999989716133797e-01
-4.5000000000000000e+00 +9.1752563830588763e+00 +0.0000000000000000e+00 -4.4999998386476197e+00 +4.6382347183765915e-04 +0.0000000000000000e+00 +9.9999989243388776e-01
-4.5999999999999996e+00 +9.1752094853686419e+00 +0.0000000000000000e+00 -4.5999998276502101e+00 +4.7413033227455701e-04 +0.0000000000000000e+00 +9.9999988760020775e-01
-4.6999999999999993e+00 +9.1751615569925384e+00 +0.0000000000000000e+00 -4.6999998161641203e+00 +4.8443718920256469e-04 +0.0000000000000000e+00 +9.9999988266029805e-01
-4.7999999999999989e+00 +9.1751125979309229e+00 +0.0000000000000000e+00 -4.7999998041787286e+00 +4.9474404246739557e-04 +0.0000000000000000e+00 +9.9999987761415876e-01
-4.8999999999999986e+00 +9.1750626081841773e+00 +0.0000000000000000e+00 -4.8999997916834115e+00 +5.0505089175770647e-04 +0.0000000000000000e+00 +9.9999987246179023e-01
-4.9999999999999982e+00 +9.1750115877527190e+00 +0.0000000000000000e+00 -4.9999997786675463e+00 +5.1535773660510474e-04 +0.0000000000000000e+00 +9.9999986720319278e-01
-5.0999999999999979e+00 +9.1749595366370240e+00 +0.0000000000000000e+00 -5.0999997651205096e+00 +5.2566457638415548e-04 +0.0000000000000000e+00 +9.9999986183836698e-01
-5.1999999999999975e+00 +9.1749064548376360e+00 +0.0000000000000000e+00 -5.1999997510316787e+00 +5.3597141031238877e-04 +0.0000000000000000e+00 +9.9999985636731326e-01
-5.2999999999999972e+00 +9.1748523423551873e+00 +0.0000000000000000e+00 -5.2999997363904310e+00 +5.4627823745030755e-04 +0.0000000000000000e+00 +9.9999985079003240e-01
-5.3999999999999968e+00 +9.1747971991904098e+00 +0.0000000000000000e+00 -5.3999997211861439e+00 +5.5658505670139538e-04 +0.0000000000000000e+00 +9.9999984510652518e-01
-5.4999999999999964e+00 +9.1747410253441526e+00 +0.0000000000000000e+00 -5.4999997054081948e+00 +5.6689186681212439e-04 +0.0000000000000000e+00 +9.9999983931679259e-01
-5.5999999999999961e+00 +9.1746838208173997e+00 +0.0000000000000000e+00 -5.5999996890459611e+00 +5.7719866638280171e-04 +0.0000000000000000e+00 +9.9999983342083576e-01
-5.6999999999999957e+00 +9.1746255856112757e+00 +0.0000000000000000e+00 -5.6999996720888211e+00 +5.8750545398679357e-04 +0.0000000000000000e+00 +9.9999982741865578e-01
-5.7999999999999954e+00 +9.1745663197270453e+00 +0.0000000000000000e+00 -5.7999996545261521e+00 +5.9781222828974483e-04 +0.0000000000000000e+00 +9.9999982131025378e-01
-5.8999999999999950e+00 +9.1745060231661011e+00 +0.0000000000000000e+00 -5.8999996363473315e+00 +6.0811898806041424e-04 +0.0000000000000000e+00 +9.9999981509563096e-01
-5.9999999999999947e+00 +9.1744446959299548e+00 +0.0000000000000000e+00 -5.9999996175417376e+00 +6.1842573217067134e-04 +0.0000000000000000e+00 +9.9999980877478845e-01
-6.0999999999999943e+00 +9.1743823380202230e+00 +0.0000000000000000e+00 -6.0999995980987487e+00 +6.2873245959549275e-04 +0.0000000000000000e+00 +9.9999980234772745e-01
-6.1999999999999940e+00 +9.1743189494386215e+00 +0.0000000000000000e+00 -6.1999995780077430e+00 +6.3903916941295891e-04 +0.0000000000000000e+00 +9.9999979581444898e-01
-6.2999999999999936e+00 +9.1742545301869534e+00 +0.0000000000000000e+00 -6.2999995572580980e+00 +6.4934586080424956e-04 +0.0000000000000000e+00 +9.9999978917495413e-01
-6.3999999999999932e+00 +9.1741890802670980e+00 +0.0000000000000000e+00 -6.3999995358391928e+00 +6.5965253305363969e-04 +0.0000000000000000e+00 +9.9999978242924403e-01
-6.4999999999999929e+00 +9.1741225996810005e+00 +0.0000000000000000e+00 -6.4999995137404065e+00 +6.6995918554849478e-04 +0.0000000000000000e+00 +9.9999977557731956e-01
-6.5999999999999925e+00 +9.1740550884306629e+00 +0.0000000000000000e+00 -6.5999994909511166e+00 +6.8026581777926585e-04 +0.0000000000000000e+00 +9.9999976861918172e-01
-6.6999999999999922e+00 +9.1739865465181332e+00 +0.0000000000000000e+00 -6.6999994674607022e+00 +6.9057242933948419e-04 +0.0000000000000000e+00 +9.9999976155483139e-01
-6.7999999999999918e+00 +9.1739169739454933e+00 +0.0000000000000000e+00 -6.7999994432585424e+00 +7.0087901992575599e-04 +0.0000000000000000e+00 +9.9999975438426947e-01
-6.8999999999999915e+00 +9.1738463707148536e+00 +0.0000000000000000e+00 -6.8999994183340156e+00 +7.1118558933775625e-04 +0.0000000000000000e+00 +9.9999974710749673e-01
-6.9999999999999911e+00 +9.1737747368283351e+00 +0.0000000000000000e+00 -6.9999993926765010e+00 +7.2149213747822283e-04 +0.0000000000000000e+00 +9.9999973972451384e-01
-7.0999999999999908e+00 +9.1737020722880658e+00 +0.0000000000000000e+00 -7.0999993662753775e+00 +7.3179866435294991e-04 +0.0000000000000000e+00 +9.9999973223532146e-01
-7.1999999999999904e+00 +9.1736283770961684e+00 +0.0000000000000000e+00 -7.1999993391200245e+00 +7.4210517007078109e-04 +0.0000000000000000e+00 +9.9999972463992026e-01
-7.2999999999999901e+00 +9.1735536512547498e+00 +0.0000000000000000e+00 -7.2999993111998212e+00 +7.5241165484360266e-04 +0.0000000000000000e+00 +9.9999971693831069e-01
-7.3999999999999897e+00 +9.1734778947658882e+00 +0.0000000000000000e+00 -7.3999992825041465e+00 +7.6271811898633588e-04 +0.0000000000000000e+00 +9.9999970913049308e-01
-7.4999999999999893e+00 +9.1734011076316264e+00 +0.0000000000000000e+00 -7.4999992530223798e+00 +7.7302456291692973e-04 +0.0000000000000000e+00 +9.9999970121646786e-01
-7.5999999999999890e+00 +9.1733232898539612e+00 +0.0000000000000000e+00 -7.5999992227439002e+00 +7.8333098715219413e-04 +0.0000000000000000e+00 +9.9999969319623516e-01
-7.6999999999999886e+00 +9.1732444414348340e+00 +0.0000000000000000e+00 -7.6999991916580868e+00 +7.9363739226205176e-04 +0.0000000000000000e+00 +9.9999968506979520e-01
-7.7999999999999883e+00 +9.1731645623761278e+00 +0.0000000000000000e+00 -7.7999991597543188e+00 +8.0394377882380080e-04 +0.0000000000000000e+00 +9.9999967683714797e-01
-7.8999999999999879e+00 +9.1730836526796686e+00 +0.0000000000000000e+00 -7.8999991270219763e+00 +8.1425014741796930e-04 +0.0000000000000000e+00 +9.9999966849829369e-01
-7.9999999999999876e+00 +9.1730017123472241e+00 +0.0000000000000000e+00 -7.9999990934504375e+00 +8.2455649862832965e-04 +0.0000000000000000e+00 +9.9999966005323238e-01
-8.0999999999999872e+00 +9.1729187413805029e+00 +0.0000000000000000e+00 -8.0999990590290825e+00 +8.3486283304191260e-04 +0.0000000000000000e+00 +9.9999965150196413e-01
-8.1999999999999869e+00 +9.1728347397811554e+00 +0.0000000000000000e+00 -8.1999990237472904e+00 +8.4516915124902242e-04 +0.0000000000000000e+00 +9.9999964284448895e-01
-8.2999999999999865e+00 +9.1727497075507731e+00 +0.0000000000000000e+00 -8.2999989875944404e+00 +8.5547545384325201e-04 +0.0000000000000000e+00 +9.9999963408080683e-01
-8.3999999999999861e+00 +9.1726636446908874e+00 +0.0000000000000000e+00 -8.3999989505599117e+00 +8.6578174142149878e-04 +0.0000000000000000e+00 +9.9999962521091768e-01
-8.4999999999999858e+00 +9.1725765512029689e+00 +0.0000000000000000e+00 -8.4999989126330835e+00 +8.7608801458398053e-04 +0.0000000000000000e+00 +9.9999961623482148e-01
-8.5999999999999854e+00 +9.1724884270884299e+00 +0.0000000000000000e+00 -8.5999988738033348e+00 +8.8639427393425233e-04 +0.0000000000000000e+00 +9.9999960715251812e-01
-8.6999999999999851e+00 +9.1723992723486223e+00 +0.0000000000000000e+00 -8.6999988340600467e+00 +8.9670052007922323e-04 +0.0000000000000000e+00 +9.9999959796400750e-01
-8.7999999999999847e+00 +9.1723090869848338e+00 +0.0000000000000000e+00 -8.7999987933925965e+00 +9.0700675362917352e-04 +0.0000000000000000e+00 +9.9999958866928951e-01
-8.8999999999999844e+00 +9.1722178709982956e+00 +0.0000000000000000e+00 -8.8999987517903634e+00 +9.1731297519777278e-04 +0.0000000000000000e+00 +9.9999957926836391e-01
-8.9999999999999840e+00 +9.1721256243901728e+00 +0.0000000000000000e+00 -8.9999987092427283e+00 +9.2761918540209794e-04 +0.0000000000000000e+00 +9.9999956976123050e-01
-9.0999999999999837e+00 +9.1720323471615721e+00 +0.0000000000000000e+00 -9.0999986657390686e+00 +9.3792538486265188e-04 +0.0000000000000000e+00 +9.9999956014788904e-01
-9.1999999999999833e+00 +9.1719380393135364e+00 +0.0000000000000000e+00 -9.1999986212687652e+00 +9.4823157420338244e-04 +0.0000000000000000e+00 +9.9999955042833932e-01
-9.2999999999999829e+00 +9.1718427008470478e+00 +0.0000000000000000e+00 -9.2999985758211956e+00 +9.5853775405170202e-04 +0.0000000000000000e+00 +9.9999954060258101e-01
-9.3999999999999826e+00 +9.1717463317630212e+00 +0.0000000000000000e+00 -9.3999985293857407e+00 +9.6884392503850721e-04 +0.0000000000000000e+00 +9.9999953067061387e-01
-9.4999999999999822e+00 +9.1716489320623129e+00 +0.0000000000000000e+00 -9.4999984819517778e+00 +9.7915008779819930e-04 +0.0000000000000000e+00 +9.9999952063243747e-01
-9.5999999999999819e+00 +9.1715505017457133e+00 +0.0000000000000000e+00 -9.5999984335086879e+00 +9.8945624296678460e-04 +0.0000000000000000e+00 +9.9999951048805136e-01
-9.6999999999999815e+00 +9.1714510408139507e+00 +0.0000000000000000e+00 -9.6999983840458484e+00 +9.9976239116076476e-04 +0.0000000000000000e+00 +9.9999950023745532e-01
-9.7999999999999812e+00 +9.1713505492676930e+00 +0.0000000000000000e+00 -9.7999983335526384e+00 +1.0100685329559958e-03 +0.0000000000000000e+00 +9.9999948988064880e-01
-9.8999999999999808e+00 +9.1712490271075549e+00 +0.0000000000000000e+00 -9.8999982820184371e+00 +1.0203746688857312e-03 +0.0000000000000000e+00 +9.9999947941763156e-01
-9.9999999999999805e+00 +9.1711464743340958e+00 +0.0000000000000000e+00 -9.9999982294326237e+00 +1.0306807994405847e-03 +0.0000000000000000e+00 +9.9999946884840329e-01
-1.0099999999999980e+01 +9.1710428909478310e+00 +0.0000000000000000e+00 -1.0099998175784577e+01 +1.0409869250684910e-03 +0.0000000000000000e+00 +9.9999945817296365e-01
-1.0199999999999980e+01 +9.1709382769492329e+00 +0.0000000000000000e+00 -1.0199998121063675e+01 +1.0512930461746663e-03 +0.0000000000000000e+00 +9.9999944739131241e-01
-1.0299999999999979e+01 +9.1708326323387350e+00 +0.0000000000000000e+00 -1.0299998065259299e+01 +1.0615991631215671e-03 +0.0000000000000000e+00 +9.9999943650344925e-01
-1.0399999999999979e+01 +9.1707259571167370e+00 +0.0000000000000000e+00 -1.0399998008360825e+01 +1.0719052762288481e-03 +0.0000000000000000e+00 +9.9999942550937393e-01
-1.0499999999999979e+01 +9.1706182512836083e+00 +0.0000000000000000e+00 -1.0499997950357633e+01 +1.0822113857733189e-03 +0.0000000000000000e+00 +9.9999941440908635e-01
-1.0599999999999978e+01 +9.1705095148396936e+00 +0.0000000000000000e+00 -1.0599997891239102e+01 +1.0925174919889005e-03 +0.0000000000000000e+00 +9.9999940320258629e-01
-1.0699999999999978e+01 +9.1703997477853161e+00 +0.0000000000000000e+00 -1.0699997830994610e+01 +1.1028235950665791e-03 +0.0000000000000000e+00 +9.9999939188987375e-01
-1.0799999999999978e+01 +9.1702889501207814e+00 +0.0000000000000000e+00 -1.0799997769613537e+01 +1.1131296951543608e-03 +0.0000000000000000e+00 +9.9999938047094850e-01
-1.0899999999999977e+01 +9.1701771218463826e+00 +0.0000000000000000e+00 -1.0899997707085261e+01 +1.1234357923572233e-03 +0.0000000000000000e+00 +9.9999936894581065e-01
-1.0999999999999977e+01 +9.1700642629624038e+00 +0.0000000000000000e+00 -1.0999997643399158e+01 +1.1337418867370681e-03 +0.0000000000000000e+00 +9.9999935731446010e-01
-1.1099999999999977e+01 +9.1699503734691277e+00 +0.0000000000000000e+00 -1.1099997578544611e+01 +1.1440479783126703e-03 +0.0000000000000000e+00 +9.9999934557689707e-01
-1.1199999999999976e+01 +9.1698354533668347e+00 +0.0000000000000000e+00 -1.1199997512510997e+01 +1.1543540670596287e-03 +0.0000000000000000e+00 +9.9999933373312155e-01
-1.1299999999999976e+01 +9.1697195026558109e+00 +0.0000000000000000e+00 -1.1299997445287694e+01 +1.1646601529103138e-03 +0.0000000000000000e+00 +9.9999932178313367e-01
-1.1399999999999975e+01 +9.1696025213363512e+00 +0.0000000000000000e+00 -1.1399997376864082e+01 +1.1749662357538153e-03 +0.0000000000000000e+00 +9.9999930972693374e-01
-1.1499999999999975e+01 +9.1694845094087647e+00 +0.0000000000000000e+00 -1.1499997307229540e+01 +1.1852723154358877e-03 +0.0000000000000000e+00 +9.9999929756452199e-01
-1.1599999999999975e+01 +9.1693654668733764e+00 +0.0000000000000000e+00 -1.1599997236373445e+01 +1.1955783917576056e-03 +0.0000000000000000e+00 +9.9999928529589877e-01
-1.1699999999999974e+01 +9.1692453937305345e+00 +0.0000000000000000e+00 -1.1699997164285179e+01 +1.2058844644611145e-03 +0.0000000000000000e+00 +9.9999927292106450e-01
