# multipoles
# s[mm] polynom_b[n=0][T/m^n] polynom_b[n=1][T/m^n] polynom_b[n=2][T/m^n] polynom_b[n=3][T/m^n] polynom_b[n=4][T/m^n] polynom_b[n=5][T/m^n] polynom_b[n=6][T/m^n] 
+0.0000000000000000e+00 -1.0309360920421244e+00 +2.2865080703130141e+00 +8.8691335696249833e+00 -4.9589860969078478e+02 +9.9527625521135691e+04 +4.0805441852763630e+06 -7.2851181089730799e+07 
+1.0000000000000001e-01 -1.0309373503463219e+00 +2.2865153165505414e+00 +8.7919709917089204e+00 -4.8583259418597567e+02 +1.0123138698994170e+05 +4.0027920055466979e+06 -8.2566282454457700e+07 
+2.0000000000000001e-01 -1.0309385441821164e+00 +2.2865198885074345e+00 +8.7074382013753127e+00 -4.7547244741389522e+02 +1.0306566025150112e+05 +3.9228698933292283e+06 -9.2886368316867724e+07 
+2.9999999999999999e-01 -1.0309396855788735e+00 +2.2865205160489790e+00 +8.6159042844726041e+00 -4.6479822529395705e+02 +1.0501949945729061e+05 +3.8407118631161568e+06 -1.0374405059305157e+08 
+4.0000000000000002e-01 -1.0309407865659532e+00 +2.2865159290641723e+00 +8.5177383224877357e+00 -4.5378998400192353e+02 +1.0708195880471476e+05 +3.7562519284763178e+06 -1.1507194112423901e+08 
+5.0000000000000000e-01 -1.0309418591726622e+00 +2.2865048574685365e+00 +8.4133093904210110e+00 -4.4242777999953859e+02 +1.0924209255769401e+05 +3.6694241017224132e+06 -1.2680265171164493e+08 
+5.9999999999999998e-01 -1.0309429149652312e+00 +2.2864860744988764e+00 +8.3030109485699235e+00 -4.3069315743929292e+02 +1.1148991403960278e+05 +3.5801706121640177e+06 -1.3887749247938478e+08 
+6.9999999999999996e-01 -1.0309439636310234e+00 +2.2864585380770213e+00 +8.1873299511109234e+00 -4.1857463265183816e+02 +1.1381935950287378e+05 +3.4884735351238064e+06 -1.5127300414519227e+08 
+8.0000000000000004e-01 -1.0309450143808758e+00 +2.2864212551948073e+00 +8.0667756904499868e+00 -4.0606272156368044e+02 +1.1622536824607804e+05 +3.3943266558991540e+06 -1.6397464764919120e+08 
+9.0000000000000002e-01 -1.0309460764255669e+00 +2.2863732328558082e+00 +7.9418574569773446e+00 -3.9314794058147959e+02 +1.1870287950440298e+05 +3.2977237622696348e+06 -1.7696788315426111e+08 
+1.0000000000000000e+00 -1.0309471589758097e+00 +2.2863134780642298e+00 +7.8130845363798498e+00 -3.7982080645092958e+02 +1.2124683249065366e+05 +3.1986586443725689e+06 -1.9023817021392670e+08 
+1.1000000000000001e+00 -1.0309482712422555e+00 +2.2862409978216136e+00 +7.6809662152054443e+00 -3.6607183628062080e+02 +1.2385216627570325e+05 +3.0971250954258675e+06 -2.0377096716588169e+08 
+1.2000000000000000e+00 -1.0309494224354643e+00 +2.2861547991226612e+00 +7.5460117754936098e+00 -3.5189154761134762e+02 +1.2651381988347863e+05 +2.9931169128608452e+06 -2.1755173156796274e+08 
+1.3000000000000000e+00 -1.0309506217659115e+00 +2.2860538889490698e+00 +7.4087304997861834e+00 -3.3727045837772772e+02 +1.2922673217532186e+05 +2.8866278987309975e+06 -2.3156591958917966e+08 
+1.3999999999999999e+00 -1.0309518784439986e+00 +2.2859372742633743e+00 +7.2696316715250164e+00 -3.2219908688533781e+02 +1.3198584184110333e+05 +2.7776518602248779e+06 -2.4579898596853471e+08 
+1.5000000000000000e+00 -1.0309532016799976e+00 +2.2858039620055548e+00 +7.1292245700495265e+00 -3.0666795188575696e+02 +1.3478608747482256e+05 +2.6661826107865847e+06 -2.6023638431990871e+08 
+1.6000000000000001e+00 -1.0309546006841332e+00 +2.2856529590880168e+00 +6.9880184827314986e+00 -2.9066757256181813e+02 +1.3762240734312608e+05 +2.5522139706621342e+06 -2.7486356603214347e+08 
+1.7000000000000000e+00 -1.0309560846665125e+00 +2.2854832723869074e+00 +6.8465226972886946e+00 -2.7418846845683908e+02 +1.4048973950349257e+05 +2.4357397671676814e+06 -2.8966598074966186e+08 
+1.8000000000000000e+00 -1.0309576628371537e+00 +2.2852939087398494e+00 +6.7052465059809769e+00 -2.5722115954882673e+02 +1.4338302172949974e+05 +2.3167538357495582e+06 -3.0462907604107630e+08 
+1.8999999999999999e+00 -1.0309593444059058e+00 +2.2850838749418632e+00 +6.5646991981228746e+00 -2.3975616630785706e+02 +1.4629719163355709e+05 +2.1952500210412447e+06 -3.1973829792167050e+08 
+2.0000000000000000e+00 -1.0309611385825856e+00 +2.2848521777395199e+00 +6.4253900775336223e+00 -2.2178400965919101e+02 +1.4922718632230969e+05 +2.0712221772118430e+06 -3.3497908918429613e+08 
+2.1000000000000001e+00 -1.0309630545768074e+00 +2.2845978238247229e+00 +6.2878284432423239e+00 -2.0329521097777049e+02 +1.5216794275806777e+05 +1.9446641686713211e+06 -3.5033689110291356e+08 
+2.2000000000000002e+00 -1.0309651015981636e+00 +2.2843198198250310e+00 +6.1525236135464878e+00 -1.8428029196443580e+02 +1.5511439728320300e+05 +1.8155698699902350e+06 -3.6579714112379247e+08 
+2.2999999999999998e+00 -1.0309672888560220e+00 +2.2840171723107301e+00 +6.0199849002208552e+00 -1.6472977499874983e+02 +1.5806148610491178e+05 +1.6839331685795232e+06 -3.8134527515358698e+08 
+2.3999999999999999e+00 -1.0309696255596636e+00 +2.2836888877751420e+00 +5.8907216296107805e+00 -1.4463418272610392e+02 +1.6100414488301257e+05 +1.5497479629752568e+06 -3.9696672557223231e+08 
+2.5000000000000000e+00 -1.0309721209182541e+00 +2.2833339726504778e+00 +5.7652431399578266e+00 -1.2398403873973665e+02 +1.6393730874690777e+05 +1.4130081674648779e+06 -4.1264692122627193e+08 
+2.6000000000000001e+00 -1.0309747824562852e+00 +2.2829521276450602e+00 +5.6440514714477432e+00 -1.0278933959805433e+02 +1.6685450010579202e+05 +1.2738124241862684e+06 -4.2836137987037379e+08 
+2.7000000000000002e+00 -1.0309776108293640e+00 +2.2825457022601041e+00 +5.5275799095952847e+00 -8.1132971380451707e+01 +1.6974455071961728e+05 +1.1326495300799317e+06 -4.4405097298505592e+08 
+2.7999999999999998e+00 -1.0309806049472074e+00 +2.2821176782201515e+00 +5.4162354723255168e+00 -5.9114865851229069e+01 +1.7259533872147038e+05 +9.9009906349949609e+05 -4.5964904847071773e+08 
+2.8999999999999999e+00 -1.0309837637199075e+00 +2.2816710372284539e+00 +5.3104252329123121e+00 -3.6834953896043999e+01 +1.7539474126646059e+05 +8.4674059617637948e+05 -4.7508895019914496e+08 
+3.0000000000000000e+00 -1.0309870860579011e+00 +2.2812087609855856e+00 +5.2105563198492666e+00 -1.4393165931308546e+01 +1.7813063456279694e+05 +7.0315369509351801e+05 -4.9030401828682297e+08 
+3.1000000000000001e+00 -1.0309905708720819e+00 +2.2807338311845062e+00 +5.1170359268469419e+00 +8.1105683723264779e+00 +1.8079089370169165e+05 +5.5991792030101223e+05 -5.0522758838987976e+08 
+3.2000000000000002e+00 -1.0309942170737239e+00 +2.2802492295089105e+00 +5.0302713028743540e+00 +3.0576320279534293e+01 +1.8336339287654756e+05 +4.1761282326056826e+05 -5.1979299288066691e+08 
+3.2999999999999998e+00 -1.0309980235746616e+00 +2.2797579376401149e+00 +4.9506697769957064e+00 +5.2904161912986460e+01 +1.8583600492285358e+05 +2.7681794684377970e+05 -5.3393355874157661e+08 
+3.3999999999999999e+00 -1.0310019892872029e+00 +2.2792629372610533e+00 +4.8786387446880912e+00 +7.4994166299712475e+01 +1.8819660160640322e+05 +1.3811282440890971e+05 -5.4758260906429482e+08 
+3.5000000000000000e+00 -1.0310061131241943e+00 +2.2787672100481573e+00 +4.8145856750271259e+00 +9.6746407719485816e+01 +1.9043305351538907e+05 +2.0769773200450327e+03 -5.6067346266511965e+08 
+3.6000000000000001e+00 -1.0310103939991626e+00 +2.2782737376886026e+00 +4.7589181313765323e+00 +1.1806096135965166e+02 +1.9253322967484142e+05 -1.3071008361346574e+05 -5.7313943232214761e+08 
+3.7000000000000002e+00 -1.0310148308261633e+00 +2.2777855018645670e+00 +4.7120437482140822e+00 +1.3883790391007531e+02 +1.9448499802748894e+05 -2.5966886216409112e+05 -5.8491382722596920e+08 
+3.7999999999999998e+00 -1.0310194225199958e+00 +2.2773054842694416e+00 +4.6743702593590850e+00 +1.5897731320521731e+02 +1.9627622490461613e+05 -3.8421987506784551e+05 -5.9592995053044224e+08 
+3.8999999999999999e+00 -1.0310241679961196e+00 +2.2768366666000346e+00 +4.6463054884409276e+00 +1.7837926862551248e+02 +1.9789477524006320e+05 -5.0378365497255756e+05 -6.0612110051381886e+08 
+4.0000000000000000e+00 -1.0310290661707524e+00 +2.2763820305666749e+00 +4.6282573565595060e+00 +1.9694385090784490e+02 +1.9932851244244608e+05 -6.1778074983953685e+05 -6.1542057006846917e+08 
+4.0999999999999996e+00 -1.0310341159608940e+00 +2.2759445578889861e+00 +4.6206338906909385e+00 +2.1457114243544208e+02 +2.0056529825995173e+05 -7.2563172517005948e+05 -6.2376164617707729e+08 
+4.2000000000000002e+00 -1.0310393162843501e+00 +2.2755272302961189e+00 +4.6238432203982684e+00 +2.3116122734525422e+02 +2.0159299286601500e+05 -8.2675716518279468e+05 -6.3107761043400788e+08 
+4.2999999999999998e+00 -1.0310446660597850e+00 +2.2751330295379564e+00 +4.6382935883549816e+00 +2.4661419134922602e+02 +2.0239945467964184e+05 -9.2057767227768677e+05 -6.3730173829470563e+08 
+4.4000000000000004e+00 -1.0310501642067211e+00 +2.2747649373789143e+00 +4.6643933472938333e+00 +2.6083012205793887e+02 +2.0297254044868966e+05 -1.0065138695112321e+06 -6.4236729959585285e+08 
+4.5000000000000000e+00 -1.0310558096456202e+00 +2.2744259355608603e+00 +4.7025509676102422e+00 +2.7370911087425429e+02 +2.0330010524223236e+05 -1.0839864138260151e+06 -6.4620755899867547e+08 
+4.5999999999999996e+00 -1.0310616002108604e+00 +2.2741184820721880e+00 +4.7530513866473667e+00 +2.8517379699343894e+02 +2.0337378996401469e+05 -1.1525612768745585e+06 -6.4877822939250743e+08 
+4.7000000000000002e+00 -1.0310675295144718e+00 +2.2738431930890397e+00 +4.8157300989979044e+00 +2.9522452656498081e+02 +2.0319886002508551e+05 -1.2123025154636854e+06 -6.5011556764266241e+08 
+4.7999999999999998e+00 -1.0310735901405541e+00 +2.2736002800866397e+00 +4.8903201670728018e+00 +3.0387828676159438e+02 +2.0278365699369222e+05 -1.2633801398441482e+06 -6.5027397268622255e+08 
+4.9000000000000004e+00 -1.0310797746731339e+00 +2.2733899543020910e+00 +4.9765546079280485e+00 +3.1115207217290816e+02 +2.0213652388016210e+05 -1.3059642004002878e+06 -6.4930785255930614e+08 
+5.0000000000000000e+00 -1.0310860756960478e+00 +2.2732124266998261e+00 +5.0741663789876155e+00 +3.1706288594170945e+02 +2.0126580542421321e+05 -1.3402247942398661e+06 -6.4727162581215012e+08 
+5.0999999999999996e+00 -1.0310924857930377e+00 +2.2730679079691973e+00 +5.1828883875565994e+00 +3.2162773985637494e+02 +2.0017984792868796e+05 -1.3663320655482067e+06 -6.4421972077283490e+08 
+5.2000000000000002e+00 -1.0310989975476390e+00 +2.2729566085051185e+00 +5.3024534737050448e+00 +3.2486365491523264e+02 +1.9888699961522361e+05 -1.3844562086067672e+06 -6.4020657733284140e+08 
+5.2999999999999998e+00 -1.0311056035431738e+00 +2.2728787384105180e+00 +5.4325944091119247e+00 +3.2678766128022806e+02 +1.9739561066531367e+05 -1.3947674673180596e+06 -6.3528664720504713e+08 
+5.4000000000000004e+00 -1.0311122963627899e+00 +2.2728345074611940e+00 +5.5730438972489562e+00 +3.2741679932545776e+02 +1.9571403324924639e+05 -1.3974361411258285e+06 -6.2951439416345835e+08 
+5.5000000000000000e+00 -1.0311190685893608e+00 +2.2728241251143801e+00 +5.7235345617950264e+00 +3.2676811938999253e+02 +1.9385062176125895e+05 -1.3926325833040585e+06 -6.2294429521188331e+08 
+5.5999999999999996e+00 -1.0311259128055186e+00 +2.2728478004875479e+00 +5.8837989443199863e+00 +3.2485868241491380e+02 +1.9181373289546490e+05 -1.3805272044775411e+06 -6.1563084104585910e+08 
+5.7000000000000002e+00 -1.0311328215935927e+00 +2.2729057423451571e+00 +6.0535694986656727e+00 +3.2170556035746876e+02 +1.8961172577118239e+05 -1.3612904748148809e+06 -6.0762853670890689e+08 
+5.7999999999999998e+00 -1.0311397875355977e+00 +2.2729981590909727e+00 +6.2325785842164265e+00 +3.1732583642416944e+02 +1.8725296208969326e+05 -1.3350929251766612e+06 -5.9899190243068862e+08 
+5.9000000000000004e+00 -1.0311468032132538e+00 +2.2731252587540594e+00 +6.4205584686234616e+00 +3.1173660549127936e+02 +1.8474580610271625e+05 -1.3021051492962928e+06 -5.8977547354221511e+08 
+6.0000000000000000e+00 -1.0311538612078817e+00 +2.2732872489741895e+00 +6.6172413114860928e+00 +3.0495497455475333e+02 +1.8209862494734605e+05 -1.2624978062333770e+06 -5.8003380215004575e+08 
+6.0999999999999996e+00 -1.0311609541004667e+00 +2.2734843369923361e+00 +6.8223591673834871e+00 +2.9699806301781575e+02 +1.7931978861735080e+05 -1.2164416218187502e+06 -5.6982145708739769e+08 
+6.2000000000000002e+00 -1.0311680744715641e+00 +2.2737167296405079e+00 +7.0356439777463118e+00 +2.8788300301374710e+02 +1.7641767013720563e+05 -1.1641073902884505e+06 -5.5919302481000376e+08 
+6.2999999999999998e+00 -1.0311752149013436e+00 +2.2739846333260054e+00 +7.2568275689291912e+00 +2.7762693986637964e+02 +1.7340064562263995e+05 -1.1056659767636731e+06 -5.4820310975768733e+08 
+6.4000000000000004e+00 -1.0311823679694982e+00 +2.2742882540173781e+00 +7.4856416408428332e+00 +2.6624703252385910e+02 +1.7027709452345071e+05 -1.0412883195531041e+06 -5.3690633559841132e+08 
+6.5000000000000000e+00 -1.0311895262551600e+00 +2.2746277972482409e+00 +7.7218177529120933e+00 +2.5376045207934681e+02 +1.6705539978295303e+05 -9.7114541235779086e+05 -5.2535734511136085e+08 
+6.5999999999999996e+00 -1.0311966834931914e+00 +2.2750030366619973e+00 +7.9651106614805647e+00 +2.4019265022432091e+02 +1.6374260652547888e+05 -8.9542997783462086e+05 -5.1359965751010644e+08 
+6.7000000000000002e+00 -1.0312038383132978e+00 +2.2754118605730720e+00 +8.2154431012165539e+00 +2.2561501835234426e+02 +1.6033881944292015e+05 -8.1452791744200769e+05 -5.0162551713148749e+08 
+6.7999999999999998e+00 -1.0312109906246607e+00 +2.2758516379741001e+00 +8.4727976880993907e+00 +2.1011386887663355e+02 +1.5684198201988731e+05 -7.2890069919262268e+05 -4.8941230877361256e+08 
+6.9000000000000004e+00 -1.0312181403362435e+00 +2.2763197379167326e+00 +8.7371570422332319e+00 +1.9377551365434888e+02 +1.5325003667278725e+05 -6.3900979726175114e+05 -4.7693740799578547e+08 
+7.0000000000000000e+00 -1.0312252873566645e+00 +2.2768135296062888e+00 +9.0085037691717620e+00 +1.7668625990941655e+02 +1.4956092527633259e+05 -5.4531666480236035e+05 -4.6417818417523915e+08 
+7.0999999999999996e+00 -1.0312324315942083e+00 +2.2773303824085578e+00 +9.2868204604822431e+00 +1.5893241002023734e+02 +1.4577258911567854e+05 -4.4828273300611775e+05 -4.5111200010706365e+08 
+7.2000000000000002e+00 -1.0312395729568042e+00 +2.2778676658573875e+00 +9.5720896917659335e+00 +1.4060026127759826e+02 +1.4188296888228142e+05 -3.4836940993814246e+05 -4.3771621180622554e+08 
+7.2999999999999998e+00 -1.0312467113520136e+00 +2.2784227496701352e+00 +9.8642940268117396e+00 +1.2177610541607596e+02 +1.3789000455405554e+05 -2.4603807802205600e+05 -4.2396816775850183e+08 
+7.4000000000000004e+00 -1.0312538466870260e+00 +2.2789930037565185e+00 +1.0163416011903955e+01 +1.0254622831445117e+02 +1.3379163546675656e+05 -1.4175009256258360e+05 -4.0984520909537709e+08 
+7.5000000000000000e+00 -1.0312609788686140e+00 +2.2795757982290095e+00 +1.0469438177193860e+01 +8.2996909715450585e+01 +1.2958580023931395e+05 -3.5966780418697497e+04 -3.9532466903283072e+08 
+7.5999999999999996e+00 -1.0312681078031765e+00 +2.2801685034124870e+00 +1.0782343041352595e+01 +6.3214422873428106e+01 +1.2527043664701984e+05 +7.0850561911156998e+04 -3.8038387210566926e+08 
+7.7000000000000002e+00 -1.0312752333966679e+00 +2.2807684898582488e+00 +1.1102113104306685e+01 +4.3285034170977973e+01 +1.2084348172960384e+05 +1.7824067015933178e+05 -3.6500013452733159e+08 
+7.7999999999999998e+00 -1.0312823555545871e+00 +2.2813731283475724e+00 +1.1428730848869558e+01 +2.3295002979943128e+01 +1.1630287169955378e+05 +2.8574231288160774e+05 -3.4915076352296877e+08 
+7.9000000000000004e+00 -1.0312894741820400e+00 +2.2819797899135761e+00 +1.1762178745858915e+01 +3.3305809750950175e+00 +1.1164654182572362e+05 +3.9289429526760348e+05 -3.3281305665811229e+08 
+8.0000000000000000e+00 -1.0312965891836170e+00 +2.2825858458388666e+00 +1.2102439246010571e+01 -1.6521987775311874e+01 +1.0687242652474125e+05 +4.9923545827866328e+05 -3.1596430203477931e+08 
+8.0999999999999996e+00 -1.0313037004634584e+00 +2.2831886676755517e+00 +1.2449494784774288e+01 -3.6176467423495168e+01 +1.0197845924715481e+05 +6.0430468197046698e+05 -2.9858177762325603e+08 
+8.1999999999999993e+00 -1.0313108079251965e+00 +2.2837856272584935e+00 +1.2803327780167230e+01 -5.5546630767068201e+01 +9.6962572470102110e+04 +7.0764088780052250e+05 -2.8064275102921605e+08 
+8.3000000000000007e+00 -1.0313179114719593e+00 +2.2843740966963098e+00 +1.3163920631798621e+01 -7.4546258985924297e+01 +9.1822697669063273e+04 +8.0878303673926566e+05 -2.6212447916373655e+08 
+8.4000000000000004e+00 -1.0313250110063947e+00 +2.2849514484118170e+00 +1.3531255727094374e+01 -9.3089142854930941e+01 +8.6556765172707484e+04 +9.0727013616219640e+05 -2.4300420741405731e+08 
+8.5000000000000000e+00 -1.0313321064306027e+00 +2.2855150551245860e+00 +1.3905315432855561e+01 -1.1108908307919127e+02 +8.1162704127242847e+04 +1.0026412335428505e+06 -2.2325916967120707e+08 
+8.5999999999999996e+00 -1.0313391968184626e+00 +2.2860626219181559e+00 +1.4285899532544754e+01 -1.2847469199135082e+02 +7.5641425193632880e+04 +1.0945201836303915e+06 -2.0288035367630875e+08 
+8.6999999999999993e+00 -1.0313462784462111e+00 +2.2865934931352663e+00 +1.4672111196834862e+01 -1.4523881451192835e+02 +7.0005917976402998e+04 +1.1829072010934695e+06 -1.8191592604730597e+08 
+8.8000000000000007e+00 -1.0313533470168212e+00 +2.2871075088722752e+00 +1.5062885474060469e+01 -1.6139208084696355e+02 +6.4272272713952734e+04 +1.2679086113843436e+06 -1.6042917516574648e+08 
+8.9000000000000004e+00 -1.0313603982334150e+00 +2.2876045100220344e+00 +1.5457157461169199e+01 -1.7694514563716913e+02 +5.8456578465851198e+04 +1.3496308854583607e+06 -1.3848338344849122e+08 
+9.0000000000000000e+00 -1.0313674277992975e+00 +2.2880843382194320e+00 +1.5853862320120328e+01 -1.9190868530182848e+02 +5.2574922612347938e+04 +1.4281806182392517e+06 -1.1614182408000274e+08 
+9.0999999999999996e+00 -1.0313744314179611e+00 +2.2885468358626362e+00 +1.6251935276491800e+01 -2.0629339869800179e+02 +4.6643390874848847e+04 +1.5036645324801649e+06 -9.3467761103903875e+07 
+9.1999999999999993e+00 -1.0313814047931749e+00 +2.2889918461305809e+00 +1.6650311634205131e+01 -2.2011000762006367e+02 +4.0678067019548900e+04 +1.5761894816082271e+06 -7.0524447969834089e+07 
+9.3000000000000007e+00 -1.0313883436288025e+00 +2.2894192130047011e+00 +1.7047926753286230e+01 -2.3336925745817845e+02 +3.4695033279770520e+04 +1.6458624535970355e+06 -4.7375129548296310e+07 
+9.4000000000000004e+00 -1.0313952436290226e+00 +2.2898287812899270e+00 +1.7443716078258671e+01 -2.4608191780741788e+02 +2.8710369803916979e+04 +1.7127905744210635e+06 -2.4083039479389276e+07 
+9.5000000000000000e+00 -1.0314021004981866e+00 +2.2902203966406898e+00 +1.7836615121183883e+01 -2.5825878324090013e+02 +2.2740154968304338e+04 +1.7770811125659368e+06 -7.1140163605840760e+05 
+9.5999999999999996e+00 -1.0314089099409107e+00 +2.2905939055696325e+00 +1.8225559474990661e+01 -2.6991067358809164e+02 +1.6800465115081683e+04 +1.8388414806544797e+06 +2.2676571135009248e+07 
+9.6999999999999993e+00 -1.0314156676620565e+00 +2.2909491554857762e+00 +1.8609484810535836e+01 -2.8104843503900111e+02 +1.0907374603895805e+04 +1.8981792418020305e+06 +4.6017676776541553e+07 
+9.8000000000000007e+00 -1.0314223693667171e+00 +2.2912859946976867e+00 +1.8987326879079294e+01 -2.9168294023793726e+02 +5.0769557520902481e+03 +1.9552021101392694e+06 +6.9248724333379820e+07 
+9.9000000000000004e+00 -1.0314290107602559e+00 +2.2916042724478545e+00 +1.9358021512799890e+01 -3.0182508934469291e+02 -6.7472118323041809e+02 +2.0100179570464662e+06 +9.2306534051975504e+07 
+1.0000000000000000e+01 -1.0314355875483028e+00 +2.2919038389244606e+00 +1.9720504632208211e+01 -3.1148581032398357e+02 -6.3315881534038153e+03 +2.0627348127083413e+06 +1.1512793810132286e+08 
+1.0100000000000000e+01 -1.0314420954367536e+00 +2.2921845452882144e+00 +2.0073712240928220e+01 -3.2067605979948655e+02 -1.1877579228330633e+04 +2.1134608711758568e+06 +1.3764978016477752e+08 
