# multipoles
# s[mm] polynom_b[n=0][T/m^n] polynom_b[n=1][T/m^n] polynom_b[n=2][T/m^n] polynom_b[n=3][T/m^n] polynom_b[n=4][T/m^n] polynom_b[n=5][T/m^n] polynom_b[n=6][T/m^n] 
+0.0000000000000000e+00 -1.0342103717353637e+00 +2.2815122467290072e+00 +1.8830275744371189e+01 +2.2854874358127984e+02 +2.0215637716644193e+04 +4.2746297142847354e+05 -7.1840231006529197e+07 
-1.0000000000000001e-01 -1.0342107078966960e+00 +2.2812165410053944e+00 +1.8914444489854681e+01 +2.2819639028596680e+02 +1.9722279301901668e+04 +4.4971887343034701e+05 -7.2299155264517292e+07 
-2.0000000000000001e-01 -1.0342110673498364e+00 +2.2809272002026333e+00 +1.8996935918492831e+01 +2.2778292360165298e+02 +1.9268310076275247e+04 +4.7215332256662211e+05 -7.2936537905777320e+07 
-3.0000000000000004e-01 -1.0342114465819265e+00 +2.2806436757265085e+00 +1.9077699580664540e+01 +2.2735383216674703e+02 +1.8849359004464342e+04 +4.9444263764378917e+05 -7.3719890679467842e+07 
-4.0000000000000002e-01 -1.0342118420800532e+00 +2.2803654190112432e+00 +1.9156685011433730e+01 +2.2695460360242649e+02 +1.8461055413053364e+04 +5.1626314368345990e+05 -7.4616727294896275e+07 
-5.0000000000000000e-01 -1.0342122503312656e+00 +2.2800918815366527e+00 +1.9233841730943890e+01 +2.2663072412693194e+02 +1.8099028986573721e+04 +5.3729117368409014e+05 -7.5594563386807486e+07 
-5.9999999999999998e-01 -1.0342126678225290e+00 +2.2798225148279085e+00 +1.9309119237509105e+01 +2.2642767872588408e+02 +1.7758909901821393e+04 +5.5720306700820441e+05 -7.6620917136963323e+07 
-6.9999999999999996e-01 -1.0342130910407157e+00 +2.2795567704633282e+00 +1.9382467005277654e+01 +2.2639095105061932e+02 +1.7436328872175825e+04 +5.7567516946628806e+05 -7.7663309455463544e+07 
-7.9999999999999993e-01 -1.0342135164726514e+00 +2.2792941000889675e+00 +1.9453834488186239e+01 +2.2656602314046492e+02 +1.7126917076949147e+04 +5.9238383434793190e+05 -7.8689263631895602e+07 
-8.9999999999999991e-01 -1.0342139406049449e+00 +2.2790339554160535e+00 +1.9523171097596119e+01 +2.2699837562944836e+02 +1.6826306591474135e+04 +6.0700542070286151e+05 -7.9666307369630307e+07 
-9.9999999999999989e-01 -1.0342143599241354e+00 +2.2787757882314970e+00 +1.9590426219076576e+01 +2.2773348759488260e+02 +1.6530130064594381e+04 +6.1921629361315735e+05 -8.0561971210529789e+07 
-1.0999999999999999e+00 -1.0342147709165617e+00 +2.2785190504108770e+00 +1.9655549195286067e+01 +2.2881683629330263e+02 +1.6234021051423213e+04 +6.2869282525218977e+05 -8.1343790117222965e+07 
-1.2000000000000000e+00 -1.0342151700684246e+00 +2.2782631939187241e+00 +1.9718489331220042e+01 +2.3029389732613149e+02 +1.5933613915955726e+04 +6.3511139327107195e+05 -8.1979302984822541e+07 
-1.3000000000000000e+00 -1.0342155538657012e+00 +2.2780076708149459e+00 +1.9779195883295284e+01 +2.3221014456062423e+02 +1.5624544040197823e+04 +6.3814838080254360e+05 -8.2436053617192522e+07 
-1.4000000000000001e+00 -1.0342159187941868e+00 +2.2777519332713569e+00 +1.9837618062228149e+01 +2.3461104980560006e+02 +1.5302447771777015e+04 +6.3748017772546632e+05 -8.2681590453708455e+07 
-1.5000000000000002e+00 -1.0342162613393997e+00 +2.2774954335689213e+00 +1.9893705020840596e+01 +2.3754208302824588e+02 +1.4962962656673762e+04 +6.3278317888339679e+05 -8.2683467655152768e+07 
-1.6000000000000003e+00 -1.0342165777259777e+00 +2.2772379916382759e+00 +1.9947309031239360e+01 +2.4103056016687398e+02 +1.4604878802322040e+04 +6.2384951115033380e+05 -8.2427538296171799e+07 
-1.7000000000000004e+00 -1.0342168630908857e+00 +2.2769809844636550e+00 +1.9997881602763250e+01 +2.4502743661189177e+02 +1.4240068638690123e+04 +6.1095746006553341e+05 -8.1975681167229012e+07 
-1.8000000000000005e+00 -1.0342171122877957e+00 +2.2767262008768232e+00 +2.0044770566257068e+01 +2.4946360081361274e+02 +1.3883799270059704e+04 +5.9451290903531970e+05 -8.1409524683923006e+07 
-1.9000000000000006e+00 -1.0342173201704208e+00 +2.2764754297612386e+00 +2.0087323743370831e+01 +2.5426994014566711e+02 +1.3551338123623780e+04 +5.7492174627651414e+05 -8.0810699217566937e+07 
-2.0000000000000004e+00 -1.0342174815927105e+00 +2.2762304600560568e+00 +2.0124888972340333e+01 +2.5937734076217345e+02 +1.3257952454712049e+04 +5.5258986589954002e+05 -8.0260834744953021e+07 
-2.1000000000000005e+00 -1.0342175914086391e+00 +2.2759930807431141e+00 +2.0156814081199979e+01 +2.6471668794976307e+02 +1.3018909873256565e+04 +5.2792316607091506e+05 -7.9841563423864439e+07 
-2.2000000000000006e+00 -1.0342176444724280e+00 +2.2757650808446401e+00 +2.0182446917230227e+01 +2.7021886613450954e+02 +1.2849477777922160e+04 +5.0132754929642321e+05 -7.9634516898770019e+07 
-2.3000000000000007e+00 -1.0342176356385007e+00 +2.2755482494237480e+00 +2.0201135340759222e+01 +2.7581475884244423e+02 +1.2764923491835620e+04 +4.7320892285237159e+05 -7.9721327018883586e+07 
-2.4000000000000008e+00 -1.0342175597615337e+00 +2.2753443755824865e+00 +2.0212227232928043e+01 +2.8143524870356538e+02 +1.2780514113150088e+04 +4.4397319906397356e+05 -8.0183625138783410e+07 
-2.5000000000000009e+00 -1.0342174116964724e+00 +2.2751552484493107e+00 +2.0215070498120159e+01 +2.8701121778551817e+02 +1.2911516478602949e+04 +4.1402629359003727e+05 -8.1103041992865294e+07 
-2.6000000000000010e+00 -1.0342171862985436e+00 +2.2749826571797169e+00 +2.0209013065162324e+01 +2.9247354753158919e+02 +1.3173197151183775e+04 +3.8377412604745233e+05 -8.2561207684096053e+07 
-2.7000000000000011e+00 -1.0342168784233370e+00 +2.2748283909561406e+00 +2.0193402899731254e+01 +2.9775311870452435e+02 +1.3580822182021318e+04 +3.5362262065766653e+05 -8.4639750563995063e+07 
-2.8000000000000012e+00 -1.0342164829268381e+00 +2.2746942389795608e+00 +2.0167588007682294e+01 +3.0278081162804199e+02 +1.4149657059343599e+04 +3.2397770497952448e+05 -8.7420297042939797e+07 
-2.9000000000000012e+00 -1.0342159946653697e+00 +2.2745819904662397e+00 +2.0130916428244213e+01 +3.0748750619646023e+02 +1.4894966847362184e+04 +2.9524531024730759e+05 -9.0984472296234205e+07 
-3.0000000000000013e+00 -1.0342154084957211e+00 +2.2744934346442176e+00 +2.0082736251917719e+01 +3.1180408196856553e+02 +1.5832015844044614e+04 +2.6783137098720990e+05 -9.5413898649412379e+07 
-3.1000000000000014e+00 -1.0342147192751265e+00 +2.2744303607530623e+00 +2.0022395617211206e+01 +3.1566141811841243e+02 +1.6976067656682459e+04 +2.4214182560700964e+05 -1.0079019599580093e+08 
-3.2000000000000015e+00 -1.0342139218613187e+00 +2.2743945580305636e+00 +1.9949242718611220e+01 +3.1899039379394674e+02 +1.8342385050727982e+04 +2.1858261452831395e+05 -1.0719498109361871e+08 
-3.3000000000000016e+00 -1.0342130111125820e+00 +2.2743878157259756e+00 +1.9862625812910849e+01 +3.2172188766067353e+02 +1.9946229846526243e+04 +1.9755968319542662e+05 -1.1470986714608634e+08 
-3.4000000000000017e+00 -1.0342119818876916e+00 +2.2744119230735369e+00 +1.9761893213170758e+01 +3.2378677867824246e+02 +2.1802863027216717e+04 +1.7947897767075192e+05 -1.2341646431100696e+08 
-3.5000000000000018e+00 -1.0342108290460690e+00 +2.2744686693103482e+00 +1.9646393308591133e+01 +3.2511594546048798e+02 +2.3927544371877080e+04 +1.6474644922877307e+05 -1.3339637796902099e+08 
-3.6000000000000019e+00 -1.0342095499258395e+00 +2.2745594087032104e+00 +1.9515818911231058e+01 +3.2565741785935523e+02 +2.6328355281313739e+04 +1.5366925900344262e+05 -1.4469494461530548e+08 
-3.7000000000000020e+00 -1.0342081519424060e+00 +2.2746834377902347e+00 +1.9371284249460864e+01 +3.2543857965633845e+02 +2.8983391051988190e+04 +1.4609235462247659e+05 -1.5720544171480897e+08 
-3.8000000000000020e+00 -1.0342066450722127e+00 +2.2748394544125423e+00 +1.9214270846147404e+01 +3.2450953648814095e+02 +3.1862900141496557e+04 +1.4172721658869673e+05 -1.7078119000914884e+08 
-3.9000000000000021e+00 -1.0342050392916140e+00 +2.2750261563172498e+00 +1.9046260202272808e+01 +3.2292039828473202e+02 +3.4937131387560818e+04 +1.4028529358934038e+05 -1.8527551170489445e+08 
-4.0000000000000018e+00 -1.0342033445768817e+00 +2.2752422411780442e+00 +1.8868733793715187e+01 +3.2072127848587940e+02 +3.8176334111955854e+04 +1.4147800715774475e+05 -2.0054173106946304e+08 
-4.1000000000000014e+00 -1.0342015709041905e+00 +2.2754864065900615e+00 +1.8683173070574806e+01 +3.1796229426623643e+02 +4.1550758119067614e+04 +1.4501674994943844e+05 -2.1643317436533242e+08 
-4.2000000000000011e+00 -1.0341997282495523e+00 +2.2757573500552755e+00 +1.8491059447210727e+01 +3.1469356700171880e+02 +4.5030653885345884e+04 +1.5061288274275523e+05 -2.3280317073203543e+08 
-4.3000000000000007e+00 -1.0341978265888614e+00 +2.2760537689856939e+00 +1.8293874309820183e+01 +3.1096522226033096e+02 +4.8586272391731065e+04 +1.5797773404798191e+05 -2.4950505130222851e+08 
-4.4000000000000004e+00 -1.0341958758978331e+00 +2.2763743606863378e+00 +1.8093099006611162e+01 +3.0682739036368906e+02 +5.2187865313062845e+04 +1.6682259647171811e+05 -2.6639215008981538e+08 
-4.5000000000000000e+00 -1.0341938861519953e+00 +2.2767178223603097e+00 +1.7890214847981600e+01 +3.0233020627924833e+02 +5.5805684997286306e+04 +1.7685872704573942e+05 -2.8331780382359099e+08 
-4.5999999999999996e+00 -1.0341918673267041e+00 +2.2770828510895389e+00 +1.7686703107288793e+01 +2.9752381027497790e+02 +5.9409984449552998e+04 +1.8779734295541511e+05 -3.0013535184698224e+08 
-4.6999999999999993e+00 -1.0341898293970504e+00 +2.2774681438373476e+00 +1.7484045010271910e+01 +2.9245834789029510e+02 +6.2971017512422171e+04 +1.9934962139286939e+05 -3.1669813689783883e+08 
-4.7999999999999989e+00 -1.0341877823379169e+00 +2.2778723974397099e+00 +1.7283721740728446e+01 +2.8718397025356580e+02 +6.6459038758955125e+04 +2.1122669734264788e+05 -3.3285950458146739e+08 
-4.8999999999999986e+00 -1.0341857361239180e+00 +2.2782943085983223e+00 +1.7087214433570200e+01 +2.8175083436610873e+02 +6.9844303610981195e+04 +2.2313966151068124e+05 -3.4847280387659401e+08 
-4.9999999999999982e+00 -1.0341837007293893e+00 +2.2787325738692745e+00 +1.6896004172727167e+01 +2.7620910346995680e+02 +7.3097068370567998e+04 +2.3479955787893137e+05 -3.6339138723864138e+08 
-5.0999999999999979e+00 -1.0341816861284023e+00 +2.2791858896628581e+00 +1.6711571994341998e+01 +2.7060894713903690e+02 +7.6187590144490838e+04 +2.4591738275645292e+05 -3.7746861018366116e+08 
-5.1999999999999975e+00 -1.0341797022946877e+00 +2.2796529522367024e+00 +1.6535398875063571e+01 +2.6500054153444393e+02 +7.9086127065526627e+04 +2.5620408293490732e+05 -3.9055783231206244e+08 
-5.2999999999999972e+00 -1.0341777592016446e+00 +2.2801324576839557e+00 +1.6368965734072855e+01 +2.5943406981194033e+02 +8.1762938242050412e+04 +2.6537055296190106e+05 -4.0251241702127129e+08 
-5.3999999999999968e+00 -1.0341758668223413e+00 +2.2806231019300554e+00 +1.6213753433342543e+01 +2.5395972228195029e+02 +8.4188283738067010e+04 +2.7312763382008410e+05 -4.1318573134401935e+08 
-5.4999999999999964e+00 -1.0341740351295008e+00 +2.2811235807164301e+00 +1.6071242772666857e+01 +2.4862769694719603e+02 +8.6332424673409594e+04 +2.7918610819276917e+05 -4.2243114653162301e+08 
-5.5999999999999961e+00 -1.0341722733034029e+00 +2.2816326993509985e+00 +1.5942669409526406e+01 +2.4347925476904598e+02 +8.8170950419065470e+04 +2.8331359885231865e+05 -4.3012921678806108e+08 
-5.6999999999999957e+00 -1.0341705871877249e+00 +2.2821501522210612e+00 +1.5828253398687133e+01 +2.3850612673277780e+02 +8.9701972027206109e+04 +2.8558909372821701e+05 -4.3627621327871925e+08 
-5.7999999999999954e+00 -1.0341689817463218e+00 +2.2826759762922957e+00 +1.5727949635699659e+01 +2.3368386889729038e+02 +9.0929604353789764e+04 +2.8619252003800095e+05 -4.4089950222888178e+08 
-5.8999999999999950e+00 -1.0341674619432317e+00 +2.2832102084360124e+00 +1.5641713046889432e+01 +2.2898803843336751e+02 +9.1857961773882300e+04 +2.8530380370857555e+05 -4.4402644803976172e+08 
-5.9999999999999947e+00 -1.0341660327426718e+00 +2.2837528853677354e+00 +1.5569498597800825e+01 +2.2439419609061500e+02 +9.2491157868877606e+04 +2.8310285367866774e+05 -4.4568441135248202e+08 
-6.0999999999999943e+00 -1.0341646991091069e+00 +2.2843040436520861e+00 +1.5511261302871565e+01 +2.1987790595851774e+02 +9.2833305238324931e+04 +2.7976956368590822e+05 -4.4590074815242612e+08 
-6.1999999999999940e+00 -1.0341634660072769e+00 +2.2848637196835675e+00 +1.5466956229470473e+01 +2.1541473596229898e+02 +9.2888515425746707e+04 +2.7548380967672897e+05 -4.4470280943764782e+08 
-6.2999999999999936e+00 -1.0341623384021246e+00 +2.2854319496931037e+00 +1.5436538491461185e+01 +2.1098025758495623e+02 +9.2660899025993960e+04 +2.7042545179756556e+05 -4.4211794169962597e+08 
-6.3999999999999932e+00 -1.0341613212588550e+00 +2.2860087697363407e+00 +1.5419963256613404e+01 +2.0655004611887767e+02 +9.2154565547525533e+04 +2.6477433330420294e+05 -4.3817348628834027e+08 
-6.4999999999999929e+00 -1.0341604195429479e+00 +2.2865942156978409e+00 +1.5417185749665697e+01 +2.0209968048320340e+02 +9.1373623349662885e+04 +2.5871028191298139e+05 -4.3289677911248940e+08 
-6.5999999999999925e+00 -1.0341596382201648e+00 +2.2871883232780803e+00 +1.5428161254772343e+01 +1.9760474350021951e+02 +9.0322179590590007e+04 +2.5241310860558023e+05 -4.2631515039395583e+08 
-6.6999999999999922e+00 -1.0341589822565498e+00 +2.2877911279914152e+00 +1.5452845116571163e+01 +1.9304082189532076e+02 +8.9004340201949628e+04 +2.4606260791871935e+05 -4.1845592454061621e+08 
-6.7999999999999918e+00 -1.0341584566184261e+00 +2.2884026651644933e+00 +1.5491192740615741e+01 +1.8838350623530431e+02 +8.7424209880557115e+04 +2.3983855872878086e+05 -4.0934642011915028e+08 
-6.8999999999999915e+00 -1.0341580662724188e+00 +2.2890229699274385e+00 +1.5543159598179635e+01 +1.8360839113797792e+02 +8.5585891988284362e+04 +2.3392072328156946e+05 -3.9901394936998427e+08 
-6.9999999999999911e+00 -1.0341578161854954e+00 +2.2896520772142637e+00 +1.5608701231702039e+01 +1.7869107515299299e+02 +8.3493488447094802e+04 +2.2848884831826351e+05 -3.8748581771167904e+08 
-7.0999999999999908e+00 -1.0341577113249063e+00 +2.2902900217512689e+00 +1.5687773249577626e+01 +1.7360716103030919e+02 +8.1151099833460394e+04 +2.2372266382529648e+05 -3.7478932419500631e+08 
-7.1999999999999904e+00 -1.0341577566582376e+00 +2.2909368380584345e+00 +1.5780331332914407e+01 +1.6833225560249861e+02 +7.8562825246188338e+04 +2.1980188406066853e+05 -3.6095176087112498e+08 
-7.2999999999999901e+00 -1.0341579571534172e+00 +2.2915925604487120e+00 +1.5886331237901034e+01 +1.6284196971637368e+02 +7.5732762256891889e+04 +2.1690620832115391e+05 -3.4600041255772406e+08 
-7.3999999999999897e+00 -1.0341583177787459e+00 +2.2922572230067919e+00 +1.6005728801429893e+01 +1.5711191877448763e+02 +7.2665006798983697e+04 +2.1521531813067850e+05 -3.2996255631297034e+08 
-7.4999999999999893e+00 -1.0341588435028295e+00 +2.2929308595675719e+00 +1.6138479927095005e+01 +1.5111772340705838e+02 +6.9363653503970694e+04 +2.1490887777730872e+05 -3.1286546286267501e+08 
-7.5999999999999890e+00 -1.0341595372897625e+00 +2.2936130986944283e+00 +1.6284342415363518e+01 +1.4484666363217715e+02 +6.5836452737303727e+04 +2.1610777196720772e+05 -2.9475276099088734e+08 
-7.6999999999999886e+00 -1.0341603939863488e+00 +2.2943021508468751e+00 +1.6442302678740088e+01 +1.3832708373059964e+02 +6.2105049486411830e+04 +2.1871953926692734e+05 -2.7572973245597601e+08 
-7.7999999999999883e+00 -1.0341614063809419e+00 +2.2949959169651639e+00 +1.6611157916439698e+01 +1.3159640743878356e+02 +5.8194419989741822e+04 +2.2260287906410240e+05 -2.5591629239918125e+08 
-7.8999999999999879e+00 -1.0341625672611887e+00 +2.2956922982264771e+00 +1.6789705283697746e+01 +1.2469204728732466e+02 +5.4129540935054763e+04 +2.2761656922672383e+05 -2.3543235729491383e+08 
-7.9999999999999876e+00 -1.0341638694140223e+00 +2.2963891960642004e+00 +1.6976741893151562e+01 +1.1765140368211915e+02 +4.9935389440727107e+04 +2.3361947349991516e+05 -2.1439784500283694e+08 
-8.0999999999999872e+00 -1.0341653056256599e+00 +2.2970845121702057e+00 +1.7171064815739488e+01 +1.1051186469497594e+02 +4.5636943025456923e+04 +2.4047054320342030e+05 -1.9293267459731659e+08 
-8.1999999999999869e+00 -1.0341668686815420e+00 +2.2977761485094867e+00 +1.7371471075528483e+01 +1.0331080548450913e+02 +4.1259179689177319e+04 +2.4802882111473565e+05 -1.7115676671899143e+08 
-8.2999999999999865e+00 -1.0341685513662981e+00 +2.2984620073317501e+00 +1.7576757645080360e+01 +9.6085587825719784e+01 +3.6827078002020622e+04 +2.5615344466292186e+05 -1.4919004400948632e+08 
-8.3999999999999861e+00 -1.0341703464638039e+00 +2.2991399911768000e+00 +1.7785721456049714e+01 +8.8873559803309078e+01 +3.2365616875088366e+04 +2.6470364820377569e+05 -1.2715242995795600e+08 
-8.4999999999999858e+00 -1.0341722467570644e+00 +2.2998080028939065e+00 +1.7997159383731496e+01 +8.1712055107291448e+01 +2.7899775859886100e+04 +2.7353876761405123e+05 -1.0516385035356788e+08 
-8.5999999999999854e+00 -1.0341742450281923e+00 +2.3004639456382754e+00 +1.8209868247696605e+01 +7.4638392992545150e+01 +2.3454535110499775e+04 +2.8251824098838383e+05 -8.3344233045295164e+07 
-8.6999999999999851e+00 -1.0341763340584984e+00 +2.3011057228987171e+00 +1.8422644823656306e+01 +6.7689877323233219e+01 +1.9054875149921438e+04 +2.9150161471382540e+05 -6.1813506820282735e+07 
-8.7999999999999847e+00 -1.0341785066283131e+00 +2.3017312384925535e+00 +1.8634285821733872e+01 +6.0903796588298455e+01 +1.4725777281690833e+04 +3.0034854383027443e+05 -4.0691603371148825e+07 
-8.8999999999999844e+00 -1.0341807555170617e+00 +2.3023383965887905e+00 +1.8843587899376111e+01 +5.4317423074767269e+01 +1.0492223310388781e+04 +3.0891879735232168e+05 -2.0098455881230354e+07 
-8.9999999999999840e+00 -1.0341830735032136e+00 +2.3029251017101338e+00 +1.9049347654163331e+01 +4.7968012672409607e+01 +6.3791956928275031e+03 +3.1707225986280671e+05 -1.5399980139589478e+05 
-9.0999999999999837e+00 -1.0341854533642483e+00 +2.3034892587447704e+00 +1.9250361622448967e+01 +4.1892804381031652e+01 +2.4116775310440003e+03 +3.2466893488163233e+05 +1.9021827267818082e+07 
-9.1999999999999833e+00 -1.0341878878766482e+00 +2.3040287729618485e+00 +1.9445426279302641e+01 +3.6129019714928511e+01 -1.3853474274762921e+03 +3.3156894883305003e+05 +3.7309085561119035e+07 
-9.2999999999999829e+00 -1.0341903698158648e+00 +2.3045415500153310e+00 +1.9633338035586910e+01 +3.0713862458642065e+01 -4.9868947493667283e+03 +3.3763255289271142e+05 +5.4587832990405865e+07 
-9.3999999999999826e+00 -1.0341928919562817e+00 +2.3050254959617775e+00 +1.9812893234714743e+01 +2.5684517995732630e+01 -8.3679792616888190e+03 +3.4272012743016944e+05 +7.0738124892837599e+07 
-9.4999999999999822e+00 -1.0341954470713497e+00 +2.3054785174202972e+00 +1.9982888200037578e+01 +2.1078149271562783e+01 -1.1503616126656229e+04 +3.4669219250655198e+05 +8.5640018544671893e+07 
-9.5999999999999819e+00 -1.0341980283962251e+00 +2.3058992070122488e+00 +2.0142406175569224e+01 +1.6920747875825825e+01 -1.4375224693434799e+04 +3.4944412252750003e+05 +9.9204642799667194e+07 
-9.6999999999999815e+00 -1.0342006308496163e+00 +2.3062880061321596e+00 +2.0291587717413076e+01 +1.3218908902910954e+01 -1.6988437510519772e+04 +3.5088504347382515e+05 +1.1146285903685850e+08 
-9.7999999999999812e+00 -1.0342032497576181e+00 +2.3066455979819982e+00 +2.0430825299902434e+01 +9.9809553813221026e+00 -1.9354850437066943e+04 +3.5089327009866486e+05 +1.2247564091427125e+08 
-9.8999999999999808e+00 -1.0342058804463539e+00 +2.3069726655262563e+00 +2.0560511380697534e+01 +7.2152248904277965e+00 -2.1486059296087224e+04 +3.4934701402857929e+05 +1.3230396304002137e+08 
-9.9999999999999805e+00 -1.0342085182416714e+00 +2.3072698917112144e+00 +2.0681038334948632e+01 +4.9300606508634317e+00 -2.3393658073591727e+04 +3.4612443697717873e+05 +1.4100879111405036e+08 
-1.0099999999999980e+01 -1.0342111584691893e+00 +2.3075379594560710e+00 +2.0792798458896748e+01 +3.1338119558863617e+00 -2.5089238971301929e+04 +3.4110364768113388e+05 +1.4865108214933902e+08 
