# multipoles
# s[mm] polynom_b[n=0][T/m^n] polynom_b[n=1][T/m^n] polynom_b[n=2][T/m^n] polynom_b[n=3][T/m^n] polynom_b[n=4][T/m^n] polynom_b[n=5][T/m^n] polynom_b[n=6][T/m^n] 
+0.0000000000000000e+00 -1.0328880486573986e+00 +2.2970221694271866e+00 +1.6852157354459138e+01 -5.2115569975558394e+01 +5.1229051375083982e+04 +1.2081110347388699e+06 -2.2785104640580195e+08 
+1.0000000000000001e-01 -1.0328853930330228e+00 +2.2966841874866963e+00 +1.6763110478698756e+01 -4.7069027901773644e+01 +5.2702736349289466e+04 +1.1861120106070754e+06 -2.3467389793339780e+08 
+2.0000000000000001e-01 -1.0328826960489286e+00 +2.2963363451449506e+00 +1.6668458000517369e+01 -4.1908766670830865e+01 +5.4274363918766379e+04 +1.1637031436932406e+06 -2.4188592728180179e+08 
+3.0000000000000004e-01 -1.0328799619639730e+00 +2.2959801780363516e+00 +1.6568530368971555e+01 -3.6660513360396976e+01 +5.5939178556122803e+04 +1.1409673547884217e+06 -2.4946644720725778e+08 
+4.0000000000000002e-01 -1.0328771950370232e+00 +2.2956172218756969e+00 +1.6463658040662963e+01 -3.1349997991179642e+01 +5.7692424535920509e+04 +1.1179875830279393e+06 -2.5739476929979879e+08 
+5.0000000000000000e-01 -1.0328743995269511e+00 +2.2952490124395486e+00 +1.6354171477928965e+01 -2.6002953008843953e+01 +5.9529345981991588e+04 +1.0948467829166462e+06 -2.6565020423707256e+08 
+5.9999999999999998e-01 -1.0328715808223474e+00 +2.2948773969023790e+00 +1.6240447113182004e+01 -2.0652968018896299e+01 +6.1444659112092108e+04 +1.0716707514083928e+06 -2.7421073779934019e+08 
+6.9999999999999996e-01 -1.0328687487735722e+00 +2.2945054727856840e+00 +1.6123035222418796e+01 -1.5365210534099260e+01 +6.3431181487340800e+04 +1.0487579407665925e+06 -2.8305013555360848e+08 
+7.9999999999999993e-01 -1.0328659143324403e+00 +2.2941366515624897e+00 +1.6002527068319893e+01 -1.0212786260736735e+01 +6.5481308621078766e+04 +1.0264503287404546e+06 -2.9214137507396567e+08 
+8.9999999999999991e-01 -1.0328630884508874e+00 +2.2937743447244752e+00 +1.5879513923502861e+01 -5.2688021840125074e+00 +6.7587435916073780e+04 +1.0050899020290710e+06 -3.0145743363131410e+08 
+9.9999999999999989e-01 -1.0328602820809936e+00 +2.2934219637661477e+00 +1.5754587071936701e+01 -6.0636611426293008e-01 +6.9741958667066647e+04 +9.8501865366208367e+05 -3.1097128830935019e+08 
+1.0999999999999999e+00 -1.0328575061750467e+00 +2.2930829201762322e+00 +1.5628337813476429e+01 +3.7014135262375603e+00 +7.1937272009488282e+04 +9.6657858184996690e+05 -3.2065591587964195e+08 
+1.2000000000000000e+00 -1.0328547716856067e+00 +2.2927606254133228e+00 +1.5501357471087834e+01 +7.5814283892795586e+00 +7.4165770799359059e+04 +9.5011168604735809e+05 -3.3048429229933262e+08 
+1.3000000000000000e+00 -1.0328520895654398e+00 +2.2924584909027534e+00 +1.5374237378166590e+01 +1.0960570265511398e+01 +7.6419849901000474e+04 +9.3595996663807717e+05 -3.4042939422925824e+08 
+1.4000000000000001e+00 -1.0328494707676552e+00 +2.2921799280185073e+00 +1.5247568894868271e+01 +1.3765731598704440e+01 +7.8691903892592731e+04 +9.2446542196330638e+05 -3.5046419770041883e+08 
+1.5000000000000002e+00 -1.0328469262456434e+00 +2.2919283480669908e+00 +1.5121943397305740e+01 +1.5923805917429338e+01 +8.0974327307618645e+04 +9.1597004591551062e+05 -3.6056167938398731e+08 
+1.6000000000000003e+00 -1.0328444669531898e+00 +2.2917071622772895e+00 +1.4997952289894419e+01 +1.7361688108039687e+01 +8.3259514425142901e+04 +9.1081582637340680e+05 -3.7069481568320471e+08 
+1.7000000000000004e+00 -1.0328421038444300e+00 +2.2915197817870663e+00 +1.4876186996467281e+01 +1.8006274791590005e+01 +8.5539859477645034e+04 +9.0934474308439239e+05 -3.8083658385410684e+08 
+1.8000000000000005e+00 -1.0328398478739400e+00 +2.2913696176260312e+00 +1.4757238970085016e+01 +1.7784464780284431e+01 +8.7807756481781995e+04 +9.1189876507342269e+05 -3.9095996126562071e+08 
+1.9000000000000006e+00 -1.0328377099967467e+00 +2.2912600807059080e+00 +1.4641699691664609e+01 +1.6623159356766681e+01 +9.0055599304484815e+04 +9.1881984904195555e+05 -4.0103792585180581e+08 
+2.0000000000000004e+00 -1.0328357011683331e+00 +2.2911945818019230e+00 +1.4530160667820427e+01 +1.4449262769428065e+01 +9.2275781728496164e+04 +9.3044993659342197e+05 -4.1104345650731522e+08 
+2.1000000000000005e+00 -1.0328338323447093e+00 +2.2911765315417965e+00 +1.4423213438127254e+01 +1.1189682549963733e+01 +9.4460697344275381e+04 +9.4713095238482812e+05 -4.2094953268249178e+08 
+2.2000000000000006e+00 -1.0328321144824273e+00 +2.2912093403961964e+00 +1.4321449574222550e+01 +6.7713297436566391e+00 +9.6602739597667140e+04 +9.6920480291675217e+05 -4.3072913471362609e+08 
+2.3000000000000007e+00 -1.0328305585386204e+00 +2.2912964186538605e+00 +1.4225460682092143e+01 +1.1211196377085535e+00 +9.8694301776174631e+04 +9.9701337225899962e+05 -4.4035524386270964e+08 
+2.4000000000000008e+00 -1.0328291754709946e+00 +2.2914411764207450e+00 +1.4135838399026211e+01 -5.8340282701453496e+00 +1.0072777709576653e+05 +1.0308985223909905e+06 -4.4980084283169729e+08 
+2.5000000000000009e+00 -1.0328279762379038e+00 +2.2916470235899213e+00 +1.4053174399684742e+01 -1.4167189378870688e+01 +1.0269555862414799e+05 +1.0712020879638526e+06 -4.5903891552780360e+08 
+2.6000000000000010e+00 -1.0328269678534869e+00 +2.2919157294056496e+00 +1.3977939395675319e+01 -2.3912887466677358e+01 +1.0459085442548698e+05 +1.1180810496959065e+06 -4.6804439796255958e+08 
+2.7000000000000011e+00 -1.0328261418481697e+00 +2.2922423855816798e+00 +1.3910213249406794e+01 -3.4948408767053216e+01 +1.0640807929630978e+05 +1.1709409190904347e+06 -4.7679006176230133e+08 
+2.8000000000000012e+00 -1.0328254859529387e+00 +2.2926203809971679e+00 +1.3850001320984971e+01 -4.7110836327306096e+01 +1.0814143594187863e+05 +1.2289956546480230e+06 -4.8524564823639339e+08 
+2.9000000000000012e+00 -1.0328249878982481e+00 +2.2930431043946813e+00 +1.3797308921302726e+01 -6.0237246939800158e+01 +1.0978512767651983e+05 +1.2914591728614818e+06 -4.9338090046795362e+08 
+3.0000000000000013e+00 -1.0328246354141246e+00 +2.2935039443868850e+00 +1.3752141329127127e+01 -7.4164711044539800e+01 +1.1133335803481539e+05 +1.3575453465413908e+06 -5.0116556121309018e+08 
+3.1000000000000014e+00 -1.0328244162299431e+00 +2.2939962894561012e+00 +1.3714503764741824e+01 -8.8730292472623432e+01 +1.1278033123452321e+05 +1.4264680027517527e+06 -5.0856937496367168e+08 
+3.2000000000000015e+00 -1.0328243180744416e+00 +2.2945135279455200e+00 +1.3684401396562249e+01 -1.0377104790490156e+02 +1.1412025198784763e+05 +1.4974409189367772e+06 -5.1556208683872062e+08 
+3.3000000000000016e+00 -1.0328243286756507e+00 +2.2950490480629537e+00 +1.3661839335692076e+01 -1.1912402672025534e+02 +1.1534732555070292e+05 +1.5696778213829603e+06 -5.2211344263366795e+08 
+3.4000000000000017e+00 -1.0328244357607597e+00 +2.2955962378709009e+00 +1.3646822621256851e+01 -1.3462627043808251e+02 +1.1645575795756419e+05 +1.6423923813255792e+06 -5.2819318977718556e+08 
+3.5000000000000018e+00 -1.0328246270561487e+00 +2.2961484852879019e+00 +1.3639356229767035e+01 -1.5011481248868961e+02 +1.1743975577547905e+05 +1.7147982129360773e+06 -5.3377107593696535e+08 
+3.6000000000000019e+00 -1.0328248902872306e+00 +2.2966991780899377e+00 +1.3639445057056932e+01 -1.6542667799232234e+02 +1.1829352640597994e+05 +1.7861088713932587e+06 -5.3881685030617082e+08 
+3.7000000000000020e+00 -1.0328252131784010e+00 +2.2972417038969835e+00 +1.3647093916772752e+01 -1.8039888308113001e+02 +1.1901127805273185e+05 +1.8555378482150091e+06 -5.4330026324403071e+08 
+3.8000000000000020e+00 -1.0328255834529905e+00 +2.2977694501760033e+00 +1.3662307536615732e+01 -1.9486843473309173e+02 +1.1958721974338709e+05 +1.9222985696729962e+06 -5.4719106620306265e+08 
+3.9000000000000021e+00 -1.0328259888331977e+00 +2.2982758042423335e+00 +1.3685090553851257e+01 -2.0867233054455676e+02 +1.2001556136243691e+05 +1.9856043948035501e+06 -5.5045901170918775e+08 
+4.0000000000000018e+00 -1.0328264170399937e+00 +2.2987541532484705e+00 +1.3715447508035531e+01 -2.2164755813529320e+02 +1.2029051372297232e+05 +2.0446686112852248e+06 -5.5307385347529674e+08 
+4.1000000000000014e+00 -1.0328268557930513e+00 +2.2991978841857525e+00 +1.3753382832876705e+01 -2.3363109491256202e+02 +1.2040628868975714e+05 +2.0987044333398966e+06 -5.5500534687053192e+08 
+4.2000000000000011e+00 -1.0328272928107562e+00 +2.2996003838833143e+00 +1.3798900863813872e+01 -2.4445990780183377e+02 +1.2035709895990745e+05 +2.1469249995957492e+06 -5.5622324762572789e+08 
+4.3000000000000007e+00 -1.0328277158099848e+00 +2.2999550389992760e+00 +1.3852005811720391e+01 -2.5397095268705650e+02 +1.2013715852322409e+05 +2.1885433690609946e+06 -5.5669731388020563e+08 
+4.4000000000000004e+00 -1.0328281125061418e+00 +2.3002552360261728e+00 +1.3912701772021633e+01 -2.6200117433928261e+02 +1.1974068242879349e+05 +2.2227725201542499e+06 -5.5639730486967778e+08 
+4.5000000000000000e+00 -1.0328284706131377e+00 +2.3004943612954722e+00 +1.3980992727179066e+01 -2.6838750645615352e+02 +1.1916188664516284e+05 +2.2488253512803991e+06 -5.5529297989764285e+08 
+4.5999999999999996e+00 -1.0328287799712557e+00 +2.3006671220313772e+00 +1.4056823454045519e+01 -2.7299870509868060e+02 +1.1839690475530822e+05 +2.2660636025332501e+06 -5.5336187480562830e+08 
+4.6999999999999993e+00 -1.0328290385398515e+00 +2.3007737663215622e+00 +1.4139771364960742e+01 -2.7583520017784900e+02 +1.1745246558095489e+05 +2.2744443377416437e+06 -5.5062648397703826e+08 
+4.7999999999999989e+00 -1.0328292462006585e+00 +2.3008160031872951e+00 +1.4229286973343388e+01 -2.7693174631629944e+02 +1.1633872377788744e+05 +2.2740746568342540e+06 -5.4712415239729655e+08 
+4.8999999999999986e+00 -1.0328294028350855e+00 +2.3007955419323296e+00 +1.4324820725297483e+01 -2.7632310740538071e+02 +1.1506583555881654e+05 +2.2650617111097858e+06 -5.4289223286596286e+08 
+4.9999999999999982e+00 -1.0328295083241306e+00 +2.3007140921407196e+00 +1.4425822993869318e+01 -2.7404405694659226e+02 +1.1364395879443613e+05 +2.2475127098385035e+06 -5.3796808680015612e+08 
+5.0999999999999979e+00 -1.0328295625484418e+00 +2.3005733636898613e+00 +1.4531744083362442e+01 -2.7012937861962536e+02 +1.1208325296926717e+05 +2.2215349239823264e+06 -5.3238908414335233e+08 
+5.1999999999999975e+00 -1.0328295653883519e+00 +2.3003750667754050e+00 +1.4642034232589982e+01 -2.6461386717661458e+02 +1.1039387913961461e+05 +2.1872356917528161e+06 -5.2619260322866684e+08 
+5.2999999999999972e+00 -1.0328295167238013e+00 +2.3001209119235164e+00 +1.4756143602783899e+01 -2.5753232898465831e+02 +1.0858600020227229e+05 +2.1447224221878983e+06 -5.1941603218009865e+08 
+5.3999999999999968e+00 -1.0328294164344158e+00 +2.2998126100189098e+00 +1.4873522286104828e+01 -2.4891958302033976e+02 +1.0666978075139756e+05 +2.0941026013063558e+06 -5.1209676829270941e+08 
+5.4999999999999964e+00 -1.0328292643994998e+00 +2.2994518723144837e+00 +1.4993620302885368e+01 -2.3881046133043790e+02 +1.0465538716308199e+05 +2.0354837951868433e+06 -5.0427221853602046e+08 
+5.5999999999999961e+00 -1.0328290604980062e+00 +2.2990404104612847e+00 +1.5115887594194209e+01 -2.2723981007411405e+02 +1.0255298777555522e+05 +1.9689736563980300e+06 -4.9597980053018034e+08 
+5.6999999999999957e+00 -1.0328288046085508e+00 +2.2985799365142303e+00 +1.5239774024684277e+01 -2.1424248987624938e+02 +1.0037275284660766e+05 +1.8946799264549422e+06 -4.8725694238940424e+08 
+5.7999999999999954e+00 -1.0328284966094632e+00 +2.2980721629659899e+00 +1.5364729384790941e+01 -1.9985337699613311e+02 +9.8124854551558150e+04 +1.8127104430200534e+06 -4.7814108282975191e+08 
+5.8999999999999950e+00 -1.0328281363787368e+00 +2.2975188027548117e+00 +1.5490203383607120e+01 -1.8410736372478465e+02 +9.5819467145625313e+04 +1.7231731425730765e+06 -4.6866967203229880e+08 
+5.9999999999999947e+00 -1.0328277237940455e+00 +2.2969215692915990e+00 +1.5615645648583822e+01 -1.6703935935944401e+02 +9.3466766998342398e+04 +1.6261760664940760e+06 -4.5888017189578277e+08 
+6.0999999999999943e+00 -1.0328272587327743e+00 +2.2962821764707577e+00 +1.5740505727832291e+01 -1.4868429069536313e+02 +9.1076932577427651e+04 +1.5218273642953592e+06 -4.4881005604843074e+08 
+6.1999999999999940e+00 -1.0328267410719854e+00 +2.2956023387002706e+00 +1.5864233083814913e+01 -1.2907710307606058e+02 +8.8660144599018866e+04 +1.4102353001199234e+06 -4.3849681065855676e+08 
+6.2999999999999936e+00 -1.0328261706884352e+00 +2.2948837709109076e+00 +1.5986277093484466e+01 -1.0825276086140214e+02 +8.6226586053800231e+04 +1.2915082558997590e+06 -4.2797793465109509e+08 
+6.3999999999999932e+00 -1.0328255474586296e+00 +2.2941281885820857e+00 +1.6106087053836756e+01 -8.6246248322733734e+01 +8.3786442127204296e+04 +1.1657547368482056e+06 -4.1729093940916854e+08 
+6.4999999999999929e+00 -1.0328248712587365e+00 +2.2933373077605870e+00 +1.6223112169366249e+01 -6.3092570280446544e+01 +8.1349900478553202e+04 +1.0330833752067223e+06 -4.0647335025257188e+08 
+6.5999999999999925e+00 -1.0328241432294751e+00 +2.2925134773209437e+00 +1.6336899688022818e+01 -3.8845462690632708e+01 +7.8926119175842599e+04 +8.9371789763157966e+05 -3.9556084946645033e+08 
+6.6999999999999922e+00 -1.0328233702072838e+00 +2.2916616463740906e+00 +1.6447427986479511e+01 -1.3639523370334649e+01 +7.6519868944655915e+04 +7.4839371801776695e+05 -3.8458243479949063e+08 
+6.7999999999999918e+00 -1.0328225606350010e+00 +2.2907874358884417e+00 +1.6554795764426125e+01 +1.2368666823823400e+01 +7.4134724702010251e+04 +5.9798944498914760e+05 -3.7356556734957600e+08 
+6.8999999999999915e+00 -1.0328217229576246e+00 +2.2898964667613178e+00 +1.6659101964935434e+01 +3.9022523808867540e+01 +7.1774257339317643e+04 +4.4338372614506393e+05 -3.6253769179876173e+08 
+6.9999999999999911e+00 -1.0328208656222950e+00 +2.2889943597843732e+00 +1.6760445772229890e+01 +6.6165462404811535e+01 +6.9442033648700119e+04 +2.8545522893464623e+05 -3.5152623532090950e+08 
+7.0999999999999908e+00 -1.0328199970783423e+00 +2.2880867356469832e+00 +1.6858926616780145e+01 +9.3640896073531508e+01 +6.7141616243503697e+04 +1.2508264272696868e+05 -3.4055860727985823e+08 
+7.1999999999999904e+00 -1.0328191257774206e+00 +2.2871792149176464e+00 +1.6954644191224780e+01 +1.2129223731423139e+02 +6.4876563269274375e+04 -3.6855322989645188e+04 -3.2966219791623443e+08 
+7.2999999999999901e+00 -1.0328182601735663e+00 +2.2862774180520162e+00 +1.7047698457534107e+01 +1.4896289728233964e+02 +6.2650428283921836e+04 -1.9947993588225686e+05 -3.1886437785143411e+08 
+7.3999999999999897e+00 -1.0328174087233153e+00 +2.2853869653702699e+00 +1.7138189659832104e+01 +1.7649628630771218e+02 +6.0466760034444233e+04 -3.6191244329906505e+05 -3.0819249710863382e+08 
+7.4999999999999893e+00 -1.0328165798857309e+00 +2.2845134770600239e+00 +1.7226218328257126e+01 +2.0373581363240379e+02 +5.8329102394032067e+04 -5.2327407014978188e+05 -2.9767388486817330e+08 
+7.5999999999999890e+00 -1.0328157821225696e+00 +2.2836625731658469e+00 +1.7311885298565894e+01 +2.3052488760289785e+02 +5.6240994006746114e+04 -6.8268601961837441e+05 -2.8733584785215580e+08 
+7.6999999999999886e+00 -1.0328150238982878e+00 +2.2828398735843094e+00 +1.7395291711810007e+01 +2.5670691564456490e+02 +5.4205968314628408e+04 -8.3926947243929561e+05 -2.7720567053900778e+08 
+7.7999999999999883e+00 -1.0328143136802246e+00 +2.2820509980488017e+00 +1.7476539037136757e+01 +2.8212530455847218e+02 +5.2227553132725538e+04 -9.9214558812814648e+05 -2.6731061318987748e+08 
+7.8999999999999879e+00 -1.0328136599385758e+00 +2.2813015661379747e+00 +1.7555729067389553e+01 +3.0662346011912069e+02 +5.0309270755652935e+04 -1.1404355021031285e+06 -2.5767791244755566e+08 
+7.9999999999999876e+00 -1.0328130711465660e+00 +2.2805971972475980e+00 +1.7632963940206196e+01 +3.3004478776916488e+02 +4.8454637568297345e+04 -1.2832603292872789e+06 -2.4833477954365116e+08 
+8.0999999999999872e+00 -1.0328125557805010e+00 +2.2799435106065360e+00 +1.7708346143437378e+01 +3.5223269197135204e+02 +4.6667163960153979e+04 -1.4197411597276558e+06 -2.3930839996303099e+08 
+8.1999999999999869e+00 -1.0328121223198996e+00 +2.2793461252481864e+00 +1.7781978531487972e+01 +3.7303057691888739e+02 +4.4950354030785733e+04 -1.5489990623023326e+06 -2.3062593211887991e+08 
+8.2999999999999865e+00 -1.0328117792474716e+00 +2.2788106600172382e+00 +1.7853964321123861e+01 +3.9228184617391287e+02 +4.3307705686474546e+04 -1.6701550820489915e+06 -2.2231450788065925e+08 
+8.3999999999999861e+00 -1.0328115350493547e+00 +2.2783427335569022e+00 +1.7924407120876140e+01 +4.0982990290917559e+02 +4.1742710098062613e+04 -1.7823302411240910e+06 -2.1440123007232812e+08 
+8.4999999999999858e+00 -1.0328113982150158e+00 +2.2779479642517950e+00 +1.7993410911160005e+01 +4.2551815187920369e+02 +4.0258852173095351e+04 -1.8846455559109838e+06 -2.0691317547490433e+08 
+8.5999999999999854e+00 -1.0328113748564807e+00 +2.2776304266082201e+00 +1.8061048817980609e+01 +4.3922841889654080e+02 +3.8858946280777578e+04 -1.9764293830859920e+06 -1.9987250509671193e+08 
+8.6999999999999851e+00 -1.0328114609737640e+00 +2.2773875747110166e+00 +1.8127353770380111e+01 +4.5100974179243929e+02 +3.7540623582722823e+04 -2.0579048084413412e+06 -1.9326754862058899e+08 
+8.7999999999999847e+00 -1.0328116498843247e+00 +2.2772150671033335e+00 +1.8192372102171984e+01 +4.6095731119967166e+02 +3.6299507657305323e+04 -2.1295407256115158e+06 -1.8707420593510479e+08 
+8.8999999999999844e+00 -1.0328119349043761e+00 +2.2771085621495541e+00 +1.8256150078892837e+01 +4.6916632799666388e+02 +3.5131222420386330e+04 -2.1918060955050383e+06 -1.8126837617630315e+08 
+8.9999999999999840e+00 -1.0328123093488226e+00 +2.2770637182138880e+00 +1.8318733867668364e+01 +4.7573199692116998e+02 +3.4031393037941925e+04 -2.2451699121328387e+06 -1.7582596258361453e+08 
+9.0999999999999837e+00 -1.0328127665311682e+00 +2.2770761936545592e+00 +1.8380169527841424e+01 +4.8074952686849264e+02 +3.2995646076526398e+04 -2.2901012047136617e+06 -1.7072287312658626e+08 
+9.1999999999999833e+00 -1.0328132997635340e+00 +2.2771416468253416e+00 +1.8440503015722147e+01 +4.8431413100724387e+02 +3.2019609395785501e+04 -2.3270690387894004e+06 -1.6593501994159505e+08 
+9.2999999999999829e+00 -1.0328139023564744e+00 +2.2772557360773042e+00 +1.8499780162748550e+01 +4.8652102687065707e+02 +3.1098912541908452e+04 -2.3565425171598713e+06 -1.6143832113107437e+08 
+9.3999999999999826e+00 -1.0328145676190361e+00 +2.2774141197527391e+00 +1.8558046686192942e+01 +4.8746543668482167e+02 +3.0229186515053018e+04 -2.3789907822218952e+06 -1.5720869956909883e+08 
+9.4999999999999822e+00 -1.0328152888586590e+00 +2.2776124561897979e+00 +1.8615348178110615e+01 +4.8724258738362283e+02 +2.9406063964116922e+04 -2.3948830164695480e+06 -1.5322208377692401e+08 
+9.5999999999999819e+00 -1.0328160593810967e+00 +2.2778464037165658e+00 +1.8671730097701062e+01 +4.8594771092527606e+02 +2.8625179307046885e+04 -2.4046884447402456e+06 -1.4945440841623127e+08 
+9.6999999999999815e+00 -1.0328168724904763e+00 +2.2781116206584744e+00 +1.8727237781255873e+01 +4.8367604422836843e+02 +2.7882168515685720e+04 -2.4088763342806413e+06 -1.4588161318459371e+08 
+9.7999999999999812e+00 -1.0328177214890655e+00 +2.2784037653265585e+00 +1.8781916414683767e+01 +4.8052282966688421e+02 +2.7172669621301895e+04 -2.4079159980463493e+06 -1.4247964516573787e+08 
+9.8999999999999808e+00 -1.0328185996773855e+00 +2.2787184960313875e+00 +1.8835811050289085e+01 +4.7658331479717253e+02 +2.6492322367838024e+04 -2.4022767934839604e+06 -1.3922445709292838e+08 
+9.9999999999999805e+00 -1.0328195003540335e+00 +2.2790514710697969e+00 +1.8888966586403004e+01 +4.7195275291624455e+02 +2.5836768580835607e+04 -2.3924281262731762e+06 -1.3609200904612896e+08 
+1.0099999999999980e+01 -1.0328204168157464e+00 +2.2793983487272649e+00 +1.8941427777565444e+01 +4.6672640311593580e+02 +2.5201651947952872e+04 -2.3788394509775816e+06 -1.3305826732407887e+08 
