# field on trajectory
# s[mm] rx[mm] ry[mm] rz[mm] bx[T] by[T] bz[T]
0.0000000000000000e+00 +9.1030999999999995e+00 +0.0000000000000000e+00 +0.0000000000000000e+00 +1.1020656790107665e-02 -1.0332594522222653e+00 -5.9411226364486418e-02
1.0000000000000001e-01 +9.1030994837282506e+00 +0.0000000000000000e+00 +9.9999999998223080e-02 +1.1020692646861077e-02 -1.0332559401991834e+00 -5.9410675962691145e-02
2.0000000000000001e-01 +9.1030979349153469e+00 +0.0000000000000000e+00 +1.9999999998578472e-01 +1.1020721023110856e-02 -1.0332524013833215e+00 -5.9410103531155903e-02
3.0000000000000004e-01 +9.1030953535648251e+00 +0.0000000000000000e+00 +2.9999999995202364e-01 +1.1020741030764593e-02 -1.0332488406989648e+00 -5.9409508684425613e-02
4.0000000000000002e-01 +9.1030917396802433e+00 +0.0000000000000000e+00 +3.9999999988627860e-01 +1.1020751781738060e-02 -1.0332452630702595e+00 -5.9408891037039550e-02
5.0000000000000000e-01 +9.1030870932651755e+00 +0.0000000000000000e+00 +4.9999999977788850e-01 +1.1020752387955341e-02 -1.0332416734212198e+00 -5.9408250203531437e-02
5.9999999999999998e-01 +9.1030814143232099e+00 +0.0000000000000000e+00 +5.9999999961619244e-01 +1.1020742258683157e-02 -1.0332380760612383e+00 -5.9407586007761151e-02
6.9999999999999996e-01 +9.1030747028579420e+00 +0.0000000000000000e+00 +6.9999999939052937e-01 +1.1020721992532474e-02 -1.0332344728416296e+00 -5.9406899110909649e-02
7.9999999999999993e-01 +9.1030669588729722e+00 +0.0000000000000000e+00 +7.9999999909023867e-01 +1.1020692485454607e-02 -1.0332308649992350e+00 -5.9406190383487198e-02
8.9999999999999991e-01 +9.1030581823719068e+00 +0.0000000000000000e+00 +8.9999999870465963e-01 +1.1020654633406174e-02 -1.0332272537709863e+00 -5.9405460696003269e-02
9.9999999999999989e-01 +9.1030483733583569e+00 +0.0000000000000000e+00 +9.9999999822313168e-01 +1.1020609332348360e-02 -1.0332236403939614e+00 -5.9404710918967693e-02
1.0999999999999999e+00 +9.1030375318359322e+00 +0.0000000000000000e+00 +1.0999999976349943e+00 +1.1020557478246146e-02 -1.0332200261054407e+00 -5.9403941922891966e-02
1.2000000000000000e+00 +9.1030256578082476e+00 +0.0000000000000000e+00 +1.1999999969295874e+00 +1.1020499967067582e-02 -1.0332164121429601e+00 -5.9403154578290242e-02
1.3000000000000000e+00 +9.1030127512789143e+00 +0.0000000000000000e+00 +1.2999999960962507e+00 +1.1020437694783006e-02 -1.0332127997443701e+00 -5.9402349755680664e-02
1.4000000000000001e+00 +9.1029988122515437e+00 +0.0000000000000000e+00 +1.3999999951243240e+00 +1.1020371557364293e-02 -1.0332091901478853e+00 -5.9401528325586463e-02
1.5000000000000002e+00 +9.1029838407297454e+00 +0.0000000000000000e+00 +1.4999999940031477e+00 +1.1020302450784105e-02 -1.0332055845921457e+00 -5.9400691158537099e-02
1.6000000000000003e+00 +9.1029678367171218e+00 +0.0000000000000000e+00 +1.5999999927220614e+00 +1.1020231271015151e-02 -1.0332019843162688e+00 -5.9399839125069562e-02
1.7000000000000004e+00 +9.1029508002172737e+00 +0.0000000000000000e+00 +1.6999999912704056e+00 +1.1020158914029396e-02 -1.0331983905599056e+00 -5.9398973095729432e-02
1.8000000000000005e+00 +9.1029327312337944e+00 +0.0000000000000000e+00 +1.7999999896375205e+00 +1.1020086275797330e-02 -1.0331948045632950e+00 -5.9398093941072053e-02
1.9000000000000006e+00 +9.1029136297702689e+00 +0.0000000000000000e+00 +1.8999999878127467e+00 +1.1020014252287219e-02 -1.0331912275673214e+00 -5.9397202531663779e-02
2.0000000000000004e+00 +9.1028934958302727e+00 +0.0000000000000000e+00 +1.9999999857854249e+00 +1.1019943739464331e-02 -1.0331876608135682e+00 -5.9396299738083087e-02
2.1000000000000005e+00 +9.1028723294173730e+00 +0.0000000000000000e+00 +2.0999999835448957e+00 +1.1019875633290177e-02 -1.0331841055443725e+00 -5.9395386430921786e-02
2.2000000000000006e+00 +9.1028501305351242e+00 +0.0000000000000000e+00 +2.1999999810804995e+00 +1.1019810829721786e-02 -1.0331805630028832e+00 -5.9394463480786197e-02
2.3000000000000007e+00 +9.1028268991870700e+00 +0.0000000000000000e+00 +2.2999999783815777e+00 +1.1019750224710906e-02 -1.0331770344331130e+00 -5.9393531758298299e-02
2.4000000000000008e+00 +9.1028026353767384e+00 +0.0000000000000000e+00 +2.3999999754374710e+00 +1.1019694714203283e-02 -1.0331735210799968e+00 -5.9392592134096922e-02
2.5000000000000009e+00 +9.1027773391076412e+00 +0.0000000000000000e+00 +2.4999999722375206e+00 +1.1019645194137879e-02 -1.0331700241894446e+00 -5.9391645478838864e-02
2.6000000000000010e+00 +9.1027510103832778e+00 +0.0000000000000000e+00 +2.5999999687710678e+00 +1.1019602301949934e-02 -1.0331665448172700e+00 -5.9390692494025392e-02
2.7000000000000011e+00 +9.1027236492071264e+00 +0.0000000000000000e+00 +2.6999999650274535e+00 +1.1019565641083494e-02 -1.0331630832554886e+00 -5.9389733204469101e-02
2.8000000000000012e+00 +9.1026952555826490e+00 +0.0000000000000000e+00 +2.7999999609960198e+00 +1.1019534556484778e-02 -1.0331596396050629e+00 -5.9388767465802239e-02
2.9000000000000012e+00 +9.1026658295132918e+00 +0.0000000000000000e+00 +2.8999999566661079e+00 +1.1019508393099462e-02 -1.0331562139668946e+00 -5.9387795133648107e-02
3.0000000000000013e+00 +9.1026353710024797e+00 +0.0000000000000000e+00 +2.9999999520270593e+00 +1.1019486495872692e-02 -1.0331528064417737e+00 -5.9386816063619563e-02
3.1000000000000014e+00 +9.1026038800536213e+00 +0.0000000000000000e+00 +3.0999999470682158e+00 +1.1019468209749122e-02 -1.0331494171303310e+00 -5.9385830111317602e-02
3.2000000000000015e+00 +9.1025713566701061e+00 +0.0000000000000000e+00 +3.1999999417789193e+00 +1.1019452879672880e-02 -1.0331460461329869e+00 -5.9384837132329789e-02
3.3000000000000016e+00 +9.1025378008553073e+00 +0.0000000000000000e+00 +3.2999999361485117e+00 +1.1019439850587634e-02 -1.0331426935499011e+00 -5.9383836982228898e-02
3.4000000000000017e+00 +9.1025032126125787e+00 +0.0000000000000000e+00 +3.3999999301663348e+00 +1.1019428467436566e-02 -1.0331393594809255e+00 -5.9382829516571416e-02
3.5000000000000018e+00 +9.1024675919452545e+00 +0.0000000000000000e+00 +3.4999999238217310e+00 +1.1019418075162416e-02 -1.0331360440255528e+00 -5.9381814590895969e-02
3.6000000000000019e+00 +9.1024309388566529e+00 +0.0000000000000000e+00 +3.5999999171040420e+00 +1.1019408018707485e-02 -1.0331327472828691e+00 -5.9380792060722068e-02
3.7000000000000020e+00 +9.1023932533500727e+00 +0.0000000000000000e+00 +3.6999999100026106e+00 +1.1019397643013646e-02 -1.0331294693515001e+00 -5.9379761781548392e-02
3.8000000000000020e+00 +9.1023545354287929e+00 +0.0000000000000000e+00 +3.7999999025067792e+00 +1.1019386293022369e-02 -1.0331262103295664e+00 -5.9378723608851443e-02
3.9000000000000021e+00 +9.1023147850960733e+00 +0.0000000000000000e+00 +3.8999998946058900e+00 +1.1019373313674714e-02 -1.0331229703146314e+00 -5.9377677398084104e-02
4.0000000000000018e+00 +9.1022740023551574e+00 +0.0000000000000000e+00 +3.9999998862892858e+00 +1.1019358049911381e-02 -1.0331197494036515e+00 -5.9376623004674056e-02
4.1000000000000014e+00 +9.1022321872092675e+00 +0.0000000000000000e+00 +4.0999998775463089e+00 +1.1019339846672702e-02 -1.0331165476929280e+00 -5.9375560284022418e-02
4.2000000000000011e+00 +9.1021893396616083e+00 +0.0000000000000000e+00 +4.1999998683663025e+00 +1.1019318048898642e-02 -1.0331133652780560e+00 -5.9374489091502142e-02
4.3000000000000007e+00 +9.1021454597153628e+00 +0.0000000000000000e+00 +4.2999998587386097e+00 +1.1019292001528859e-02 -1.0331102022538772e+00 -5.9373409282456692e-02
4.4000000000000004e+00 +9.1021005473736984e+00 +0.0000000000000000e+00 +4.3999998486525733e+00 +1.1019261049502672e-02 -1.0331070587144278e+00 -5.9372320712198418e-02
4.5000000000000000e+00 +9.1020546026397611e+00 +0.0000000000000000e+00 +4.4999998380975361e+00 +1.1019224537759102e-02 -1.0331039347528899e+00 -5.9371223236007145e-02
4.5999999999999996e+00 +9.1020076255166771e+00 +0.0000000000000000e+00 +4.5999998270628408e+00 +1.1019182029467230e-02 -1.0331008322819262e+00 -5.9370116841081018e-02
4.6999999999999993e+00 +9.1019596160075498e+00 +0.0000000000000000e+00 +4.6999998155378311e+00 +1.1019133960703160e-02 -1.0330977604944969e+00 -5.9369002042423138e-02
4.7999999999999989e+00 +9.1019105741154540e+00 +0.0000000000000000e+00 +4.7999998035118505e+00 +1.1019080985723568e-02 -1.0330947304020681e+00 -5.9367879487034397e-02
4.8999999999999986e+00 +9.1018604998434220e+00 +0.0000000000000000e+00 +4.8999997909742419e+00 +1.1019023758725854e-02 -1.0330917530140302e+00 -5.9366749821969940e-02
4.9999999999999982e+00 +9.1018093931944346e+00 +0.0000000000000000e+00 +4.9999997779143488e+00 +1.1018962933845213e-02 -1.0330888393375983e+00 -5.9365613694342408e-02
5.0999999999999979e+00 +9.1017572541714067e+00 +0.0000000000000000e+00 +5.0999997643215149e+00 +1.1018899165151710e-02 -1.0330860003777131e+00 -5.9364471751325087e-02
5.1999999999999975e+00 +9.1017040827771805e+00 +0.0000000000000000e+00 +5.1999997501850839e+00 +1.1018833106647325e-02 -1.0330832471369367e+00 -5.9363324640155021e-02
5.2999999999999972e+00 +9.1016498790145111e+00 +0.0000000000000000e+00 +5.2999997354943993e+00 +1.1018765412263045e-02 -1.0330805906153542e+00 -5.9362173008136274e-02
5.3999999999999968e+00 +9.1015946428860595e+00 +0.0000000000000000e+00 +5.3999997202388048e+00 +1.1018696735855904e-02 -1.0330780418104715e+00 -5.9361017502642950e-02
5.4999999999999964e+00 +9.1015383743943765e+00 +0.0000000000000000e+00 +5.4999997044076441e+00 +1.1018627731206068e-02 -1.0330756117171136e+00 -5.9359858771122549e-02
5.5999999999999961e+00 +9.1014810735418958e+00 +0.0000000000000000e+00 +5.5999996879902598e+00 +1.1018559052013887e-02 -1.0330733113273265e+00 -5.9358697461098973e-02
5.6999999999999957e+00 +9.1014227403309214e+00 +0.0000000000000000e+00 +5.6999996709759966e+00 +1.1018491351896961e-02 -1.0330711516302722e+00 -5.9357534220175763e-02
5.7999999999999954e+00 +9.1013633747636185e+00 +0.0000000000000000e+00 +5.7999996533541980e+00 +1.1018425284387224e-02 -1.0330691436121295e+00 -5.9356369696039246e-02
5.8999999999999950e+00 +9.1013029768419962e+00 +0.0000000000000000e+00 +5.8999996351142077e+00 +1.1018361502927976e-02 -1.0330672982559927e+00 -5.9355204536461731e-02
5.9999999999999947e+00 +9.1012415465679055e+00 +0.0000000000000000e+00 +5.9999996162453693e+00 +1.1018300660870997e-02 -1.0330656265417708e+00 -5.9354039389304662e-02
6.0999999999999943e+00 +9.1011790839430233e+00 +0.0000000000000000e+00 +6.0999995967370255e+00 +1.1018243411473557e-02 -1.0330641394460853e+00 -5.9352874902521738e-02
6.1999999999999940e+00 +9.1011155889688418e+00 +0.0000000000000000e+00 +6.1999995765785210e+00 +1.1018190407895532e-02 -1.0330628479421688e+00 -5.9351711724162176e-02
6.2999999999999936e+00 +9.1010510616466558e+00 +0.0000000000000000e+00 +6.2999995557591983e+00 +1.1018142303196437e-02 -1.0330617629997652e+00 -5.9350550502373825e-02
6.3999999999999932e+00 +9.1009855019775561e+00 +0.0000000000000000e+00 +6.3999995342684013e+00 +1.1018099750332496e-02 -1.0330608955850240e+00 -5.9349391885406250e-02
6.4999999999999929e+00 +9.1009189099624148e+00 +0.0000000000000000e+00 +6.4999995120954726e+00 +1.1018063402153737e-02 -1.0330602566604070e+00 -5.9348236521614112e-02
6.5999999999999925e+00 +9.1008512856018786e+00 +0.0000000000000000e+00 +6.5999994892297549e+00 +1.1018033726481585e-02 -1.0330598529837220e+00 -5.9347084898080854e-02
6.6999999999999922e+00 +9.1007826288963578e+00 +0.0000000000000000e+00 +6.6999994656605919e+00 +1.1018010451404962e-02 -1.0330596745073699e+00 -5.9345936856414927e-02
6.7999999999999918e+00 +9.1007129398460389e+00 +0.0000000000000000e+00 +6.7999994413773264e+00 +1.1017993120163607e-02 -1.0330597069847949e+00 -5.9344792076787466e-02
6.8999999999999915e+00 +9.1006422184508988e+00 +0.0000000000000000e+00 +6.8999994163693001e+00 +1.1017981276094338e-02 -1.0330599361721322e+00 -5.9343650239298072e-02
6.9999999999999911e+00 +9.1005704647107173e+00 +0.0000000000000000e+00 +6.9999993906258569e+00 +1.1017974462635751e-02 -1.0330603478283487e+00 -5.9342511023971256e-02
7.0999999999999908e+00 +9.1004976786250928e+00 +0.0000000000000000e+00 +7.0999993641363384e+00 +1.1017972223332973e-02 -1.0330609277153835e+00 -5.9341374110752777e-02
7.1999999999999904e+00 +9.1004238601934535e+00 +0.0000000000000000e+00 +7.1999993368900865e+00 +1.1017974101842425e-02 -1.0330616615982933e+00 -5.9340239179506267e-02
7.2999999999999901e+00 +9.1003490094150745e+00 +0.0000000000000000e+00 +7.2999993088764432e+00 +1.1017979641936527e-02 -1.0330625352453893e+00 -5.9339105910009425e-02
7.3999999999999897e+00 +9.1002731262890926e+00 +0.0000000000000000e+00 +7.3999992800847512e+00 +1.1017988387508471e-02 -1.0330635344283852e+00 -5.9337973981950655e-02
7.4999999999999893e+00 +9.1001962108145182e+00 +0.0000000000000000e+00 +7.4999992505043513e+00 +1.1017999882576922e-02 -1.0330646449225320e+00 -5.9336843074925358e-02
7.5999999999999890e+00 +9.1001182629902519e+00 +0.0000000000000000e+00 +7.5999992201245865e+00 +1.1018013671290792e-02 -1.0330658525067671e+00 -5.9335712868432457e-02
7.6999999999999886e+00 +9.1000392828150964e+00 +0.0000000000000000e+00 +7.6999991889347976e+00 +1.1018029297933954e-02 -1.0330671429638505e+00 -5.9334583041870760e-02
7.7999999999999883e+00 +9.0999592702877710e+00 +0.0000000000000000e+00 +7.7999991569243257e+00 +1.1018046306929995e-02 -1.0330685020805115e+00 -5.9333453274535500e-02
7.8999999999999879e+00 +9.0998782254069273e+00 +0.0000000000000000e+00 +7.8999991240825125e+00 +1.1018064242846950e-02 -1.0330699156475880e+00 -5.9332323245614702e-02
7.9999999999999876e+00 +9.0997961481711620e+00 +0.0000000000000000e+00 +7.9999990903986999e+00 +1.1018082650402033e-02 -1.0330713694601699e+00 -5.9331192634185660e-02
8.0999999999999872e+00 +9.0997130385790328e+00 +0.0000000000000000e+00 +8.0999990558622290e+00 +1.1018101074466397e-02 -1.0330728493177403e+00 -5.9330061119211339e-02
8.1999999999999869e+00 +9.0996288966290706e+00 +0.0000000000000000e+00 +8.1999990204624407e+00 +1.1018119060069829e-02 -1.0330743410243193e+00 -5.9328928379536891e-02
8.2999999999999865e+00 +9.0995437223197957e+00 +0.0000000000000000e+00 +8.2999989841886759e+00 +1.1018136152405534e-02 -1.0330758303886054e+00 -5.9327794093886103e-02
8.3999999999999861e+00 +9.0994575156497302e+00 +0.0000000000000000e+00 +8.3999989470302747e+00 +1.1018151896834841e-02 -1.0330773032241178e+00 -5.9326657940857772e-02
8.4999999999999858e+00 +9.0993702766174120e+00 +0.0000000000000000e+00 +8.4999989089765791e+00 +1.1018165838891958e-02 -1.0330787453493409e+00 -5.9325519598922280e-02
8.5999999999999854e+00 +9.0992820052214096e+00 +0.0000000000000000e+00 +8.5999988700169308e+00 +1.1018177626679669e-02 -1.0330801436179946e+00 -5.9324378771292222e-02
8.6999999999999851e+00 +9.0991927014603373e+00 +0.0000000000000000e+00 +8.6999988301406699e+00 +1.1018187317988513e-02 -1.0330814890089086e+00 -5.9323235260594222e-02
8.7999999999999847e+00 +9.0991023653328611e+00 +0.0000000000000000e+00 +8.7999987893371383e+00 +1.1018195072993214e-02 -1.0330827735342627e+00 -5.9322088894328093e-02
8.8999999999999844e+00 +9.0990109968377055e+00 +0.0000000000000000e+00 +8.8999987475956761e+00 +1.1018201051835831e-02 -1.0330839892092647e+00 -5.9320939500003722e-02
8.9999999999999840e+00 +9.0989185959736680e+00 +0.0000000000000000e+00 +8.9999987049056251e+00 +1.1018205414624281e-02 -1.0330851280522204e+00 -5.9319786905141600e-02
9.0999999999999837e+00 +9.0988251627396206e+00 +0.0000000000000000e+00 +9.0999986612563255e+00 +1.1018208321430854e-02 -1.0330861820846102e+00 -5.9318630937273610e-02
9.1999999999999833e+00 +9.0987306971345205e+00 +0.0000000000000000e+00 +9.1999986166371190e+00 +1.1018209932290732e-02 -1.0330871433311599e+00 -5.9317471423943662e-02
9.2999999999999829e+00 +9.0986351991574175e+00 +0.0000000000000000e+00 +9.2999985710373458e+00 +1.1018210407200475e-02 -1.0330880038199133e+00 -5.9316308192708257e-02
9.3999999999999826e+00 +9.0985386688074623e+00 +0.0000000000000000e+00 +9.3999985244463478e+00 +1.1018209906116582e-02 -1.0330887555823063e+00 -5.9315141071137278e-02
9.4999999999999822e+00 +9.0984411060839161e+00 +0.0000000000000000e+00 +9.4999984768534667e+00 +1.1018208588953972e-02 -1.0330893906532392e+00 -5.9313969886814581e-02
9.5999999999999819e+00 +9.0983425109861535e+00 +0.0000000000000000e+00 +9.5999984282480444e+00 +1.1018206615584523e-02 -1.0330899010711501e+00 -5.9312794467338718e-02
9.6999999999999815e+00 +9.0982428835136773e+00 +0.0000000000000000e+00 +9.6999983786194210e+00 +1.1018204145835571e-02 -1.0330902788780882e+00 -5.9311614640323466e-02
9.7999999999999812e+00 +9.0981422236661196e+00 +0.0000000000000000e+00 +9.7999983279569403e+00 +1.1018201339488437e-02 -1.0330905161197868e+00 -5.9310430233398645e-02
9.8999999999999808e+00 +9.0980405314432566e+00 +0.0000000000000000e+00 +9.8999982762499421e+00 +1.1018198356276964e-02 -1.0330906048457364e+00 -5.9309241074210713e-02
9.9999999999999805e+00 +9.0979378068450085e+00 +0.0000000000000000e+00 +9.9999982234877685e+00 +1.1018195355885999e-02 -1.0330905371092580e+00 -5.9308046990423378e-02
1.0099999999999980e+01 +9.0978340498714569e+00 +0.0000000000000000e+00 +1.0099998169659763e+01 +1.1018192497949943e-02 -1.0330903049675761e+00 -5.9306847809718406e-02
1.0199999999999980e+01 +9.0977292605228453e+00 +0.0000000000000000e+00 +1.0199998114755266e+01 +1.1018189942051265e-02 -1.0330899004818928e+00 -5.9305643359795997e-02
1.0299999999999979e+01 +9.0976234387995891e+00 +0.0000000000000000e+00 +1.0299998058763620e+01 +1.1018187847719008e-02 -1.0330893157174610e+00 -5.9304433468375800e-02
1.0399999999999979e+01 +9.0975165847022836e+00 +0.0000000000000000e+00 +1.0399998001674168e+01 +1.1018186374427344e-02 -1.0330885427436574e+00 -5.9303217963197291e-02
1.0499999999999979e+01 +9.0974086982317157e+00 +0.0000000000000000e+00 +1.0499997943476254e+01 +1.1018185681594062e-02 -1.0330875736340559e+00 -5.9301996672020588e-02
1.0599999999999978e+01 +9.0972997793888641e+00 +0.0000000000000000e+00 +1.0599997884159221e+01 +1.1018185922593751e-02 -1.0330864028334643e+00 -5.9300769569022138e-02
1.0699999999999978e+01 +9.0971898281749102e+00 +0.0000000000000000e+00 +1.0699997823712412e+01 +1.1018187226801267e-02 -1.0330850342575519e+00 -5.9299537214050936e-02
1.0799999999999978e+01 +9.0970788445912323e+00 +0.0000000000000000e+00 +1.0799997762125169e+01 +1.1018189717551571e-02 -1.0330834741883403e+00 -5.9298300313485965e-02
1.0899999999999977e+01 +9.0969668286394025e+00 +0.0000000000000000e+00 +1.0899997699386839e+01 +1.1018193518125108e-02 -1.0330817289064125e+00 -5.9297059573834264e-02
1.0999999999999977e+01 +9.0968537803211742e+00 +0.0000000000000000e+00 +1.0999997635486764e+01 +1.1018198751746491e-02 -1.0330798046908525e+00 -5.9295815701734061e-02
1.1099999999999977e+01 +9.0967396996384835e+00 +0.0000000000000000e+00 +1.1099997570414288e+01 +1.1018205541583143e-02 -1.0330777078191824e+00 -5.9294569403957713e-02
1.1199999999999976e+01 +9.0966245865934372e+00 +0.0000000000000000e+00 +1.1199997504158757e+01 +1.1018214010743970e-02 -1.0330754445672967e+00 -5.9293321387414742e-02
1.1299999999999976e+01 +9.0965084411883073e+00 +0.0000000000000000e+00 +1.1299997436709514e+01 +1.1018224282278010e-02 -1.0330730212094021e+00 -5.9292072359154895e-02
1.1399999999999975e+01 +9.0963912634255291e+00 +0.0000000000000000e+00 +1.1399997368055907e+01 +1.1018236479173106e-02 -1.0330704440179530e+00 -5.9290823026371009e-02
1.1499999999999975e+01 +9.0962730533076890e+00 +0.0000000000000000e+00 +1.1499997298187278e+01 +1.1018250724354537e-02 -1.0330677192635884e+00 -5.9289574096402224e-02
1.1599999999999975e+01 +9.0961538108375226e+00 +0.0000000000000000e+00 +1.1599997227092976e+01 +1.1018267140683683e-02 -1.0330648532150695e+00 -5.9288326276736754e-02
1.1699999999999974e+01 +9.0960335360179059e+00 +0.0000000000000000e+00 +1.1699997154762345e+01 +1.1018285850956693e-02 -1.0330618521392139e+00 -5.9287080275015100e-02
1.1799999999999974e+01 +9.0959122288518497e+00 +0.0000000000000000e+00 +1.1799997081184731e+01 +1.1018306977903118e-02 -1.0330587223008372e+00 -5.9285836799032939e-02
