# multipoles
# s[mm] polynom_b[n=0][T/m^n] polynom_b[n=1][T/m^n] polynom_b[n=2][T/m^n] polynom_b[n=3][T/m^n] polynom_b[n=4][T/m^n] polynom_b[n=5][T/m^n] polynom_b[n=6][T/m^n] 
+0.0000000000000000e+00 -3.4172061426951894e-01 +7.6260898433790636e-01 +7.1094197289673264e+00 +1.8569264785111795e+01 -6.3708988960019415e+03 +8.1135466048279530e+04 +3.4676977196647897e+07 
+1.0000000000000001e-01 -3.4172060353349359e-01 +7.6261697888120628e-01 +7.1056881025335699e+00 +1.8235629289493538e+01 -6.3516521534648882e+03 +8.3615802131880206e+04 +3.4710660803139217e+07 
+2.0000000000000001e-01 -3.4172059438750968e-01 +7.6262650770281737e-01 +7.1018015808434889e+00 +1.7877931513410381e+01 -6.3277219834717371e+03 +8.6164736904282574e+04 +3.4719377271484502e+07 
+3.0000000000000004e-01 -3.4172058720763915e-01 +7.6263748164687950e-01 +7.0977817205605023e+00 +1.7497807991295588e+01 -6.2994819280555284e+03 +8.8774474510024971e+04 +3.4704641999741122e+07 
+4.0000000000000002e-01 -3.4172058236997227e-01 +7.6264981155878575e-01 +7.0936500798786364e+00 +1.7096895164201406e+01 -6.2673055496426350e+03 +9.1437219880713747e+04 +3.4667970459979124e+07 
+5.0000000000000000e-01 -3.4172058025059726e-01 +7.6266340828338552e-01 +7.0894282159230650e+00 +1.6676829441698487e+01 -6.2315663817841123e+03 +9.4145178339577731e+04 +3.4610877964617811e+07 
+5.9999999999999998e-01 -3.4172058122559662e-01 +7.6267818266707210e-01 +7.0851376844906211e+00 +1.6239247140301696e+01 -6.1926379255809297e+03 +9.6890555961801336e+04 +3.4534879653253734e+07 
+6.9999999999999996e-01 -3.4172058567106600e-01 +7.6269404555444076e-01 +7.0808000421545643e+00 +1.5785784588532387e+01 -6.1508936871993646e+03 +9.9665558934659537e+04 +3.4441490664441288e+07 
+7.9999999999999993e-01 -3.4172059396309745e-01 +7.6271090778743400e-01 +7.0764368445821333e+00 +1.5318078164629588e+01 -6.1067071500702305e+03 +1.0246239329467395e+05 +3.4332226015313871e+07 
+8.9999999999999991e-01 -3.4172060647778435e-01 +7.6272868020789930e-01 +7.0720696469253914e+00 +1.4837764209397045e+01 -6.0604517796902446e+03 +1.0527326547265313e+05 +3.4208600616757050e+07 
+9.9999999999999989e-01 -3.4172062359121447e-01 +7.6274727365323980e-01 +7.0677200032729139e+00 +1.4346479177276795e+01 -6.0125010163439101e+03 +1.0809038133279560e+05 +3.4072129248431697e+07 
+1.0999999999999999e+00 -3.4172064567948007e-01 +7.6276659895869880e-01 +7.0634094677223720e+00 +1.3845859558922065e+01 -5.9632282931141963e+03 +1.1090594665737735e+05 +3.3924326637227707e+07 
+1.2000000000000000e+00 -3.4172067311866322e-01 +7.6278656695394964e-01 +7.0591595927714197e+00 +1.3337541998212847e+01 -5.9130070084919689e+03 +1.1371216640550498e+05 +3.3766707337055929e+07 
+1.3000000000000000e+00 -3.4172070628484669e-01 +7.6280708846382672e-01 +7.0549919306884572e+00 +1.2823163266397144e+01 -5.8622105508929217e+03 +1.1650124487469297e+05 +3.3600785840103135e+07 
+1.4000000000000001e+00 -3.4172074555411081e-01 +7.6282807430913047e-01 +7.0509280331299413e+00 +1.2304360249822263e+01 -5.8112122929471725e+03 +1.1926538573493653e+05 +3.3428076555302572e+07 
+1.5000000000000002e+00 -3.4172079130251959e-01 +7.6284943530234861e-01 +7.0469894495333349e+00 +1.1782770075302567e+01 -5.7603855606767283e+03 +1.2199679129484031e+05 +3.3250093660339382e+07 
+1.6000000000000003e+00 -3.4172084390613683e-01 +7.6287108225198530e-01 +7.0431977292402586e+00 +1.1260029994544020e+01 -5.7101036754660145e+03 +1.2468766313699349e+05 +3.3068351306136031e+07 
+1.7000000000000004e+00 -3.4172090374101766e-01 +7.6289292595445124e-01 +7.0395744202683943e+00 +1.0737777617437420e+01 -5.6607399294794641e+03 +1.2733020076360331e+05 +3.2884363497075956e+07 
+1.8000000000000005e+00 -3.4172097118320527e-01 +7.6291487720264206e-01 +7.0361410692648816e+00 +1.0217650674132754e+01 -5.6126675868389029e+03 +1.2991660294802296e+05 +3.2699644101651207e+07 
+1.9000000000000006e+00 -3.4172104660874020e-01 +7.6293684677749862e-01 +7.0329192224101931e+00 +9.7012872641519348e+00 -5.5662598997902642e+03 +1.3243906626503941e+05 +3.2515706927921981e+07 
+2.0000000000000004e+00 -3.4172113039363738e-01 +7.6295874545218711e-01 +7.0299304229679072e+00 +9.1903257379849901e+00 -5.5218900647816245e+03 +1.3488978577592390e+05 +3.2334065521556158e+07 
+2.1000000000000005e+00 -3.4172122287753293e-01 +7.6298049383037292e-01 +7.0271908034094368e+00 +8.6861624924472753e+00 -5.4798399400388498e+03 +1.3726304466370071e+05 +3.2155870034536686e+07 
+2.2000000000000006e+00 -3.4172132425823643e-01 +7.6300205336452565e-01 +7.0246951293547770e+00 +8.1892132692287962e+00 -5.4400306466300381e+03 +1.3956139051489765e+05 +3.1980818418672021e+07 
+2.3000000000000007e+00 -3.4172143469896094e-01 +7.6302339609423053e-01 +7.0224328823018602e+00 +7.6996454086346757e+00 -5.4022940669256241e+03 +1.4178941938570570e+05 +3.1808245103447929e+07 
+2.4000000000000008e+00 -3.4172155436291290e-01 +7.6304449405715624e-01 +7.0203935437973746e+00 +7.2176262787387655e+00 -5.3664620963114821e+03 +1.4395172732066829e+05 +3.1637484618807405e+07 
+2.5000000000000009e+00 -3.4172168341329645e-01 +7.6306531928833465e-01 +7.0185665958420804e+00 +6.7433232999606929e+00 -5.3323666506842110e+03 +1.4605291019040794e+05 +3.1467871631196219e+07 
+2.6000000000000010e+00 -3.4172182201333756e-01 +7.6308584382283451e-01 +7.0169415239332942e+00 +6.2769038637661003e+00 -5.2998397258014402e+03 +1.4809756418233830e+05 +3.1298741229847260e+07 
+2.7000000000000011e+00 -3.4172197032625939e-01 +7.6310603969236346e-01 +7.0155078144658747e+00 +5.8185354351104550e+00 -5.2687133509707537e+03 +1.5009028519536270e+05 +3.1129428715389796e+07 
+2.8000000000000012e+00 -3.4172212851528905e-01 +7.6312587892936745e-01 +7.0142549551621602e+00 +5.3683854174858654e+00 -5.2388195963755024e+03 +1.5203566967174778e+05 +3.0959269632633891e+07 
+2.9000000000000012e+00 -3.4172229674366655e-01 +7.6314533356492165e-01 +7.0131724365938890e+00 +4.9266212295191378e+00 -5.2099906054210223e+03 +1.5393831411236903e+05 +3.0787599934789479e+07 
+3.0000000000000013e+00 -3.4172247517463478e-01 +7.6316437563023221e-01 +7.0122497511076736e+00 +4.4934102441459300e+00 -5.1820585753844853e+03 +1.5580281548014079e+05 +3.0613755893000219e+07 
+3.1000000000000014e+00 -3.4172266397145151e-01 +7.6318297715589889e-01 +7.0114763941218801e+00 +4.0689198200490875e+00 -5.1548557831683256e+03 +1.5763377099173036e+05 +3.0437074224575985e+07 
+3.2000000000000015e+00 -3.4172286329738255e-01 +7.6320111017379633e-01 +7.0108418635795413e+00 +3.6533172387706805e+00 -5.1282145768712862e+03 +1.5943577851042879e+05 +3.0256892056461174e+07 
+3.3000000000000016e+00 -3.4172307331569773e-01 +7.6321874671553691e-01 +7.0103356595744319e+00 +3.2467697475689001e+00 -5.1019673698421693e+03 +1.6121343630272805e+05 +3.0072546901131809e+07 
+3.4000000000000017e+00 -3.4172329418969549e-01 +7.6323585881502665e-01 +7.0099472874193065e+00 +2.8494444865571165e+00 -5.0759467016778917e+03 +1.6297134346311694e+05 +2.9883376954895761e+07 
+3.5000000000000018e+00 -3.4172352608267126e-01 +7.6325241850624048e-01 +7.0096662535549656e+00 +2.4615085467976625e+00 -5.0499851588000765e+03 +1.6471409959354289e+05 +2.9688720715585586e+07 
+3.6000000000000019e+00 -3.4172376915793956e-01 +7.6326839782588407e-01 +7.0094820690700450e+00 +2.0831288941374866e+00 -5.0239154475919804e+03 +1.6644630524997888e+05 +2.9487917347196247e+07 
+3.7000000000000020e+00 -3.4172402357883169e-01 +7.6328376881251048e-01 +7.0093842487635145e+00 +1.7144723952150378e+00 -4.9975703742835003e+03 +1.6817256178964660e+05 +2.9280306579282705e+07 
+3.8000000000000020e+00 -3.4172428950868483e-01 +7.6329850350583450e-01 +7.0093623104419800e+00 +1.3557058301056488e+00 -4.9707828346533515e+03 +1.6989747132138241e+05 +2.9065228665423378e+07 
+3.9000000000000021e+00 -3.4172456711086396e-01 +7.6331257395097463e-01 +7.0094057774081362e+00 +1.0069957689892337e+00 -4.9433858634869130e+03 +1.7162563742818119e+05 +2.8842024626233324e+07 
+4.0000000000000018e+00 -3.4172485654874701e-01 +7.6332595219270638e-01 +7.0095041769592621e+00 +6.6850875013836619e-01 -4.9152126053919737e+03 +1.7336166406503029e+05 +2.8610036103791971e+07 
+4.1000000000000014e+00 -3.4172515790913688e-01 +7.6333861517251977e-01 +7.0096506289659448e+00 +3.4050740027691984e-01 -4.8861863977758803e+03 +1.7510788281659628e+05 +2.8369075960603148e+07 
+4.2000000000000011e+00 -3.4172547095963857e-01 +7.6335054948604364e-01 +7.0098506098379083e+00 +2.3842666216025651e-02 -4.8565601149923677e+03 +1.7685631879323759e+05 +2.8120777052449718e+07 
+4.3000000000000007e+00 -3.4172579538516512e-01 +7.6336174167046433e-01 +7.0101122599595360e+00 -2.8043344239672402e-01 -4.8266628383166162e+03 +1.7859606781683493e+05 +2.7867219964320164e+07 
+4.4000000000000004e+00 -3.4172613087061426e-01 +7.6337217826410486e-01 +7.0104437170659049e+00 -5.7126888916839225e-01 -4.7968235900839754e+03 +1.8031622515368459e+05 +2.7610484989263572e+07 
+4.5000000000000000e+00 -3.4172647710084969e-01 +7.6338184580925195e-01 +7.0108531138613470e+00 -8.4761170330602409e-01 -4.7673712860363858e+03 +1.8200588615425079e+05 +2.7352651885909267e+07 
+4.5999999999999996e+00 -3.4172683376072088e-01 +7.6339073084886289e-01 +7.0113485803376516e+00 -1.1084098802808453e+00 -4.7386347776797302e+03 +1.8365414565428018e+05 +2.7095800075408090e+07 
+4.6999999999999993e+00 -3.4172720053504396e-01 +7.6339881993222813e-01 +7.0119382412937092e+00 -1.3526115369525800e+00 -4.7109428041253950e+03 +1.8525009883670058e+05 +2.6842008409283873e+07 
+4.7999999999999989e+00 -3.4172757710861690e-01 +7.6340609960921557e-01 +7.0126302181805480e+00 -1.5791647483777047e+00 -4.6846240257004492e+03 +1.8678284028334983e+05 +2.6593355325058974e+07 
+4.8999999999999986e+00 -3.4172796316620496e-01 +7.6341255643471884e-01 +7.0134326272226248e+00 -1.7870176643213547e+00 -4.6600069873845341e+03 +1.8824146460451355e+05 +2.6351918669965215e+07 
+4.9999999999999982e+00 -3.4172835839254734e-01 +7.6341817696827696e-01 +7.0143535800265955e+00 -1.9751185004668863e+00 -4.6374201282530639e+03 +1.8961506638093910e+05 +2.6119775739807013e+07 
+5.0999999999999979e+00 -3.4172876247233758e-01 +7.6342294777133024e-01 +7.0154011813102430e+00 -2.1424154533459898e+00 -4.6171917386922050e+03 +1.9089273964504435e+05 +2.5899003076428875e+07 
+5.1999999999999975e+00 -3.4172917509026285e-01 +7.6342685541203259e-01 +7.0165835332574211e+00 -2.2878568335210092e+00 -4.5996500386128873e+03 +1.9206357862166292e+05 +2.5691676826912485e+07 
+5.2999999999999972e+00 -3.4172959593095714e-01 +7.6342988646155141e-01 +7.0179087302257708e+00 -2.4103909552716924e+00 -4.5851230799532896e+03 +1.9311667707107496e+05 +2.5499872287893120e+07 
+5.3999999999999968e+00 -3.4173002467902364e-01 +7.6343202749707617e-01 +7.0193848607445437e+00 -2.5089662237986579e+00 -4.5739387782881804e+03 +1.9404112877873683e+05 +2.5325664038530320e+07 
+5.4999999999999964e+00 -3.4173046101902632e-01 +7.6343326509922527e-01 +7.0210200068720727e+00 -2.5825310484193529e+00 -4.5664249039512952e+03 +1.9482602700884917e+05 +2.5171125907826297e+07 
+5.5999999999999961e+00 -3.4173090463549494e-01 +7.6343358585614207e-01 +7.0228222446211808e+00 -2.6300339647724340e+00 -4.5629090862076946e+03 +1.9546046521393053e+05 +2.5038330982403196e+07 
+5.6999999999999957e+00 -3.4173135521292441e-01 +7.6343297635992158e-01 +7.0247996437249354e+00 -2.6504235208275189e+00 -4.5637188080426067e+03 +1.9593353632719355e+05 +2.4929351580112875e+07 
+5.7999999999999954e+00 -3.4173181243575268e-01 +7.6343142320839874e-01 +7.0269602647986877e+00 -2.6426483306907840e+00 -4.5691813515606700e+03 +1.9623433307337790e+05 +2.4846258988516565e+07 
+5.8999999999999950e+00 -3.4173227598839168e-01 +7.6342891300608240e-01 +7.0293121630045521e+00 -2.6056570926634914e+00 -4.5796238638879240e+03 +1.9635194803362631e+05 +2.4791123767099220e+07 
+5.9999999999999947e+00 -3.4173274555519795e-01 +7.6342543236318794e-01 +7.0318633845564786e+00 -2.5383985646040883e+00 -4.5953732933778547e+03 +1.9627547357004147e+05 +2.4766015458798774e+07 
+6.0999999999999943e+00 -3.4173322079521373e-01 +7.6342098303327932e-01 +7.0346194011176912e+00 -2.4403457725069071e+00 -4.6166917760356846e+03 +1.9599775727119800e+05 +2.4772640715017449e+07 
+6.1999999999999940e+00 -3.4173370126630292e-01 +7.6341563327035600e-01 +7.0375742246156641e+00 -2.3133433596857724e+00 -4.6435411840514880e+03 +1.9552856941208302e+05 +2.4810960869871244e+07 
+6.2999999999999936e+00 -3.4173418650085763e-01 +7.6340946982810320e-01 +7.0407186524344052e+00 -2.1599150842588428e+00 -4.6757960703968874e+03 +1.9488252765463988e+05 +2.4880414615907397e+07 
+6.3999999999999932e+00 -3.4173467603128110e-01 +7.6340257946365842e-01 +7.0440434822576536e+00 -1.9825847928001175e+00 -4.7133309731856143e+03 +1.9407425023107397e+05 +2.4980440484205175e+07 
+6.4999999999999929e+00 -3.4173516939001447e-01 +7.6339504893851573e-01 +7.0475395160938792e+00 -1.7838763851734685e+00 -4.7560205009939300e+03 +1.9311835545465327e+05 +2.5110477287789661e+07 
+6.5999999999999925e+00 -3.4173566610950273e-01 +7.6338696501739978e-01 +7.0511975556908126e+00 -1.5663137914683118e+00 -4.8037392439845971e+03 +1.9202946161173872e+05 +2.5269963693769276e+07 
+6.6999999999999922e+00 -3.4173616572222387e-01 +7.6337841446779697e-01 +7.0550084063316056e+00 -1.3324209501761231e+00 -4.8563618464460505e+03 +1.9082218681321014e+05 +2.5458338568700440e+07 
+6.7999999999999918e+00 -3.4173666776067174e-01 +7.6336948406024618e-01 +7.0589628745762232e+00 -1.0847218186072300e+00 -4.9137629625792797e+03 +1.8951114906612996e+05 +2.5675040763059590e+07 
+6.8999999999999915e+00 -3.4173717175737284e-01 +7.6336026057076289e-01 +7.0630517703659654e+00 -8.2574044186852247e-01 -4.9758172969574562e+03 +1.8811096667020407e+05 +2.5919509305232160e+07 
+6.9999999999999911e+00 -3.4173767724488008e-01 +7.6335083077759724e-01 +7.0672659065240069e+00 -5.5800085509273889e-01 -5.0423995950280996e+03 +1.8663625763968375e+05 +2.6191183353521630e+07 
+7.0999999999999908e+00 -3.4173818375577097e-01 +7.6334128146370583e-01 +7.0715960978655898e+00 -2.8402715228480613e-01 -5.1133846236463833e+03 +1.8510164009916151e+05 +2.6489502097974148e+07 
+7.1999999999999904e+00 -3.4173869082264069e-01 +7.6333169941428425e-01 +7.0760331609449354e+00 -6.3434183196078514e-03 -5.1886471685395300e+03 +1.8352173190143955e+05 +2.6813904751847677e+07 
+7.2999999999999901e+00 -3.4173919797813818e-01 +7.6332217141892711e-01 +7.0805679181933385e+00 +2.7252621670974631e-01 -5.2680621106013805e+03 +1.8191115091758905e+05 +2.7163830907774527e+07 
+7.3999999999999897e+00 -3.4173970475492138e-01 +7.6331278427234295e-01 +7.0851911925276045e+00 +5.5005755349323171e-01 -5.3515043243611908e+03 +1.8028451519227034e+05 +2.7538720056518953e+07 
+7.4999999999999893e+00 -3.4174021068569038e-01 +7.6330362477245461e-01 +7.0898938112918994e+00 +8.2372637883179922e-01 -5.4388487513339805e+03 +1.7865644262101204e+05 +2.7938011930395946e+07 
+7.5999999999999890e+00 -3.4174071530318062e-01 +7.6329477972122772e-01 +7.0946666054734333e+00 +1.0910084533116970e+00 -5.5299703857021677e+03 +1.7704155099088675e+05 +2.8361146436568163e+07 
+7.6999999999999886e+00 -3.4174121814015629e-01 +7.6328633592466189e-01 +7.0995004088829896e+00 +1.3493794976296956e+00 -5.6247442579228691e+03 +1.7545445810157753e+05 +2.8807563574931137e+07 
+7.7999999999999883e+00 -3.4174171872942249e-01 +7.6327838019329142e-01 +7.1043860595910893e+00 +1.5963151942043479e+00 -5.7230454608931705e+03 +1.7390978171057536e+05 +2.9276703558869299e+07 
+7.8999999999999879e+00 -3.4174221660381809e-01 +7.6327099934198916e-01 +7.1093143991224617e+00 +1.8292911842843291e+00 -5.8247491359945971e+03 +1.7242213958049126e+05 +2.9768006752294641e+07 
+7.9999999999999876e+00 -3.4174271129621586e-01 +7.6326428018184833e-01 +7.1142762714534280e+00 +2.0457833620763917e+00 -5.9297304388221746e+03 +1.7100614774663074e+05 +3.0280913470259346e+07 
+8.0999999999999872e+00 -3.4174320237435202e-01 +7.6325827535893909e-01 +7.1192575545070049e+00 +2.2441677626715419e+00 -6.0377204779369322e+03 +1.6967185785462972e+05 +3.0814073587688718e+07 
+8.1999999999999869e+00 -3.4174368956644330e-01 +7.6325292274320855e-01 +7.1242303353979031e+00 +2.4257253508045555e+00 -6.1480144554666640e+03 +1.6841514452829870e+05 +3.1363672305620193e+07 
+8.2999999999999865e+00 -3.4174417264542301e-01 +7.6324813611119313e-01 +7.1291645595064503e+00 +2.5923160273629211e+00 -6.2598280101988494e+03 +1.6722922678805655e+05 +3.1925421265054688e+07 
+8.3999999999999861e+00 -3.4174465138424281e-01 +7.6324382923523004e-01 +7.1340301778338819e+00 +2.7457996487649146e+00 -6.3723769384566049e+03 +1.6610732482323048e+05 +3.2495033028658725e+07 
+8.4999999999999858e+00 -3.4174512555585695e-01 +7.6323991588531448e-01 +7.1387971452835224e+00 +2.8880359930927737e+00 -6.4848771652769447e+03 +1.6504266002012254e+05 +3.3068220968630727e+07 
+8.5999999999999854e+00 -3.4174559493322115e-01 +7.6323630982625879e-01 +7.1434354204443782e+00 +3.0208848368760286e+00 -6.5965447419976299e+03 +1.6402845453740930e+05 +3.3640699262568548e+07 
+8.6999999999999851e+00 -3.4174605928929452e-01 +7.6323292482108995e-01 +7.1479149657454641e+00 +3.1462058533790636e+00 -6.7065958491964029e+03 +1.6305793191816061e+05 +3.4208182908731245e+07 
+8.7999999999999847e+00 -3.4174651839704545e-01 +7.6322967462830082e-01 +7.1522057486494539e+00 +3.2658586816169120e+00 -6.8142468239463051e+03 +1.6212431673280857e+05 +3.4766387870062307e+07 
+8.8999999999999844e+00 -3.4174697202944287e-01 +7.6322647299958157e-01 +7.1562777406683455e+00 +3.3817029946622554e+00 -6.9187141413663594e+03 +1.6122083417795118e+05 +3.5311030987549506e+07 
+8.9999999999999840e+00 -3.4174741995946689e-01 +7.6322323368715583e-01 +7.1601009185285385e+00 +3.4955982747148462e+00 -7.0192144383216810e+03 +1.6034071143756778e+05 +3.5837830100121185e+07 
+9.0999999999999837e+00 -3.4174786196008411e-01 +7.6321987043530692e-01 +7.1636452611793144e+00 +3.6094040568772874e+00 -7.1149644575252114e+03 +1.5947717627473149e+05 +3.6342503782722212e+07 
+9.1999999999999833e+00 -3.4174829780429111e-01 +7.6321629698396043e-01 +7.1668807558406975e+00 +3.7249798200019026e+00 -7.2051811677561609e+03 +1.5862345769825572e+05 +3.6820771933845669e+07 
+9.2999999999999829e+00 -3.4174872726507011e-01 +7.6321242706982650e-01 +7.1697773918931809e+00 +3.8441849459629935e+00 -7.2890816445753853e+03 +1.5777278622351948e+05 +3.7268355201150231e+07 
+9.3999999999999826e+00 -3.4174915011541745e-01 +7.6320817442379463e-01 +7.1723051651307017e+00 +3.9688787922401105e+00 -7.3658831570170814e+03 +1.5691839347772818e+05 +3.7680975411175847e+07 
+9.4999999999999822e+00 -3.4174956612832946e-01 +7.6320345277037449e-01 +7.1744340756323535e+00 +4.1009207032872483e+00 -7.4348031268123750e+03 +1.5605351215137052e+05 +3.8054355377553388e+07 
+9.5999999999999819e+00 -3.4174997507681609e-01 +7.6319817583229321e-01 +7.1761341299384291e+00 +4.2421698693644245e+00 -7.4950591714425918e+03 +1.5517137685625971e+05 +3.8384219110018156e+07 
+9.6999999999999815e+00 -3.4175037673388164e-01 +7.6319225732299112e-01 +7.1773753385041594e+00 +4.3944855420638174e+00 -7.5458690585238546e+03 +1.5426522288389926e+05 +3.8666291607892267e+07 
+9.7999999999999812e+00 -3.4175077087253908e-01 +7.6318561095310522e-01 +7.1781277178390521e+00 +4.5597268354590836e+00 -7.5864507482558411e+03 +1.5332828740960517e+05 +3.8896299068167739e+07 
+9.8999999999999808e+00 -3.4175115726580596e-01 +7.6317815042607862e-01 +7.1783612897538420e+00 +4.7397528572108287e+00 -7.6160223787663235e+03 +1.5235380872328163e+05 +3.9069968816471033e+07 
+9.9999999999999805e+00 -3.4175153568673805e-01 +7.6316978945783520e-01 +7.1780460884719481e+00 +4.9364219982172051e+00 -7.6338024424791929e+03 +1.5133502989986830e+05 +3.9183030199500643e+07 
+1.0099999999999980e+01 -3.4175190602564021e-01 +7.6316048591938013e-01 +7.1771646019221569e+00 +5.1504868569435445e+00 -7.6392928387409111e+03 +1.5026999712645821e+05 +3.9232675465024121e+07 
