# field on trajectory
# s[mm] rx[mm] ry[mm] rz[mm] bx[T] by[T] bz[T]
0.0000000000000000e+00 +9.1132000000000009e+00 +0.0000000000000000e+00 +0.0000000000000000e+00 +1.1242154412112484e-02 -1.0329644028516904e+00 -5.8640333136887351e-02
1.0000000000000001e-01 +9.1131994838763912e+00 +0.0000000000000000e+00 +9.9999999998224121e-02 +1.1241825959636235e-02 -1.0329565800065030e+00 -5.8639338086520693e-02
2.0000000000000001e-01 +9.1131979355107831e+00 +0.0000000000000000e+00 +1.9999999998579299e-01 +1.1241492920154984e-02 -1.0329486925231670e+00 -5.8638317812293415e-02
3.0000000000000004e-01 +9.1131953549110580e+00 +0.0000000000000000e+00 +2.9999999995205157e-01 +1.1241154346857470e-02 -1.0329407405239179e+00 -5.8637271699191598e-02
4.0000000000000002e-01 +9.1131917420851636e+00 +0.0000000000000000e+00 +3.9999999988634505e-01 +1.1240809292888279e-02 -1.0329327241299731e+00 -5.8636199132194963e-02
5.0000000000000000e-01 +9.1131870970411111e+00 +0.0000000000000000e+00 +4.9999999977801890e-01 +1.1240456811337403e-02 -1.0329246434613990e+00 -5.8635099496275156e-02
5.9999999999999998e-01 +9.1131814197869758e+00 +0.0000000000000000e+00 +5.9999999961641892e-01 +1.1240096321710958e-02 -1.0329165015564106e+00 -5.8633972371738424e-02
6.9999999999999996e-01 +9.1131747103308935e+00 +0.0000000000000000e+00 +6.9999999939089097e-01 +1.1239728709381402e-02 -1.0329083131297954e+00 -5.8632818120260152e-02
7.9999999999999993e-01 +9.1131669686810461e+00 +0.0000000000000000e+00 +7.9999999909078134e-01 +1.1239355226172474e-02 -1.0329000958151198e+00 -5.8631637298853380e-02
8.9999999999999991e-01 +9.1131581948456457e+00 +0.0000000000000000e+00 +8.9999999870543645e-01 +1.1238977123890647e-02 -1.0328918672455372e+00 -5.8630430464524937e-02
9.9999999999999989e-01 +9.1131483888329132e+00 +0.0000000000000000e+00 +9.9999999822420316e-01 +1.1238595654334436e-02 -1.0328836450539698e+00 -5.8629198174275921e-02
1.0999999999999999e+00 +9.1131375506510643e+00 +0.0000000000000000e+00 +1.0999999976364283e+00 +1.1238212069303781e-02 -1.0328754468732968e+00 -5.8627940985102385e-02
1.2000000000000000e+00 +9.1131256803082916e+00 +0.0000000000000000e+00 +1.1999999969314592e+00 +1.1237827620609334e-02 -1.0328672903365317e+00 -5.8626659453995526e-02
1.3000000000000000e+00 +9.1131127778127468e+00 +0.0000000000000000e+00 +1.2999999960986433e+00 +1.1237443560081788e-02 -1.0328591930770137e+00 -5.8625354137942398e-02
1.4000000000000001e+00 +9.1130988431725211e+00 +0.0000000000000000e+00 +1.3999999951273283e+00 +1.1237061139581263e-02 -1.0328511727285881e+00 -5.8624025593926411e-02
1.5000000000000002e+00 +9.1130838763956277e+00 +0.0000000000000000e+00 +1.4999999940068625e+00 +1.1236681611006577e-02 -1.0328432469257898e+00 -5.8622674378927674e-02
1.6000000000000003e+00 +9.1130678774899891e+00 +0.0000000000000000e+00 +1.5999999927265938e+00 +1.1236306226304603e-02 -1.0328354333040293e+00 -5.8621301049923656e-02
1.7000000000000004e+00 +9.1130508464634126e+00 +0.0000000000000000e+00 +1.6999999912758705e+00 +1.1235936237479602e-02 -1.0328277494997748e+00 -5.8619906163889589e-02
1.8000000000000005e+00 +9.1130327833235771e+00 +0.0000000000000000e+00 +1.7999999896440415e+00 +1.1235572896602548e-02 -1.0328202131507391e+00 -5.8618490277798987e-02
1.9000000000000006e+00 +9.1130136880780146e+00 +0.0000000000000000e+00 +1.8999999878204556e+00 +1.1235217455820463e-02 -1.0328128418960594e+00 -5.8617053948624119e-02
2.0000000000000004e+00 +9.1129935607340915e+00 +0.0000000000000000e+00 +1.9999999857944619e+00 +1.1234871167365747e-02 -1.0328056533764849e+00 -5.8615597733336612e-02
2.1000000000000005e+00 +9.1129724012989932e+00 +0.0000000000000000e+00 +2.0999999835554095e+00 +1.1234535283565486e-02 -1.0327986652345598e+00 -5.8614122188907762e-02
2.2000000000000006e+00 +9.1129502097797026e+00 +0.0000000000000000e+00 +2.1999999810926480e+00 +1.1234211056850811e-02 -1.0327918951148056e+00 -5.8612627872309177e-02
2.3000000000000007e+00 +9.1129269861829858e+00 +0.0000000000000000e+00 +2.2999999783955269e+00 +1.1233899739766219e-02 -1.0327853606639086e+00 -5.8611115340513262e-02
2.4000000000000008e+00 +9.1129027305153745e+00 +0.0000000000000000e+00 +2.3999999754533961e+00 +1.1233602584978871e-02 -1.0327790795309000e+00 -5.8609585150493602e-02
2.5000000000000009e+00 +9.1128774427831463e+00 +0.0000000000000000e+00 +2.4999999722556052e+00 +1.1233320845287963e-02 -1.0327730693673416e+00 -5.8608037859225574e-02
2.6000000000000010e+00 +9.1128511229923088e+00 +0.0000000000000000e+00 +2.5999999687915043e+00 +1.1233055369243928e-02 -1.0327673424262649e+00 -5.8606473794869100e-02
2.7000000000000011e+00 +9.1128237711485891e+00 +0.0000000000000000e+00 +2.6999999650504436e+00 +1.1232805387921048e-02 -1.0327618893576596e+00 -5.8604892370310892e-02
2.8000000000000012e+00 +9.1127953872574405e+00 +0.0000000000000000e+00 +2.7999999610217734e+00 +1.1232569727975594e-02 -1.0327566954106471e+00 -5.8603292769610557e-02
2.9000000000000012e+00 +9.1127659713240572e+00 +0.0000000000000000e+00 +2.8999999566948440e+00 +1.1232347216012175e-02 -1.0327517458344302e+00 -5.8601674176816797e-02
3.0000000000000013e+00 +9.1127355233533898e+00 +0.0000000000000000e+00 +2.9999999520590057e+00 +1.1232136678574615e-02 -1.0327470258782137e+00 -5.8600035775966799e-02
3.1000000000000014e+00 +9.1127040433501580e+00 +0.0000000000000000e+00 +3.0999999471036088e+00 +1.1231936942136929e-02 -1.0327425207911247e+00 -5.8598376751085535e-02
3.2000000000000015e+00 +9.1126715313188704e+00 +0.0000000000000000e+00 +3.1999999418180041e+00 +1.1231746833094148e-02 -1.0327382158221265e+00 -5.8596696286184920e-02
3.3000000000000016e+00 +9.1126379872638328e+00 +0.0000000000000000e+00 +3.2999999361915422e+00 +1.1231565177753316e-02 -1.0327340962199414e+00 -5.8594993565263223e-02
3.4000000000000017e+00 +9.1126034111891681e+00 +0.0000000000000000e+00 +3.3999999302135735e+00 +1.1231390802324354e-02 -1.0327301472329677e+00 -5.8593267772304218e-02
3.5000000000000018e+00 +9.1125678030988251e+00 +0.0000000000000000e+00 +3.4999999238734492e+00 +1.1231222532910990e-02 -1.0327263541091984e+00 -5.8591518091276620e-02
3.6000000000000019e+00 +9.1125311629966017e+00 +0.0000000000000000e+00 +3.5999999171605199e+00 +1.1231059195501665e-02 -1.0327227020961409e+00 -5.8589743706133221e-02
3.7000000000000020e+00 +9.1124934908861501e+00 +0.0000000000000000e+00 +3.6999999100641365e+00 +1.1230899615960457e-02 -1.0327191764407340e+00 -5.8587943800810276e-02
3.8000000000000020e+00 +9.1124547867710017e+00 +0.0000000000000000e+00 +3.7999999025736497e+00 +1.1230742620017992e-02 -1.0327157623892687e+00 -5.8586117559226727e-02
3.9000000000000021e+00 +9.1124150506545707e+00 +0.0000000000000000e+00 +3.8999998946784111e+00 +1.1230587033262357e-02 -1.0327124451873047e+00 -5.8584264165283471e-02
4.0000000000000018e+00 +9.1123742825401788e+00 +0.0000000000000000e+00 +3.9999998863677715e+00 +1.1230431681130004e-02 -1.0327092100795907e+00 -5.8582382802862668e-02
4.1000000000000014e+00 +9.1123324824310643e+00 +0.0000000000000000e+00 +4.0999998776310820e+00 +1.1230275388896694e-02 -1.0327060423099830e+00 -5.8580472655827075e-02
4.2000000000000011e+00 +9.1122896503303981e+00 +0.0000000000000000e+00 +4.1999998684576934e+00 +1.1230116981668377e-02 -1.0327029271213628e+00 -5.8578532908019190e-02
4.3000000000000007e+00 +9.1122457862412993e+00 +0.0000000000000000e+00 +4.2999998588369577e+00 +1.1229955284372145e-02 -1.0326998497555566e+00 -5.8576562743260660e-02
4.4000000000000004e+00 +9.1122008901668501e+00 +0.0000000000000000e+00 +4.3999998487582257e+00 +1.1229789121747123e-02 -1.0326967954532562e+00 -5.8574561345351599e-02
4.5000000000000000e+00 +9.1121549621101074e+00 +0.0000000000000000e+00 +4.4999998382108490e+00 +1.1229617318335387e-02 -1.0326937494539330e+00 -5.8572527898069646e-02
4.5999999999999996e+00 +9.1121080020741214e+00 +0.0000000000000000e+00 +4.5999998271841802e+00 +1.1229439022978360e-02 -1.0326906988659212e+00 -5.8570461918957019e-02
4.6999999999999993e+00 +9.1120600100619473e+00 +0.0000000000000000e+00 +4.6999998156675700e+00 +1.1229254682435333e-02 -1.0326876382771548e+00 -5.8568364260699682e-02
4.7999999999999989e+00 +9.1120109860766476e+00 +0.0000000000000000e+00 +4.7999998036503699e+00 +1.1229065068046022e-02 -1.0326845641451308e+00 -5.8566236109780720e-02
4.8999999999999986e+00 +9.1119609301212989e+00 +0.0000000000000000e+00 +4.8999997911219317e+00 +1.1228870951255167e-02 -1.0326814729267733e+00 -5.8564078652693287e-02
4.9999999999999982e+00 +9.1119098421989975e+00 +0.0000000000000000e+00 +4.9999997780716079e+00 +1.1228673103620392e-02 -1.0326783610783981e+00 -5.8561893075941639e-02
5.0999999999999979e+00 +9.1118577223128590e+00 +0.0000000000000000e+00 +5.0999997644887509e+00 +1.1228472296819995e-02 -1.0326752250556819e+00 -5.8559680566042265e-02
5.1999999999999975e+00 +9.1118045704660222e+00 +0.0000000000000000e+00 +5.1999997503627124e+00 +1.1228269302660843e-02 -1.0326720613136282e+00 -5.8557442309524727e-02
5.2999999999999972e+00 +9.1117503866616545e+00 +0.0000000000000000e+00 +5.2999997356828441e+00 +1.1228064893086160e-02 -1.0326688663065351e+00 -5.8555179492932916e-02
5.3999999999999968e+00 +9.1116951709029550e+00 +0.0000000000000000e+00 +5.3999997204384993e+00 +1.1227859840183400e-02 -1.0326656364879638e+00 -5.8552893302826002e-02
5.4999999999999964e+00 +9.1116389231931567e+00 +0.0000000000000000e+00 +5.4999997046190297e+00 +1.1227654916192055e-02 -1.0326623683107037e+00 -5.8550584925779435e-02
5.5999999999999961e+00 +9.1115816435355335e+00 +0.0000000000000000e+00 +5.5999996882137886e+00 +1.1227450893511510e-02 -1.0326590582267401e+00 -5.8548255548386080e-02
5.6999999999999957e+00 +9.1115233319333981e+00 +0.0000000000000000e+00 +5.6999996712121286e+00 +1.1227248544708895e-02 -1.0326557026872234e+00 -5.8545906357257246e-02
5.7999999999999954e+00 +9.1114639883901116e+00 +0.0000000000000000e+00 +5.7999996536034031e+00 +1.1227048642526877e-02 -1.0326522981424346e+00 -5.8543538539023589e-02
5.8999999999999950e+00 +9.1114036129090810e+00 +0.0000000000000000e+00 +5.8999996353769646e+00 +1.1226851959891558e-02 -1.0326488410417525e+00 -5.8541153280336385e-02
5.9999999999999947e+00 +9.1113422054937683e+00 +0.0000000000000000e+00 +5.9999996165221656e+00 +1.1226659269920261e-02 -1.0326453278336225e+00 -5.8538751767868387e-02
6.0999999999999943e+00 +9.1112797661476925e+00 +0.0000000000000000e+00 +6.0999995970283605e+00 +1.1226471345929410e-02 -1.0326417549655238e+00 -5.8536335188314977e-02
6.1999999999999940e+00 +9.1112162948744295e+00 +0.0000000000000000e+00 +6.1999995768849026e+00 +1.1226288961442336e-02 -1.0326381188839342e+00 -5.8533904728395092e-02
6.2999999999999936e+00 +9.1111517916776208e+00 +0.0000000000000000e+00 +6.2999995560811444e+00 +1.1226112890197142e-02 -1.0326344160343013e+00 -5.8531461574852395e-02
6.3999999999999932e+00 +9.1110862565609736e+00 +0.0000000000000000e+00 +6.3999995346064411e+00 +1.1225943906154535e-02 -1.0326306428610064e+00 -5.8529006914456262e-02
6.4999999999999929e+00 +9.1110196895282662e+00 +0.0000000000000000e+00 +6.4999995124501453e+00 +1.1225782783505653e-02 -1.0326267958073350e+00 -5.8526541934002724e-02
6.5999999999999925e+00 +9.1109520905833499e+00 +0.0000000000000000e+00 +6.5999994896016121e+00 +1.1225630059775213e-02 -1.0326228724381790e+00 -5.8524067703292097e-02
6.6999999999999922e+00 +9.1108834597301520e+00 +0.0000000000000000e+00 +6.6999994660501958e+00 +1.1225485324981556e-02 -1.0326188748087255e+00 -5.8521584824065373e-02
6.7999999999999918e+00 +9.1108137969726748e+00 +0.0000000000000000e+00 +6.7999994417852498e+00 +1.1225347932149844e-02 -1.0326148060969655e+00 -5.8519093781103558e-02
6.8999999999999915e+00 +9.1107431023149896e+00 +0.0000000000000000e+00 +6.8999994167961303e+00 +1.1225217234188760e-02 -1.0326106694810535e+00 -5.8516595059260559e-02
6.9999999999999911e+00 +9.1106713757612390e+00 +0.0000000000000000e+00 +6.9999993910721905e+00 +1.1225092583884809e-02 -1.0326064681393203e+00 -5.8514089143465731e-02
7.0999999999999908e+00 +9.1105986173156293e+00 +0.0000000000000000e+00 +7.0999993646027866e+00 +1.1224973333896682e-02 -1.0326022052502914e+00 -5.8511576518726335e-02
7.1999999999999904e+00 +9.1105248269824273e+00 +0.0000000000000000e+00 +7.1999993373772728e+00 +1.1224858836749538e-02 -1.0325978839927041e+00 -5.8509057670130149e-02
7.2999999999999901e+00 +9.1104500047659585e+00 +0.0000000000000000e+00 +7.2999993093850044e+00 +1.1224748444829357e-02 -1.0325935075455239e+00 -5.8506533082848033e-02
7.3999999999999897e+00 +9.1103741506706051e+00 +0.0000000000000000e+00 +7.3999992806153374e+00 +1.1224641510377234e-02 -1.0325890790879602e+00 -5.8504003242136393e-02
7.4999999999999893e+00 +9.1102972647007991e+00 +0.0000000000000000e+00 +7.4999992510576279e+00 +1.1224537385483749e-02 -1.0325846017994860e+00 -5.8501468633339847e-02
7.5999999999999890e+00 +9.1102193468610242e+00 +0.0000000000000000e+00 +7.5999992207012310e+00 +1.1224435422083238e-02 -1.0325800788598523e+00 -5.8498929741893642e-02
7.6999999999999886e+00 +9.1101403971558064e+00 +0.0000000000000000e+00 +7.6999991895355029e+00 +1.1224334971948137e-02 -1.0325755134491048e+00 -5.8496387053326243e-02
7.7999999999999883e+00 +9.1100604155897180e+00 +0.0000000000000000e+00 +7.7999991575497996e+00 +1.1224235386683313e-02 -1.0325709087476040e+00 -5.8493841053261948e-02
7.8999999999999879e+00 +9.1099794021673670e+00 +0.0000000000000000e+00 +7.8999991247334771e+00 +1.1224136017720369e-02 -1.0325662679360375e+00 -5.8491292227423324e-02
7.9999999999999876e+00 +9.1098973568934003e+00 +0.0000000000000000e+00 +7.9999990910758925e+00 +1.1224036216311980e-02 -1.0325615941954398e+00 -5.8488741061633827e-02
8.0999999999999872e+00 +9.1098142797724968e+00 +0.0000000000000000e+00 +8.0999990565664035e+00 +1.1223935333526199e-02 -1.0325568907072082e+00 -5.8486188041820319e-02
8.1999999999999869e+00 +9.1097301708093656e+00 +0.0000000000000000e+00 +8.1999990211943654e+00 +1.1223832720240783e-02 -1.0325521606531198e+00 -5.8483633654015613e-02
8.2999999999999865e+00 +9.1096450300087408e+00 +0.0000000000000000e+00 +8.2999989849491360e+00 +1.1223727727137523e-02 -1.0325474072153489e+00 -5.8481078384361070e-02
8.3999999999999861e+00 +9.1095588573753830e+00 +0.0000000000000000e+00 +8.3999989478200714e+00 +1.1223619704696538e-02 -1.0325426335764816e+00 -5.8478522719109027e-02
8.4999999999999858e+00 +9.1094716529140705e+00 +0.0000000000000000e+00 +8.4999989097965294e+00 +1.1223508003190628e-02 -1.0325378429195360e+00 -5.8475967144625461e-02
8.5999999999999854e+00 +9.1093834166295995e+00 +0.0000000000000000e+00 +8.5999988708678679e+00 +1.1223392150393086e-02 -1.0325330388635177e+00 -5.8473412240328752e-02
8.6999999999999851e+00 +9.1092941485267804e+00 +0.0000000000000000e+00 +8.6999988310234446e+00 +1.1223272384840208e-02 -1.0325282267701308e+00 -5.8470858957366867e-02
8.7999999999999847e+00 +9.1092038486104308e+00 +0.0000000000000000e+00 +8.7999987902526176e+00 +1.1223149122859981e-02 -1.0325234124371416e+00 -5.8468308339543418e-02
8.8999999999999844e+00 +9.1091125168853697e+00 +0.0000000000000000e+00 +8.8999987485447445e+00 +1.1223022780875976e-02 -1.0325186016628300e+00 -5.8465761430329367e-02
8.9999999999999840e+00 +9.1090201533564148e+00 +0.0000000000000000e+00 +8.9999987058891850e+00 +1.1222893775410688e-02 -1.0325138002460035e+00 -5.8463219272852765e-02
9.0999999999999837e+00 +9.1089267580283728e+00 +0.0000000000000000e+00 +9.0999986622752953e+00 +1.1222762523088903e-02 -1.0325090139860156e+00 -5.8460682909888713e-02
9.1999999999999833e+00 +9.1088323309060382e+00 +0.0000000000000000e+00 +9.1999986176924349e+00 +1.1222629440641100e-02 -1.0325042486827851e+00 -5.8458153383849229e-02
9.2999999999999829e+00 +9.1087368719941804e+00 +0.0000000000000000e+00 +9.2999985721299616e+00 +1.1222494944906786e-02 -1.0324995101368102e+00 -5.8455631736773123e-02
9.3999999999999826e+00 +9.1086403812975458e+00 +0.0000000000000000e+00 +9.3999985255772351e+00 +1.1222359452837873e-02 -1.0324948041491862e+00 -5.8453119010315829e-02
9.4999999999999822e+00 +9.1085428588208455e+00 +0.0000000000000000e+00 +9.4999984780236133e+00 +1.1222223381502073e-02 -1.0324901365216241e+00 -5.8450616245739308e-02
9.5999999999999819e+00 +9.1084443045687546e+00 +0.0000000000000000e+00 +9.5999984294584557e+00 +1.1222087148086224e-02 -1.0324855130564665e+00 -5.8448124483902006e-02
9.6999999999999815e+00 +9.1083447185459026e+00 +0.0000000000000000e+00 +9.6999983798711202e+00 +1.1221951169899706e-02 -1.0324809395567054e+00 -5.8445644765248550e-02
9.7999999999999812e+00 +9.1082441007568704e+00 +0.0000000000000000e+00 +9.7999983292509665e+00 +1.1221815864377777e-02 -1.0324764218259994e+00 -5.8443178129799836e-02
9.8999999999999808e+00 +9.1081424512061844e+00 +0.0000000000000000e+00 +9.8999982775873541e+00 +1.1221681649084950e-02 -1.0324719656686907e+00 -5.8440725617142739e-02
9.9999999999999805e+00 +9.1080397698983067e+00 +0.0000000000000000e+00 +9.9999982248696409e+00 +1.1221548941718373e-02 -1.0324675768898202e+00 -5.8438288266420092e-02
1.0099999999999980e+01 +9.1079360568376320e+00 +0.0000000000000000e+00 +1.0099998171087188e+01 +1.1221418160111196e-02 -1.0324632612951492e+00 -5.8435867116320525e-02
1.0199999999999980e+01 +9.1078313120284857e+00 +0.0000000000000000e+00 +1.0199998116229354e+01 +1.1221289722235924e-02 -1.0324590246911720e+00 -5.8433463205068342e-02
1.0299999999999979e+01 +9.1077255354751117e+00 +0.0000000000000000e+00 +1.0299998060285498e+01 +1.1221164046207819e-02 -1.0324548728851359e+00 -5.8431077570413464e-02
1.0399999999999979e+01 +9.1076187271816682e+00 +0.0000000000000000e+00 +1.0399998003244981e+01 +1.1221041550288233e-02 -1.0324508116850557e+00 -5.8428711249621228e-02
1.0499999999999979e+01 +9.1075108871522268e+00 +0.0000000000000000e+00 +1.0499997945097162e+01 +1.1220922652888005e-02 -1.0324468468997350e+00 -5.8426365279462301e-02
1.0599999999999978e+01 +9.1074020153907593e+00 +0.0000000000000000e+00 +1.0599997885831399e+01 +1.1220807697218419e-02 -1.0324429837255649e+00 -5.8424040845774509e-02
1.0699999999999978e+01 +9.1072921119011365e+00 +0.0000000000000000e+00 +1.0699997825437052e+01 +1.1220696725139562e-02 -1.0324392249062255e+00 -5.8421739732550479e-02
1.0799999999999978e+01 +9.1071811766871278e+00 +0.0000000000000000e+00 +1.0799997763903480e+01 +1.1220589703089054e-02 -1.0324355725714880e+00 -5.8419463873809266e-02
1.0899999999999977e+01 +9.1070692097523942e+00 +0.0000000000000000e+00 +1.0899997701220045e+01 +1.1220486597422002e-02 -1.0324320288503541e+00 -5.8417215204105317e-02
1.0999999999999977e+01 +9.1069562111004885e+00 +0.0000000000000000e+00 +1.0999997637376104e+01 +1.1220387374408771e-02 -1.0324285958710335e+00 -5.8414995658542558e-02
1.1099999999999977e+01 +9.1068421807348532e+00 +0.0000000000000000e+00 +1.1099997572361019e+01 +1.1220292000232761e-02 -1.0324252757609291e+00 -5.8412807172788579e-02
1.1199999999999976e+01 +9.1067271186588190e+00 +0.0000000000000000e+00 +1.1199997506164147e+01 +1.1220200440988178e-02 -1.0324220706466103e+00 -5.8410651683088677e-02
1.1299999999999976e+01 +9.1066110248755994e+00 +0.0000000000000000e+00 +1.1299997438774849e+01 +1.1220112662677811e-02 -1.0324189826537991e+00 -5.8408531126280083e-02
1.1399999999999975e+01 +9.1064938993882940e+00 +0.0000000000000000e+00 +1.1399997370182483e+01 +1.1220028631210816e-02 -1.0324160139073459e+00 -5.8406447439805928e-02
1.1499999999999975e+01 +9.1063757421998801e+00 +0.0000000000000000e+00 +1.1499997300376409e+01 +1.1219948312400472e-02 -1.0324131665312117e+00 -5.8404402561729532e-02
1.1599999999999975e+01 +9.1062565533132158e+00 +0.0000000000000000e+00 +1.1599997229345986e+01 +1.1219871671961973e-02 -1.0324104426484471e+00 -5.8402398430748292e-02
1.1699999999999974e+01 +9.1061363327310367e+00 +0.0000000000000000e+00 +1.1699997157080574e+01 +1.1219798675510191e-02 -1.0324078443811724e+00 -5.8400436986208004e-02
1.1799999999999974e+01 +9.1060150804559505e+00 +0.0000000000000000e+00 +1.1799997083569533e+01 +1.1219729288557431e-02 -1.0324053738505568e+00 -5.8398520168116794e-02
