# field on trajectory
# s[mm] rx[mm] ry[mm] rz[mm] bx[T] by[T] bz[T]
0.0000000000000000e+00 +9.1312999999999995e+00 +0.0000000000000000e+00 +0.0000000000000000e+00 +1.1372822841316702e-02 -1.0336742698793830e+00 -5.8861286876571141e-02
-1.0000000000000001e-01 +9.1312994835206904e+00 +0.0000000000000000e+00 -9.9999999998221664e-02 +1.1372961174214390e-02 -1.0336725259963122e+00 -5.8861339271663905e-02
-2.0000000000000001e-01 +9.1312979340839302e+00 +0.0000000000000000e+00 -1.9999999998577331e-01 +1.1373100853538147e-02 -1.0336707429634990e+00 -5.8861392038573428e-02
-3.0000000000000004e-01 +9.1312953516914988e+00 +0.0000000000000000e+00 -2.9999999995198501e-01 +1.1373241193049624e-02 -1.0336689314659657e+00 -5.8861445246226572e-02
-4.0000000000000002e-01 +9.1312917363452080e+00 +0.0000000000000000e+00 -3.9999999988618679e-01 +1.1373381506510721e-02 -1.0336671021882446e+00 -5.8861498963546033e-02
-5.0000000000000000e-01 +9.1312870880468839e+00 +0.0000000000000000e+00 -4.9999999977770881e-01 +1.1373521107690097e-02 -1.0336652658143710e+00 -5.8861553259455822e-02
-5.9999999999999998e-01 +9.1312814067983616e+00 +0.0000000000000000e+00 -5.9999999961588135e-01 +1.1373659310369655e-02 -1.0336634330278782e+00 -5.8861608202886537e-02
-6.9999999999999996e-01 +9.1312746926014725e+00 +0.0000000000000000e+00 -6.9999999939003454e-01 +1.1373795428351057e-02 -1.0336616145117952e+00 -5.8861663862780786e-02
-7.9999999999999993e-01 +9.1312669454580337e+00 +0.0000000000000000e+00 -7.9999999908949881e-01 +1.1373928775462243e-02 -1.0336598209486390e+00 -5.8861720308098435e-02
-8.9999999999999991e-01 +9.1312581653698377e+00 +0.0000000000000000e+00 -8.9999999870360448e-01 +1.1374058665563914e-02 -1.0336580630204133e+00 -5.8861777607822137e-02
-9.9999999999999989e-01 +9.1312483523386394e+00 +0.0000000000000000e+00 -9.9999999822168206e-01 +1.1374184412556054e-02 -1.0336563514085999e+00 -5.8861835830962599e-02
-1.0999999999999999e+00 +9.1312375063661513e+00 +0.0000000000000000e+00 -1.0999999976330619e+00 +1.1374305330384426e-02 -1.0336546967941587e+00 -5.8861895046563889e-02
-1.2000000000000000e+00 +9.1312256274540271e+00 +0.0000000000000000e+00 -1.1999999969270745e+00 +1.1374420733047086e-02 -1.0336531098575199e+00 -5.8861955323708907e-02
-1.3000000000000000e+00 +9.1312127156038532e+00 +0.0000000000000000e+00 -1.2999999960930506e+00 +1.1374529934600884e-02 -1.0336516012785799e+00 -5.8862016731524761e-02
-1.4000000000000001e+00 +9.1311987708171358e+00 +0.0000000000000000e+00 -1.3999999951203206e+00 +1.1374632249167967e-02 -1.0336501817366961e+00 -5.8862079339187912e-02
-1.5000000000000002e+00 +9.1311837930952962e+00 +0.0000000000000000e+00 -1.4999999939982152e+00 +1.1374726990942314e-02 -1.0336488619106861e+00 -5.8862143215929884e-02
-1.6000000000000003e+00 +9.1311677824396522e+00 +0.0000000000000000e+00 -1.5999999927160651e+00 +1.1374813716636857e-02 -1.0336476504368663e+00 -5.8862208442583823e-02
-1.7000000000000004e+00 +9.1311507388514173e+00 +0.0000000000000000e+00 -1.6999999912632009e+00 +1.1374892952786247e-02 -1.0336465477834653e+00 -5.8862275146193591e-02
-1.8000000000000005e+00 +9.1311326623316962e+00 +0.0000000000000000e+00 -1.7999999896289536e+00 +1.1374965468380318e-02 -1.0336455523769787e+00 -5.8862343465353302e-02
-1.9000000000000006e+00 +9.1311135528814837e+00 +0.0000000000000000e+00 -1.8999999878026537e+00 +1.1375032032412139e-02 -1.0336446626442952e+00 -5.8862413538656878e-02
-2.0000000000000004e+00 +9.1310934105016717e+00 +0.0000000000000000e+00 -1.9999999857736317e+00 +1.1375093413872666e-02 -1.0336438770128118e+00 -5.8862485504693918e-02
-2.1000000000000005e+00 +9.1310722351930487e+00 +0.0000000000000000e+00 -2.0999999835312186e+00 +1.1375150381745410e-02 -1.0336431939105455e+00 -5.8862559502045303e-02
-2.2000000000000006e+00 +9.1310500269562986e+00 +0.0000000000000000e+00 -2.1999999810647450e+00 +1.1375203705001157e-02 -1.0336426117662518e+00 -5.8862635669279129e-02
-2.3000000000000007e+00 +9.1310267857920060e+00 +0.0000000000000000e+00 -2.2999999783635419e+00 +1.1375254152592608e-02 -1.0336421290095372e+00 -5.8862714144946510e-02
-2.4000000000000008e+00 +9.1310025117006557e+00 +0.0000000000000000e+00 -2.3999999754169399e+00 +1.1375302493449079e-02 -1.0336417440709735e+00 -5.8862795067577314e-02
-2.5000000000000009e+00 +9.1309772046826367e+00 +0.0000000000000000e+00 -2.4999999722142694e+00 +1.1375349496471170e-02 -1.0336414553822142e+00 -5.8862878575676000e-02
-2.6000000000000010e+00 +9.1309508647382387e+00 +0.0000000000000000e+00 -2.5999999687448616e+00 +1.1375395930525457e-02 -1.0336412613761059e+00 -5.8862964807717376e-02
-2.7000000000000011e+00 +9.1309234918676587e+00 +0.0000000000000000e+00 -2.6999999649980468e+00 +1.1375442564439141e-02 -1.0336411604868072e+00 -5.8863053902142470e-02
-2.8000000000000012e+00 +9.1308950860709999e+00 +0.0000000000000000e+00 -2.7999999609631558e+00 +1.1375490166994778e-02 -1.0336411511498991e+00 -5.8863145997354233e-02
-2.9000000000000012e+00 +9.1308656473482763e+00 +0.0000000000000000e+00 -2.8999999566295194e+00 +1.1375539506924888e-02 -1.0336412318025017e+00 -5.8863241231713367e-02
-3.0000000000000013e+00 +9.1308351756994099e+00 +0.0000000000000000e+00 -2.9999999519864677e+00 +1.1375591352906712e-02 -1.0336414008833907e+00 -5.8863339743534256e-02
-3.1000000000000014e+00 +9.1308036711242337e+00 +0.0000000000000000e+00 -3.0999999470233317e+00 +1.1375646473556808e-02 -1.0336416568331062e+00 -5.8863441671080478e-02
-3.2000000000000015e+00 +9.1307711336224973e+00 +0.0000000000000000e+00 -3.1999999417294420e+00 +1.1375705637425810e-02 -1.0336419980940741e+00 -5.8863547152560911e-02
-3.3000000000000016e+00 +9.1307375631938630e+00 +0.0000000000000000e+00 -3.2999999360941290e+00 +1.1375769612993036e-02 -1.0336424231107155e+00 -5.8863656326125335e-02
-3.4000000000000017e+00 +9.1307029598379099e+00 +0.0000000000000000e+00 -3.3999999301067230e+00 +1.1375839168661205e-02 -1.0336429303295640e+00 -5.8863769329860281e-02
-3.5000000000000018e+00 +9.1306673235541336e+00 +0.0000000000000000e+00 -3.4999999237565547e+00 +1.1375915072751116e-02 -1.0336435181993797e+00 -5.8863886301784914e-02
-3.6000000000000019e+00 +9.1306306543419513e+00 +0.0000000000000000e+00 -3.5999999170329544e+00 +1.1375997864965452e-02 -1.0336441851813507e+00 -5.8864007336345621e-02
-3.7000000000000020e+00 +9.1305929522007023e+00 +0.0000000000000000e+00 -3.6999999099252525e+00 +1.1376087170819870e-02 -1.0336449297785844e+00 -5.8864132353951874e-02
-3.8000000000000020e+00 +9.1305542171296441e+00 +0.0000000000000000e+00 -3.7999999024227789e+00 +1.1376182387288346e-02 -1.0336457505043313e+00 -5.8864261231554894e-02
-3.9000000000000021e+00 +9.1305144491279613e+00 +0.0000000000000000e+00 -3.8999998945148642e+00 +1.1376282911343539e-02 -1.0336466458716174e+00 -5.8864393846164147e-02
-4.0000000000000018e+00 +9.1304736481947639e+00 +0.0000000000000000e+00 -3.9999998861908383e+00 +1.1376388139957835e-02 -1.0336476143931774e+00 -5.8864530074851970e-02
-4.1000000000000014e+00 +9.1304318143290892e+00 +0.0000000000000000e+00 -4.0999998774400321e+00 +1.1376497470104401e-02 -1.0336486545813870e+00 -5.8864669794758247e-02
-4.2000000000000011e+00 +9.1303889475299016e+00 +0.0000000000000000e+00 -4.1999998682517745e+00 +1.1376610298758237e-02 -1.0336497649481966e+00 -5.8864812883095162e-02
-4.3000000000000007e+00 +9.1303450477960961e+00 +0.0000000000000000e+00 -4.2999998586153962e+00 +1.1376726022897200e-02 -1.0336509440050634e+00 -5.8864959217151895e-02
-4.4000000000000004e+00 +9.1303001151265004e+00 +0.0000000000000000e+00 -4.3999998485202276e+00 +1.1376844039503085e-02 -1.0336521902628844e+00 -5.8865108674299296e-02
-4.5000000000000000e+00 +9.1302541495198728e+00 +0.0000000000000000e+00 -4.4999998379555972e+00 +1.1376963745562661e-02 -1.0336535022319289e+00 -5.8865261131994612e-02
-4.5999999999999996e+00 +9.1302071509749076e+00 +0.0000000000000000e+00 -4.5999998269108362e+00 +1.1377084538068682e-02 -1.0336548784217714e+00 -5.8865416467786140e-02
-4.6999999999999993e+00 +9.1301591194902354e+00 +0.0000000000000000e+00 -4.6999998153752731e+00 +1.1377205814021005e-02 -1.0336563173412248e+00 -5.8865574559318012e-02
-4.7999999999999989e+00 +9.1301100550644225e+00 +0.0000000000000000e+00 -4.7999998033382383e+00 +1.1377326970427577e-02 -1.0336578174982729e+00 -5.8865735284334857e-02
-4.8999999999999986e+00 +9.1300599576959751e+00 +0.0000000000000000e+00 -4.8999997907890611e+00 +1.1377447404305522e-02 -1.0336593774000038e+00 -5.8865898520686466e-02
-4.9999999999999982e+00 +9.1300088273833406e+00 +0.0000000000000000e+00 -4.9999997777170710e+00 +1.1377566512682170e-02 -1.0336609955525409e+00 -5.8866064146332560e-02
-5.0999999999999979e+00 +9.1299566641249079e+00 +0.0000000000000000e+00 -5.0999997641115975e+00 +1.1377683692596096e-02 -1.0336626704609770e+00 -5.8866232039347426e-02
-5.1999999999999975e+00 +9.1299034679190072e+00 +0.0000000000000000e+00 -5.1999997499619699e+00 +1.1377798341098210e-02 -1.0336644006293081e+00 -5.8866402077924714e-02
-5.2999999999999972e+00 +9.1298492387639172e+00 +0.0000000000000000e+00 -5.2999997352575177e+00 +1.1377909855252749e-02 -1.0336661845603647e+00 -5.8866574140382079e-02
-5.3999999999999968e+00 +9.1297939766578597e+00 +0.0000000000000000e+00 -5.3999997199875702e+00 +1.1378017632138391e-02 -1.0336680207557443e+00 -5.8866748105165831e-02
-5.4999999999999964e+00 +9.1297376815990070e+00 +0.0000000000000000e+00 -5.4999997041414561e+00 +1.1378121068849242e-02 -1.0336699077157450e+00 -5.8866923850855776e-02
-5.5999999999999961e+00 +9.1296803535854778e+00 +0.0000000000000000e+00 -5.5999996877085048e+00 +1.1378219738418759e-02 -1.0336718450077831e+00 -5.8867101289305411e-02
-5.6999999999999957e+00 +9.1296219926153430e+00 +0.0000000000000000e+00 -5.6999996706780447e+00 +1.1378313917605539e-02 -1.0336738364721647e+00 -5.8867280464999540e-02
-5.7999999999999954e+00 +9.1295625986866185e+00 +0.0000000000000000e+00 -5.7999996530394045e+00 +1.1378404059140930e-02 -1.0336758870171645e+00 -5.8867461455551620e-02
-5.8999999999999950e+00 +9.1295021717972613e+00 +0.0000000000000000e+00 -5.8999996347819135e+00 +1.1378490615807868e-02 -1.0336780015505909e+00 -5.8867644338551621e-02
-5.9999999999999947e+00 +9.1294407119451648e+00 +0.0000000000000000e+00 -5.9999996158949003e+00 +1.1378574040443292e-02 -1.0336801849797588e+00 -5.8867829191563317e-02
-6.0999999999999943e+00 +9.1293782191281512e+00 +0.0000000000000000e+00 -6.0999995963676925e+00 +1.1378654785940497e-02 -1.0336824422114721e+00 -5.8868016092121687e-02
-6.1999999999999940e+00 +9.1293146933439733e+00 +0.0000000000000000e+00 -6.1999995761896196e+00 +1.1378733305251531e-02 -1.0336847781520000e+00 -5.8868205117730325e-02
-6.2999999999999936e+00 +9.1292501345903023e+00 +0.0000000000000000e+00 -6.2999995553500092e+00 +1.1378810051389569e-02 -1.0336871977070561e+00 -5.8868396345858734e-02
-6.3999999999999932e+00 +9.1291845428647260e+00 +0.0000000000000000e+00 -6.3999995338381899e+00 +1.1378885477431292e-02 -1.0336897057817775e+00 -5.8868589853939793e-02
-6.4999999999999929e+00 +9.1291179181647450e+00 +0.0000000000000000e+00 -6.4999995116434892e+00 +1.1378960036519269e-02 -1.0336923072807018e+00 -5.8868785719367066e-02
-6.5999999999999925e+00 +9.1290502604877677e+00 +0.0000000000000000e+00 -6.5999994887552358e+00 +1.1379034181864341e-02 -1.0336950071077458e+00 -5.8868984019492157e-02
-6.6999999999999922e+00 +9.1289815698311010e+00 +0.0000000000000000e+00 -6.6999994651627572e+00 +1.1379108366747999e-02 -1.0336978101661851e+00 -5.8869184831622179e-02
-6.7999999999999918e+00 +9.1289118461919525e+00 +0.0000000000000000e+00 -6.7999994408553803e+00 +1.1379183044524762e-02 -1.0337007213586324e+00 -5.8869388233017017e-02
-6.8999999999999915e+00 +9.1288410895674179e+00 +0.0000000000000000e+00 -6.8999994158224327e+00 +1.1379258668624553e-02 -1.0337037455870131e+00 -5.8869594300886716e-02
-6.9999999999999911e+00 +9.1287692999544845e+00 +0.0000000000000000e+00 -6.9999993900532420e+00 +1.1379335692555096e-02 -1.0337068877525466e+00 -5.8869803112388916e-02
-7.0999999999999908e+00 +9.1286964773500188e+00 +0.0000000000000000e+00 -7.0999993635371350e+00 +1.1379414569904284e-02 -1.0337101527557246e+00 -5.8870014744626206e-02
-7.1999999999999904e+00 +9.1286226217507647e+00 +0.0000000000000000e+00 -7.1999993362634394e+00 +1.1379495754342554e-02 -1.0337135454962871e+00 -5.8870229274643394e-02
-7.2999999999999901e+00 +9.1285477331533400e+00 +0.0000000000000000e+00 -7.2999993082214809e+00 +1.1379579699625284e-02 -1.0337170708732040e+00 -5.8870446779425017e-02
-7.3999999999999897e+00 +9.1284718115542276e+00 +0.0000000000000000e+00 -7.3999992794005864e+00 +1.1379666859595159e-02 -1.0337207337846490e+00 -5.8870667335892558e-02
-7.4999999999999893e+00 +9.1283948569497770e+00 +0.0000000000000000e+00 -7.4999992497900818e+00 +1.1379757688184566e-02 -1.0337245391279828e+00 -5.8870891020901962e-02
-7.5999999999999890e+00 +9.1283168693361922e+00 +0.0000000000000000e+00 -7.5999992193792929e+00 +1.1379852498786236e-02 -1.0337284890772964e+00 -5.8871117851898642e-02
-7.6999999999999886e+00 +9.1282378487095368e+00 +0.0000000000000000e+00 -7.6999991881575465e+00 +1.1379951042280850e-02 -1.0337325749160351e+00 -5.8871347608847914e-02
-7.7999999999999883e+00 +9.1281577950657358e+00 +0.0000000000000000e+00 -7.7999991561141675e+00 +1.1380052928820753e-02 -1.0337367852046999e+00 -5.8871580012199484e-02
-7.8999999999999879e+00 +9.1280767084005916e+00 +0.0000000000000000e+00 -7.8999991232384810e+00 +1.1380157768447353e-02 -1.0337411085034460e+00 -5.8871814782217785e-02
-7.9999999999999876e+00 +9.1279945887097931e+00 +0.0000000000000000e+00 -7.9999990895198128e+00 +1.1380265171086958e-02 -1.0337455333720751e+00 -5.8872051638976020e-02
-8.0999999999999872e+00 +9.1279114359889277e+00 +0.0000000000000000e+00 -8.0999990549474870e+00 +1.1380374746546566e-02 -1.0337500483700317e+00 -5.8872290302350104e-02
-8.1999999999999869e+00 +9.1278272502334943e+00 +0.0000000000000000e+00 -8.1999990195108285e+00 +1.1380486104509676e-02 -1.0337546420563990e+00 -5.8872530492012687e-02
-8.2999999999999865e+00 +9.1277420314389133e+00 +0.0000000000000000e+00 -8.2999989831991634e+00 +1.1380598854532086e-02 -1.0337593029898962e+00 -5.8872771927427119e-02
-8.3999999999999861e+00 +9.1276557796005360e+00 +0.0000000000000000e+00 -8.3999989460018138e+00 +1.1380712606037712e-02 -1.0337640197288722e+00 -5.8873014327841422e-02
-8.4999999999999858e+00 +9.1275684947136586e+00 +0.0000000000000000e+00 -8.4999989079081040e+00 +1.1380826968314375e-02 -1.0337687808313027e+00 -5.8873257412282359e-02
-8.5999999999999854e+00 +9.1274801767735347e+00 +0.0000000000000000e+00 -8.5999988689073597e+00 +1.1380941550509607e-02 -1.0337735748547865e+00 -5.8873500899549389e-02
-8.6999999999999851e+00 +9.1273908257753824e+00 +0.0000000000000000e+00 -8.6999988289889032e+00 +1.1381055961626460e-02 -1.0337783903565401e+00 -5.8873744508208634e-02
-8.7999999999999847e+00 +9.1273004417144001e+00 +0.0000000000000000e+00 -8.7999987881420587e+00 +1.1381169810519296e-02 -1.0337832158933935e+00 -5.8873987956586910e-02
-8.8999999999999844e+00 +9.1272090245857775e+00 +0.0000000000000000e+00 -8.8999987463561485e+00 +1.1381282705889596e-02 -1.0337880400217887e+00 -5.8874230962765707e-02
-8.9999999999999840e+00 +9.1271165743847043e+00 +0.0000000000000000e+00 -8.9999987036204967e+00 +1.1381394256281763e-02 -1.0337928512977723e+00 -5.8874473244575252e-02
-9.0999999999999837e+00 +9.1270230911063823e+00 +0.0000000000000000e+00 -9.0999986599244256e+00 +1.1381504070078914e-02 -1.0337976382769944e+00 -5.8874714519588471e-02
-9.1999999999999833e+00 +9.1269285747460405e+00 +0.0000000000000000e+00 -9.1999986152572593e+00 +1.1381611755498677e-02 -1.0338023895147024e+00 -5.8874954505114978e-02
-9.2999999999999829e+00 +9.1268330252989411e+00 +0.0000000000000000e+00 -9.2999985696083201e+00 +1.1381716920588999e-02 -1.0338070935657375e+00 -5.8875192918195117e-02
-9.3999999999999826e+00 +9.1267364427603948e+00 +0.0000000000000000e+00 -9.3999985229669303e+00 +1.1381819173223935e-02 -1.0338117389845312e+00 -5.8875429475594002e-02
-9.4999999999999822e+00 +9.1266388271257703e+00 +0.0000000000000000e+00 -9.4999984753224140e+00 +1.1381918121099448e-02 -1.0338163143251016e+00 -5.8875663893795428e-02
-9.5999999999999819e+00 +9.1265401783905062e+00 +0.0000000000000000e+00 -9.5999984266640919e+00 +1.1382013490159890e-02 -1.0338208103261393e+00 -5.8875895973020488e-02
-9.6999999999999815e+00 +9.1264404965501207e+00 +0.0000000000000000e+00 -9.6999983769812879e+00 +1.1382105479998477e-02 -1.0338252264672851e+00 -5.8876125849451871e-02
-9.7999999999999812e+00 +9.1263397816002101e+00 +0.0000000000000000e+00 -9.7999983262633243e+00 +1.1382194408712451e-02 -1.0338295644147417e+00 -5.8876353743400354e-02
-9.8999999999999808e+00 +9.1262380335364508e+00 +0.0000000000000000e+00 -9.8999982744995236e+00 +1.1382280594486814e-02 -1.0338338258361757e+00 -5.8876579875312508e-02
-9.9999999999999805e+00 +9.1261352523545956e+00 +0.0000000000000000e+00 -9.9999982216792080e+00 +1.1382364355597210e-02 -1.0338380124007591e+00 -5.8876804465775610e-02
-1.0099999999999980e+01 +9.1260314380504717e+00 +0.0000000000000000e+00 -1.0099998167791700e+01 +1.1382446010412802e-02 -1.0338421257792136e+00 -5.8877027735522669e-02
-1.0199999999999980e+01 +9.1259265906199794e+00 +0.0000000000000000e+00 -1.0199998112826322e+01 +1.1382525877399192e-02 -1.0338461676438571e+00 -5.8877249905437468e-02
-1.0299999999999979e+01 +9.1258207100590898e+00 +0.0000000000000000e+00 -1.0299998056772395e+01 +1.1382604275121250e-02 -1.0338501396686388e+00 -5.8877471196559325e-02
-1.0399999999999979e+01 +9.1257137963638453e+00 +0.0000000000000000e+00 -1.0399997999619243e+01 +1.1382681522246059e-02 -1.0338540435291905e+00 -5.8877691830088223e-02
-1.0499999999999979e+01 +9.1256058495303574e+00 +0.0000000000000000e+00 -1.0499997941356188e+01 +1.1382757937545765e-02 -1.0338578809028653e+00 -5.8877912027389699e-02
-1.0599999999999978e+01 +9.1254968695548015e+00 +0.0000000000000000e+00 -1.0599997881972550e+01 +1.1382833839900476e-02 -1.0338616534687823e+00 -5.8878132009999792e-02
-1.0699999999999978e+01 +9.1253868564334191e+00 +0.0000000000000000e+00 -1.0699997821457654e+01 +1.1382909548301151e-02 -1.0338653629078687e+00 -5.8878351999630006e-02
-1.0799999999999978e+01 +9.1252758101625151e+00 +0.0000000000000000e+00 -1.0799997759800819e+01 +1.1382985381852494e-02 -1.0338690109029041e+00 -5.8878572218172269e-02
-1.0899999999999977e+01 +9.1251637307384552e+00 +0.0000000000000000e+00 -1.0899997696991369e+01 +1.1383061659775836e-02 -1.0338725991385627e+00 -5.8878792887703806e-02
-1.0999999999999977e+01 +9.1250506181576654e+00 +0.0000000000000000e+00 -1.0999997633018623e+01 +1.1383138701412039e-02 -1.0338761293014567e+00 -5.8879014230492195e-02
-1.1099999999999977e+01 +9.1249364724166302e+00 +0.0000000000000000e+00 -1.1099997567871906e+01 +1.1383216826224365e-02 -1.0338796030801800e+00 -5.8879236469000180e-02
-1.1199999999999976e+01 +9.1248212935118911e+00 +0.0000000000000000e+00 -1.1199997501540539e+01 +1.1383296353801397e-02 -1.0338830221653499e+00 -5.8879459825890691e-02
-1.1299999999999976e+01 +9.1247050814400428e+00 +0.0000000000000000e+00 -1.1299997434013843e+01 +1.1383377603859905e-02 -1.0338863882496521e+00 -5.8879684524031764e-02
-1.1399999999999975e+01 +9.1245878361977333e+00 +0.0000000000000000e+00 -1.1399997365281139e+01 +1.1383460896247772e-02 -1.0338897030278824e+00 -5.8879910786501385e-02
-1.1499999999999975e+01 +9.1244695577816639e+00 +0.0000000000000000e+00 -1.1499997295331752e+01 +1.1383546550946847e-02 -1.0338929681969904e+00 -5.8880138836592572e-02
-1.1599999999999975e+01 +9.1243502461885839e+00 +0.0000000000000000e+00 -1.1599997224155000e+01 +1.1383634835674422e-02 -1.0338961849087980e+00 -5.8880368778013822e-02
-1.1699999999999974e+01 +9.1242299014152906e+00 +0.0000000000000000e+00 -1.1699997151740208e+01 +1.1383725808595788e-02 -1.0338993521268933e+00 -5.8880600235430819e-02
