# field on trajectory
# s[mm] rx[mm] ry[mm] rz[mm] bx[T] by[T] bz[T]
0.0000000000000000e+00 +9.1183999999999994e+00 +0.0000000000000000e+00 +0.0000000000000000e+00 +1.1590099121095362e-02 -1.0330291964510245e+00 -5.8813959668808792e-02
1.0000000000000001e-01 +9.1183994838421025e+00 +0.0000000000000000e+00 +9.9999999998223885e-02 +1.1590076139262719e-02 -1.0330328691166510e+00 -5.8812369365709050e-02
2.0000000000000001e-01 +9.1183979353659659e+00 +0.0000000000000000e+00 +1.9999999998579096e-01 +1.1590049199143649e-02 -1.0330365358455962e+00 -5.8810775880071831e-02
3.0000000000000004e-01 +9.1183953545679266e+00 +0.0000000000000000e+00 +2.9999999995204435e-01 +1.1590017521315752e-02 -1.0330401942105165e+00 -5.8809178484809287e-02
4.0000000000000002e-01 +9.1183917414443290e+00 +0.0000000000000000e+00 +3.9999999988632701e-01 +1.1589980326399754e-02 -1.0330438417842365e+00 -5.8807576452906199e-02
5.0000000000000000e-01 +9.1183870959915279e+00 +0.0000000000000000e+00 +4.9999999977798182e-01 +1.1589936835069552e-02 -1.0330474761397714e+00 -5.8805969057425203e-02
5.9999999999999998e-01 +9.1183814182058924e+00 +0.0000000000000000e+00 +5.9999999961635153e-01 +1.1589886508928067e-02 -1.0330510948609934e+00 -5.8804356077747179e-02
6.9999999999999996e-01 +9.1183747080838078e+00 +0.0000000000000000e+00 +6.9999999939077884e-01 +1.1589829773099813e-02 -1.0330546955745155e+00 -5.8802739318264650e-02
7.9999999999999993e-01 +9.1183669656216750e+00 +0.0000000000000000e+00 +7.9999999909060615e-01 +1.1589767293610028e-02 -1.0330582759176461e+00 -5.8801121089641598e-02
8.9999999999999991e-01 +9.1183581908159184e+00 +0.0000000000000000e+00 +8.9999999870517611e-01 +1.1589699736508953e-02 -1.0330618335276796e+00 -5.8799503702559423e-02
9.9999999999999989e-01 +9.1183483836629851e+00 +0.0000000000000000e+00 +9.9999999822383079e-01 +1.1589627767864819e-02 -1.0330653660418478e+00 -5.8797889467702015e-02
1.0999999999999999e+00 +9.1183375441593437e+00 +0.0000000000000000e+00 +1.0999999976359125e+00 +1.1589552053756790e-02 -1.0330688710972686e+00 -5.8796280695740652e-02
1.2000000000000000e+00 +9.1183256723014949e+00 +0.0000000000000000e+00 +1.1999999969307633e+00 +1.1589473260267944e-02 -1.0330723463308955e+00 -5.8794679697318844e-02
1.3000000000000000e+00 +9.1183127680859677e+00 +0.0000000000000000e+00 +1.2999999960977253e+00 +1.1589392053478201e-02 -1.0330757893794664e+00 -5.8793088783037475e-02
1.4000000000000001e+00 +9.1182988315093212e+00 +0.0000000000000000e+00 +1.3999999951261404e+00 +1.1589309099457327e-02 -1.0330791978794516e+00 -5.8791510263439511e-02
1.5000000000000002e+00 +9.1182838625681519e+00 +0.0000000000000000e+00 +1.4999999940053503e+00 +1.1589225064257854e-02 -1.0330825694670067e+00 -5.8789946448995052e-02
1.6000000000000003e+00 +9.1182678612590919e+00 +0.0000000000000000e+00 +1.5999999927246968e+00 +1.1589140613908063e-02 -1.0330859017779157e+00 -5.8788399650086184e-02
1.7000000000000004e+00 +9.1182508275788141e+00 +0.0000000000000000e+00 +1.6999999912735215e+00 +1.1589056414404914e-02 -1.0330891924475472e+00 -5.8786872176991994e-02
1.8000000000000005e+00 +9.1182327615240304e+00 +0.0000000000000000e+00 +1.7999999896411658e+00 +1.1588973131707066e-02 -1.0330924391107981e+00 -5.8785366339873461e-02
1.9000000000000006e+00 +9.1182136630915007e+00 +0.0000000000000000e+00 +1.8999999878169711e+00 +1.1588891431727736e-02 -1.0330956394020443e+00 -5.8783884448758296e-02
2.0000000000000004e+00 +9.1181935322780276e+00 +0.0000000000000000e+00 +1.9999999857902788e+00 +1.1588811980327759e-02 -1.0330987909550922e+00 -5.8782428813526071e-02
2.1000000000000005e+00 +9.1181723690804652e+00 +0.0000000000000000e+00 +2.0999999835504299e+00 +1.1588735443308464e-02 -1.0331018914031240e+00 -5.8781001743892863e-02
2.2000000000000006e+00 +9.1181501734957155e+00 +0.0000000000000000e+00 +2.1999999810867661e+00 +1.1588662486404661e-02 -1.0331049383786495e+00 -5.8779605549396430e-02
2.3000000000000007e+00 +9.1181269455207392e+00 +0.0000000000000000e+00 +2.2999999783886280e+00 +1.1588593775277600e-02 -1.0331079295134549e+00 -5.8778242539381013e-02
2.4000000000000008e+00 +9.1181026851525466e+00 +0.0000000000000000e+00 +2.3999999754453567e+00 +1.1588529975507914e-02 -1.0331108624385510e+00 -5.8776915022982247e-02
2.5000000000000009e+00 +9.1180773923882121e+00 +0.0000000000000000e+00 +2.4999999722462931e+00 +1.1588471752588543e-02 -1.0331137347841224e+00 -5.8775625309112116e-02
2.6000000000000010e+00 +9.1180510672248669e+00 +0.0000000000000000e+00 +2.5999999687807778e+00 +1.1588419599321401e-02 -1.0331165438828043e+00 -5.8774375284704569e-02
2.7000000000000011e+00 +9.1180237096597079e+00 +0.0000000000000000e+00 +2.6999999650381517e+00 +1.1588373318053385e-02 -1.0331192858801079e+00 -5.8773165149572468e-02
2.8000000000000012e+00 +9.1179953196899977e+00 +0.0000000000000000e+00 +2.7999999610077557e+00 +1.1588332538519935e-02 -1.0331219566253413e+00 -5.8771994681782617e-02
2.9000000000000012e+00 +9.1179658973130717e+00 +0.0000000000000000e+00 +2.8999999566789301e+00 +1.1588296890451565e-02 -1.0331245519684888e+00 -5.8770863659428060e-02
3.0000000000000013e+00 +9.1179354425263384e+00 +0.0000000000000000e+00 +2.9999999520410157e+00 +1.1588266003576061e-02 -1.0331270677603068e+00 -5.8769771860638823e-02
3.1000000000000014e+00 +9.1179039553272894e+00 +0.0000000000000000e+00 +3.0999999470833530e+00 +1.1588239507620706e-02 -1.0331294998524128e+00 -5.8768719063592753e-02
3.2000000000000015e+00 +9.1178714357134965e+00 +0.0000000000000000e+00 +3.1999999417952822e+00 +1.1588217032314439e-02 -1.0331318440973769e+00 -5.8767705046526238e-02
3.3000000000000016e+00 +9.1178378836826202e+00 +0.0000000000000000e+00 +3.2999999361661443e+00 +1.1588198207390094e-02 -1.0331340963488160e+00 -5.8766729587745023e-02
3.4000000000000017e+00 +9.1178032992324152e+00 +0.0000000000000000e+00 +3.3999999301852792e+00 +1.1588182662586604e-02 -1.0331362524614816e+00 -5.8765792465634972e-02
3.5000000000000018e+00 +9.1177676823607303e+00 +0.0000000000000000e+00 +3.4999999238420272e+00 +1.1588170027651182e-02 -1.0331383082913546e+00 -5.8764893458672821e-02
3.6000000000000019e+00 +9.1177310330655157e+00 +0.0000000000000000e+00 +3.5999999171257286e+00 +1.1588159932341562e-02 -1.0331402596957338e+00 -5.8764032345436937e-02
3.7000000000000020e+00 +9.1176933513448244e+00 +0.0000000000000000e+00 +3.6999999100257237e+00 +1.1588152006428185e-02 -1.0331421025333305e+00 -5.8763208904618253e-02
3.8000000000000020e+00 +9.1176546371968197e+00 +0.0000000000000000e+00 +3.7999999025313529e+00 +1.1588145879696424e-02 -1.0331438326643572e+00 -5.8762422915030810e-02
3.9000000000000021e+00 +9.1176148906197767e+00 +0.0000000000000000e+00 +3.8999998946319567e+00 +1.1588141181948780e-02 -1.0331454459506209e+00 -5.8761674155622681e-02
4.0000000000000018e+00 +9.1175741116120896e+00 +0.0000000000000000e+00 +3.9999998863168749e+00 +1.1588137543007122e-02 -1.0331469382556153e+00 -5.8760962405486769e-02
4.1000000000000014e+00 +9.1175323001722699e+00 +0.0000000000000000e+00 +4.0999998775754483e+00 +1.1588134592714865e-02 -1.0331483054446096e+00 -5.8760287443871496e-02
4.2000000000000011e+00 +9.1174894562989568e+00 +0.0000000000000000e+00 +4.1999998683970166e+00 +1.1588131960939224e-02 -1.0331495433847431e+00 -5.8759649050191612e-02
4.3000000000000007e+00 +9.1174455799909193e+00 +0.0000000000000000e+00 +4.2999998587709198e+00 +1.1588129277573404e-02 -1.0331506479451134e+00 -5.8759047004039035e-02
4.4000000000000004e+00 +9.1174006712470579e+00 +0.0000000000000000e+00 +4.3999998486864991e+00 +1.1588126172538840e-02 -1.0331516149968729e+00 -5.8758481085193569e-02
4.5000000000000000e+00 +9.1173547300664097e+00 +0.0000000000000000e+00 +4.4999998381330943e+00 +1.1588122275787410e-02 -1.0331524404133150e+00 -5.8757951073633706e-02
4.5999999999999996e+00 +9.1173077564481577e+00 +0.0000000000000000e+00 +4.5999998271000457e+00 +1.1588117265705066e-02 -1.0331531218397576e+00 -5.8757456681634693e-02
4.6999999999999993e+00 +9.1172597503916233e+00 +0.0000000000000000e+00 +4.6999998155766933e+00 +1.1588111014328027e-02 -1.0331536640018284e+00 -5.8756997349966242e-02
4.7999999999999989e+00 +9.1172107118962700e+00 +0.0000000000000000e+00 +4.7999998035523781e+00 +1.1588103442156336e-02 -1.0331540733939839e+00 -5.8756572451508109e-02
4.8999999999999986e+00 +9.1171606409616945e+00 +0.0000000000000000e+00 +4.8999997910164410e+00 +1.1588094469757778e-02 -1.0331543565093171e+00 -5.8756181359144746e-02
4.9999999999999982e+00 +9.1171095375876163e+00 +0.0000000000000000e+00 +4.9999997779582221e+00 +1.1588084017771488e-02 -1.0331545198394463e+00 -5.8755823445763966e-02
5.0999999999999979e+00 +9.1170574017738790e+00 +0.0000000000000000e+00 +5.0999997643670616e+00 +1.1588072006911566e-02 -1.0331545698744220e+00 -5.8755498084256168e-02
5.1999999999999975e+00 +9.1170042335204364e+00 +0.0000000000000000e+00 +5.1999997502323003e+00 +1.1588058357970705e-02 -1.0331545131026185e+00 -5.8755204647513104e-02
5.2999999999999972e+00 +9.1169500328273525e+00 +0.0000000000000000e+00 +5.2999997355432793e+00 +1.1588042991823829e-02 -1.0331543560106347e+00 -5.8754942508426798e-02
5.3999999999999968e+00 +9.1168947996947871e+00 +0.0000000000000000e+00 +5.3999997202893395e+00 +1.1588025829431681e-02 -1.0331541050831887e+00 -5.8754711039888517e-02
5.4999999999999964e+00 +9.1168385341229978e+00 +0.0000000000000000e+00 +5.4999997044598210e+00 +1.1588006791844475e-02 -1.0331537668030204e+00 -5.8754509614787703e-02
5.5999999999999961e+00 +9.1167812361123275e+00 +0.0000000000000000e+00 +5.5999996880440657e+00 +1.1587985800205482e-02 -1.0331533476507846e+00 -5.8754337606010919e-02
5.6999999999999957e+00 +9.1167229056632006e+00 +0.0000000000000000e+00 +5.6999996710314136e+00 +1.1587962775754690e-02 -1.0331528541049515e+00 -5.8754194386440771e-02
5.7999999999999954e+00 +9.1166635427761165e+00 +0.0000000000000000e+00 +5.7999996534112057e+00 +1.1587937639832372e-02 -1.0331522926417038e+00 -5.8754079328954732e-02
5.8999999999999950e+00 +9.1166031474516416e+00 +0.0000000000000000e+00 +5.8999996351727839e+00 +1.1587910313882734e-02 -1.0331516697348346e+00 -5.8753991806424356e-02
5.9999999999999947e+00 +9.1165417196904048e+00 +0.0000000000000000e+00 +5.9999996163054892e+00 +1.1587880719457516e-02 -1.0331509918556447e+00 -5.8753931191713904e-02
6.0999999999999943e+00 +9.1164792594930883e+00 +0.0000000000000000e+00 +6.0999995967986615e+00 +1.1587848778219596e-02 -1.0331502654728406e+00 -5.8753896857679448e-02
6.1999999999999940e+00 +9.1164157668604258e+00 +0.0000000000000000e+00 +6.1999995766416438e+00 +1.1587814411946614e-02 -1.0331494970524333e+00 -5.8753888177167847e-02
6.2999999999999936e+00 +9.1163512417931898e+00 +0.0000000000000000e+00 +6.2999995558237760e+00 +1.1587777542534573e-02 -1.0331486930576337e+00 -5.8753904523015509e-02
6.3999999999999932e+00 +9.1162856842921904e+00 +0.0000000000000000e+00 +6.3999995343344001e+00 +1.1587738092001452e-02 -1.0331478599487540e+00 -5.8753945268047565e-02
6.4999999999999929e+00 +9.1162190943582679e+00 +0.0000000000000000e+00 +6.4999995121628569e+00 +1.1587695982490792e-02 -1.0331470041831030e+00 -5.8754009785076639e-02
6.5999999999999925e+00 +9.1161514719922820e+00 +0.0000000000000000e+00 +6.5999994892984883e+00 +1.1587651205932406e-02 -1.0331461328794458e+00 -5.8754097692627294e-02
6.6999999999999922e+00 +9.1160828171951103e+00 +0.0000000000000000e+00 +6.6999994657306354e+00 +1.1587604032914107e-02 -1.0331452558129992e+00 -5.8754209592109495e-02
6.7999999999999918e+00 +9.1160131299676372e+00 +0.0000000000000000e+00 +6.7999994414486400e+00 +1.1587554803519260e-02 -1.0331443834240950e+00 -5.8754346330604987e-02
6.8999999999999915e+00 +9.1159424103107405e+00 +0.0000000000000000e+00 +6.8999994164418430e+00 +1.1587503857633050e-02 -1.0331435261539850e+00 -5.8754508755127707e-02
6.9999999999999911e+00 +9.1158706582252815e+00 +0.0000000000000000e+00 +6.9999993906995863e+00 +1.1587451534934019e-02 -1.0331426944448934e+00 -5.8754697712620971e-02
7.0999999999999908e+00 +9.1157978737121006e+00 +0.0000000000000000e+00 +7.0999993642112118e+00 +1.1587398174885605e-02 -1.0331418987400689e+00 -5.8754914049954532e-02
7.1999999999999904e+00 +9.1157240567719988e+00 +0.0000000000000000e+00 +7.1999993369660604e+00 +1.1587344116727689e-02 -1.0331411494838387e+00 -5.8755158613921589e-02
7.2999999999999901e+00 +9.1156492074057329e+00 +0.0000000000000000e+00 +7.2999993089534740e+00 +1.1587289699468139e-02 -1.0331404571216574e+00 -5.8755432251236014e-02
7.3999999999999897e+00 +9.1155733256140010e+00 +0.0000000000000000e+00 +7.3999992801627945e+00 +1.1587235261874353e-02 -1.0331398321001626e+00 -5.8755735808529372e-02
7.4999999999999893e+00 +9.1154964113974337e+00 +0.0000000000000000e+00 +7.4999992505833628e+00 +1.1587181142464808e-02 -1.0331392848672243e+00 -5.8756070132347904e-02
7.5999999999999890e+00 +9.1154184647565870e+00 +0.0000000000000000e+00 +7.5999992202045199e+00 +1.1587127679500585e-02 -1.0331388258719980e+00 -5.8756436069149778e-02
7.6999999999999886e+00 +9.1153394856919263e+00 +0.0000000000000000e+00 +7.6999991890156076e+00 +1.1587075210976945e-02 -1.0331384655649778e+00 -5.8756834465302027e-02
7.7999999999999883e+00 +9.1152594742038193e+00 +0.0000000000000000e+00 +7.7999991570059670e+00 +1.1587024074614835e-02 -1.0331382143980465e+00 -5.8757266167077708e-02
7.8999999999999879e+00 +9.1151784302925254e+00 +0.0000000000000000e+00 +7.8999991241649399e+00 +1.1586974607852477e-02 -1.0331380828245300e+00 -5.8757732020652965e-02
7.9999999999999876e+00 +9.1150963539581831e+00 +0.0000000000000000e+00 +7.9999990904818672e+00 +1.1586927147836868e-02 -1.0331380812992470e+00 -5.8758232872104049e-02
8.0999999999999872e+00 +9.1150132452008013e+00 +0.0000000000000000e+00 +8.0999990559460890e+00 +1.1586882031415361e-02 -1.0331382202785622e+00 -5.8758769567404383e-02
8.1999999999999869e+00 +9.1149291040202485e+00 +0.0000000000000000e+00 +8.1999990205469473e+00 +1.1586839595127190e-02 -1.0331385102204369e+00 -5.8759342952421786e-02
8.2999999999999865e+00 +9.1148439304162441e+00 +0.0000000000000000e+00 +8.2999989842737829e+00 +1.1586800175195030e-02 -1.0331389615844842e+00 -5.8759953872915271e-02
8.3999999999999861e+00 +9.1147577243883457e+00 +0.0000000000000000e+00 +8.3999989471159360e+00 +1.1586764107516525e-02 -1.0331395848320173e+00 -5.8760603174532383e-02
8.4999999999999858e+00 +9.1146704859359389e+00 +0.0000000000000000e+00 +8.4999989090627466e+00 +1.1586731727655845e-02 -1.0331403904261023e+00 -5.8761291702806029e-02
8.5999999999999854e+00 +9.1145822150582276e+00 +0.0000000000000000e+00 +8.5999988701035548e+00 +1.1586703245904554e-02 -1.0331413845653079e+00 -5.8762020027452261e-02
8.6999999999999851e+00 +9.1144929117542279e+00 +0.0000000000000000e+00 +8.6999988302277025e+00 +1.1586678372688997e-02 -1.0331425563838337e+00 -5.8762787615315643e-02
8.7999999999999847e+00 +9.1144025760227798e+00 +0.0000000000000000e+00 +8.7999987894245280e+00 +1.1586656693763233e-02 -1.0331438907499482e+00 -5.8763593657630855e-02
8.8999999999999844e+00 +9.1143112078625599e+00 +0.0000000000000000e+00 +8.8999987476833713e+00 +1.1586637795214016e-02 -1.0331453725324700e+00 -5.8764437345764760e-02
8.9999999999999840e+00 +9.1142188072720991e+00 +0.0000000000000000e+00 +8.9999987049935726e+00 +1.1586621263471786e-02 -1.0331469866007854e+00 -5.8765317871220767e-02
9.0999999999999837e+00 +9.1141253742497952e+00 +0.0000000000000000e+00 +9.0999986613444701e+00 +1.1586606685321632e-02 -1.0331487178248573e+00 -5.8766234425642952e-02
9.1999999999999833e+00 +9.1140309087939304e+00 +0.0000000000000000e+00 +9.1999986167254040e+00 +1.1586593647914338e-02 -1.0331505510752426e+00 -5.8767186200820491e-02
9.2999999999999829e+00 +9.1139354109026840e+00 +0.0000000000000000e+00 +9.2999985711257125e+00 +1.1586581738777349e-02 -1.0331524712231037e+00 -5.8768172388691947e-02
9.3999999999999826e+00 +9.1138388805741481e+00 +0.0000000000000000e+00 +9.3999985245347357e+00 +1.1586570545825773e-02 -1.0331544631402216e+00 -5.8769192181349364e-02
9.4999999999999822e+00 +9.1137413178063440e+00 +0.0000000000000000e+00 +9.4999984769418120e+00 +1.1586559657373385e-02 -1.0331565116990111e+00 -5.8770244771042743e-02
9.5999999999999819e+00 +9.1136427225972358e+00 +0.0000000000000000e+00 +9.5999984283362796e+00 +1.1586548662143635e-02 -1.0331586017725334e+00 -5.8771329350184302e-02
9.6999999999999815e+00 +9.1135430949447453e+00 +0.0000000000000000e+00 +9.6999983787074768e+00 +1.1586537149280627e-02 -1.0331607182345079e+00 -5.8772445111352628e-02
9.7999999999999812e+00 +9.1134424348467711e+00 +0.0000000000000000e+00 +9.7999983280447438e+00 +1.1586524708360142e-02 -1.0331628459593292e+00 -5.8773591247297072e-02
9.8999999999999808e+00 +9.1133407423011992e+00 +0.0000000000000000e+00 +9.8999982763374170e+00 +1.1586510929400629e-02 -1.0331649698220779e+00 -5.8774766950942060e-02
9.9999999999999805e+00 +9.1132380173059193e+00 +0.0000000000000000e+00 +9.9999982235748348e+00 +1.1586495402874210e-02 -1.0331670746985355e+00 -5.8775971415391336e-02
1.0099999999999980e+01 +9.1131342598588390e+00 +0.0000000000000000e+00 +1.0099998169746337e+01 +1.1586477719717683e-02 -1.0331691454651979e+00 -5.8777203833932166e-02
1.0199999999999980e+01 +9.1130294699579029e+00 +0.0000000000000000e+00 +1.0199998114841261e+01 +1.1586457471343526e-02 -1.0331711669992893e+00 -5.8778463400039817e-02
1.0299999999999979e+01 +9.1129236476011020e+00 +0.0000000000000000e+00 +1.0299998058848946e+01 +1.1586434249650909e-02 -1.0331731241787743e+00 -5.8779749307381654e-02
1.0399999999999979e+01 +9.1128167927864929e+00 +0.0000000000000000e+00 +1.0399998001758728e+01 +1.1586407647036692e-02 -1.0331750018823753e+00 -5.8781060749821638e-02
1.0499999999999979e+01 +9.1127089055122124e+00 +0.0000000000000000e+00 +1.0499997943559947e+01 +1.1586377256406431e-02 -1.0331767849895819e+00 -5.8782396921424368e-02
1.0599999999999978e+01 +9.1125999857764910e+00 +0.0000000000000000e+00 +1.0599997884241942e+01 +1.1586342809313546e-02 -1.0331784621115065e+00 -5.8783757016956033e-02
1.0699999999999978e+01 +9.1124900335776644e+00 +0.0000000000000000e+00 +1.0699997823794050e+01 +1.1586304590040834e-02 -1.0331800367830013e+00 -5.8785140233224960e-02
1.0799999999999978e+01 +9.1123790489141694e+00 +0.0000000000000000e+00 +1.0799997762205608e+01 +1.1586263020589890e-02 -1.0331815162673186e+00 -5.8786545767324214e-02
1.0899999999999977e+01 +9.1122670317845404e+00 +0.0000000000000000e+00 +1.0899997699465958e+01 +1.1586218522436575e-02 -1.0331829078244008e+00 -5.8787972816090751e-02
1.0999999999999977e+01 +9.1121539821873956e+00 +0.0000000000000000e+00 +1.0999997635564437e+01 +1.1586171516517498e-02 -1.0331842187107998e+00 -5.8789420576098941e-02
1.1099999999999977e+01 +9.1120399001214381e+00 +0.0000000000000000e+00 +1.1099997570490382e+01 +1.1586122423216456e-02 -1.0331854561795966e+00 -5.8790888243654194e-02
1.1199999999999976e+01 +9.1119247855854422e+00 +0.0000000000000000e+00 +1.1199997504233133e+01 +1.1586071662350903e-02 -1.0331866274803210e+00 -5.8792375014786312e-02
1.1299999999999976e+01 +9.1118086385782497e+00 +0.0000000000000000e+00 +1.1299997436782030e+01 +1.1586019653158417e-02 -1.0331877398588714e+00 -5.8793880085242979e-02
1.1399999999999975e+01 +9.1116914590987612e+00 +0.0000000000000000e+00 +1.1399997368126410e+01 +1.1585966814283130e-02 -1.0331888005574310e+00 -5.8795402650483289e-02
1.1499999999999975e+01 +9.1115732471459268e+00 +0.0000000000000000e+00 +1.1499997298255613e+01 +1.1585913563762233e-02 -1.0331898168143918e+00 -5.8796941905671321e-02
1.1599999999999975e+01 +9.1114540027187445e+00 +0.0000000000000000e+00 +1.1599997227158976e+01 +1.1585860319012377e-02 -1.0331907958642703e+00 -5.8798497045669425e-02
1.1699999999999974e+01 +9.1113337258162481e+00 +0.0000000000000000e+00 +1.1699997154825839e+01 +1.1585807496816159e-02 -1.0331917449376284e+00 -5.8800067265031931e-02
1.1799999999999974e+01 +9.1112124164375015e+00 +0.0000000000000000e+00 +1.1799997081245541e+01 +1.1585755513308562e-02 -1.0331926712609925e+00 -5.8801651757998410e-02
