# multipoles
# s[mm] polynom_b[n=0][T/m^n] polynom_b[n=1][T/m^n] polynom_b[n=2][T/m^n] polynom_b[n=3][T/m^n] polynom_b[n=4][T/m^n] polynom_b[n=5][T/m^n] polynom_b[n=6][T/m^n] 
+0.0000000000000000e+00 -1.0309849937089228e+00 +2.3099951788843298e+00 +1.7096629468043730e+01 -5.3322523793242021e+02 +5.9849853430017181e+04 +3.6033832638849053e+06 -2.5163381708868954e+08 
-1.0000000000000001e-01 -1.0309830419622119e+00 +2.3098046252879354e+00 +1.6690449225953465e+01 -5.3000272050038973e+02 +6.6636873483780510e+04 +3.5906301775700818e+06 -2.7996367645211035e+08 
-2.0000000000000001e-01 -1.0309809637522600e+00 +2.3096057902584626e+00 +1.6282607357401940e+01 -5.2658658173035826e+02 +7.3420059602676483e+04 +3.5765516438809810e+06 -3.0825295591037047e+08 
-3.0000000000000004e-01 -1.0309787761811211e+00 +2.3094002964212743e+00 +1.5874003387054218e+01 -5.2300244001487852e+02 +8.0188044148165427e+04 +3.5612313245573752e+06 -3.3646517931667584e+08 
-4.0000000000000002e-01 -1.0309764963507095e+00 +2.3091897663751220e+00 +1.5465536815524478e+01 -5.1927591222195963e+02 +8.6929460065970590e+04 +3.5447528713367232e+06 -3.6456387379140222e+08 
-5.0000000000000000e-01 -1.0309741413627604e+00 +2.3089758226919948e+00 +1.5058107111968305e+01 -5.1543261380192882e+02 +9.3632941055213654e+04 +3.5271999271791792e+06 -3.9251257062394726e+08 
-5.9999999999999998e-01 -1.0309717283188866e+00 +2.3087600878838748e+00 +1.4652613719846526e+01 -5.1149815787225981e+02 +1.0028712147762366e+05 +3.5086561213800777e+06 -4.2027480491418725e+08 
-6.9999999999999996e-01 -1.0309692743204995e+00 +2.3085441843943424e+00 +1.4249956044302108e+01 -5.0749815506039641e+02 +1.0688063662832574e+05 +3.4892050692013060e+06 -4.4781411696234763e+08 
-7.9999999999999993e-01 -1.0309667964688998e+00 +2.3083297345764988e+00 +1.3851033461518691e+01 -5.0345821295036700e+02 +1.1340212258224330e+05 +3.4689303691848563e+06 -4.7509405162667948e+08 
-8.9999999999999991e-01 -1.0309643118652287e+00 +2.3081183606779070e+00 +1.3456745310496762e+01 -4.9940393570457991e+02 +1.1984021637694557e+05 +3.4479156014233893e+06 -5.0207815928562933e+08 
-9.9999999999999989e-01 -1.0309618376104499e+00 +2.3079116848185635e+00 +1.3067990888996251e+01 -4.9536092351009614e+02 +1.2618355611123198e+05 +3.4262443248682683e+06 -5.2872999638530445e+08 
-1.0999999999999999e+00 -1.0309593908054553e+00 +2.3077113289775246e+00 +1.2685669464499279e+01 -4.9135477226219962e+02 +1.3242078076401132e+05 +3.4040000759910694e+06 -5.5501312467219651e+08 
-1.2000000000000000e+00 -1.0309569885509113e+00 +2.3075189149692741e+00 +1.2310680252244623e+01 -4.8741107297161437e+02 +1.3854053064275620e+05 +3.3812663658920606e+06 -5.8089111343085623e+08 
-1.3000000000000000e+00 -1.0309546479474341e+00 +2.3073360644321381e+00 +1.1943922436146158e+01 -4.8355541147208572e+02 +1.4453144700120026e+05 +3.3581266790156681e+06 -6.0632753772798431e+08 
-1.4000000000000001e+00 -1.0309523860954319e+00 +2.3071643988086663e+00 +1.1586295145889759e+01 -4.7981336796782261e+02 +1.5038217250995187e+05 +3.3346644711498711e+06 -6.3128598076756680e+08 
-1.5000000000000002e+00 -1.0309502200952019e+00 +2.3070055393213953e+00 +1.1238697467838174e+01 -4.7621051638401724e+02 +1.5608135106646139e+05 +3.3109631661526901e+06 -6.5573003304674065e+08 
-1.6000000000000003e+00 -1.0309481650733572e+00 +2.3068606995428254e+00 +1.0901919719813533e+01 -4.7276610464847096e+02 +1.6161873453928650e+05 +3.2870883816457330e+06 -6.7962417261454308e+08 
-1.7000000000000004e+00 -1.0309462283279827e+00 +2.3067294301649897e+00 +1.0576334270652065e+01 -4.6947233252017816e+02 +1.6698819175967251e+05 +3.2630179827893903e+06 -7.0293509589011431e+08 
-1.8000000000000005e+00 -1.0309444152161165e+00 +2.3066108575046065e+00 +1.0262213225422087e+01 -4.6631418917091338e+02 +1.7218454236026906e+05 +3.2387037179913823e+06 -7.2562971461257005e+08 
-1.9000000000000006e+00 -1.0309427310946739e+00 +2.3065041077230708e+00 +9.9598286656309742e+00 -4.6327665915876401e+02 +1.7720260652424159e+05 +3.2140973077014843e+06 -7.4767494344300973e+08 
-2.0000000000000004e+00 -1.0309411813205334e+00 +2.3064083068405350e+00 +9.6694526629630015e+00 -4.6034472285949897e+02 +1.8203720469322841e+05 +3.1891504465388395e+06 -7.6903769846472347e+08 
-2.1000000000000005e+00 -1.0309397712505262e+00 +2.3063225807366856e+00 +9.3913572776941567e+00 -4.5750335651110282e+02 +1.8668315758644973e+05 +3.1638148031451185e+06 -7.8968489721268797e+08 
-2.2000000000000006e+00 -1.0309385062414369e+00 +2.3062460551407158e+00 +9.1258145625217253e+00 -4.5473753190962907e+02 +1.9113528608641159e+05 +3.1380420178953656e+06 -8.0958345798385668e+08 
-2.3000000000000007e+00 -1.0309373916500297e+00 +2.3061778556480137e+00 +8.8730965660210064e+00 -4.5203221694280484e+02 +1.9538841116075247e+05 +3.1117837056523007e+06 -8.2870029940095663e+08 
-2.4000000000000008e+00 -1.0309364328330319e+00 +2.3061171076965574e+00 +8.6334753329431795e+00 -4.4937237488435539e+02 +1.9943735382386597e+05 +3.0849914511418962e+06 -8.4700234010602272e+08 
-2.5000000000000009e+00 -1.0309356351471377e+00 +2.3060629365898548e+00 +8.4072229060827635e+00 -4.4674296509075117e+02 +2.0327693508188284e+05 +3.0576168125933418e+06 -8.6445649841676676e+08 
-2.6000000000000010e+00 -1.0309350039490526e+00 +2.3060144674829179e+00 +8.1946113337696982e+00 -4.4412894259880738e+02 +2.0690197575907904e+05 +3.0296113189526242e+06 -8.8102969138168585e+08 
-2.7000000000000011e+00 -1.0309345445955285e+00 +2.3059708253857409e+00 +7.9959126761352008e+00 -4.4151525824636946e+02 +2.1030729635658977e+05 +3.0009264701463482e+06 -8.9668883401701391e+08 
-2.8000000000000012e+00 -1.0309342624432503e+00 +2.3059311351657557e+00 +7.8113989920371729e+00 -4.3888685875332487e+02 +2.1348771727461246e+05 +2.9715137371094106e+06 -9.1140084025706053e+08 
-2.9000000000000012e+00 -1.0309341628489963e+00 +2.3058945215426969e+00 +7.6413423613777471e+00 -4.3622868657784250e+02 +2.1643805836469540e+05 +2.9413245604752242e+06 -9.2513262073345912e+08 
-3.0000000000000013e+00 -1.0309342511695228e+00 +2.3058601090957156e+00 +7.4860148717925883e+00 -4.3352568014998883e+02 +2.1915313915796785e+05 +2.9103103515399122e+06 -9.3785108375729799e+08 
-3.1000000000000014e+00 -1.0309345327616521e+00 +2.3058270222520525e+00 +7.3456886322453814e+00 -4.3076277353491713e+02 +2.2162777857576386e+05 +2.8784224898015219e+06 -9.4952313382788515e+08 
-3.2000000000000015e+00 -1.0309350129822605e+00 +2.3057943853048468e+00 +7.2206357723665784e+00 -4.2792489699028710e+02 +2.2385679492218132e+05 +2.8456123258285425e+06 -9.6011567150861096e+08 
-3.3000000000000016e+00 -1.0309356971882828e+00 +2.3057613223874651e+00 +7.1111284447265071e+00 -4.2499697620686266e+02 +2.2583500581741839e+05 +2.8118311763323098e+06 -9.6959559301772356e+08 
-3.4000000000000017e+00 -1.0309365907366819e+00 +2.3057269575011170e+00 +7.0174388232784111e+00 -4.2196393313629096e+02 +2.2755722819831542e+05 +2.7770303285667496e+06 -9.7792979011764944e+08 
-3.5000000000000018e+00 -1.0309376989845624e+00 +2.3056904144912247e+00 +6.9398391190338478e+00 -4.1881068523562590e+02 +2.2901827800131668e+05 +2.7411610348239392e+06 -9.8508514856981730e+08 
-3.6000000000000019e+00 -1.0309390242333705e+00 +2.3056509629812347e+00 +6.8783946263884559e+00 -4.1552549511513371e+02 +2.3021642777456544e+05 +2.7041927678223960e+06 -9.9104574318939960e+08 
-3.7000000000000020e+00 -1.0309405566173755e+00 +2.3056085211500301e+00 +6.8323440968088054e+00 -4.1211304911443267e+02 +2.3116378137008191e+05 +2.6661964542064103e+06 -9.9586458132347655e+08 
-3.8000000000000020e+00 -1.0309422832424411e+00 +2.3055631859906853e+00 +6.8007197085316857e+00 -4.0858291432092983e+02 +2.3187591033371064e+05 +2.6272756607974134e+06 -9.9961202499483967e+08 
-3.9000000000000021e+00 -1.0309441912146469e+00 +2.3055150545749301e+00 +6.7825536783684663e+00 -4.0494466002874196e+02 +2.3236838530385061e+05 +2.5875339687282094e+06 -1.0023584314151163e+09 
-4.0000000000000018e+00 -1.0309462676401830e+00 +2.3054642240635776e+00 +6.7768782504401859e+00 -4.0120785792416768e+02 +2.3265677620148027e+05 +2.5470749737505387e+06 -1.0041741537597927e+09 
-4.1000000000000014e+00 -1.0309484996255001e+00 +2.3054107917248552e+00 +6.7827257146305149e+00 -3.9738208259739781e+02 +2.3275665187157708e+05 +2.5060022893875120e+06 -1.0051295394387237e+09 
-4.2000000000000011e+00 -1.0309508742772344e+00 +2.3053548549350631e+00 +6.7991283993300105e+00 -3.9347691157156237e+02 +2.3268358020192158e+05 +2.4644195473732925e+06 -1.0052949306098039e+09 
-4.3000000000000007e+00 -1.0309533787021921e+00 +2.3052965112059574e+00 +6.8251186688874732e+00 -3.8950192607573285e+02 +2.3245312816987376e+05 +2.4224304023154858e+06 -1.0047406644015495e+09 
-4.4000000000000004e+00 -1.0309560000074820e+00 +2.3052358581934147e+00 +6.8597289425559769e+00 -3.8546671127887197e+02 +2.3208086146084970e+05 +2.3801385332375262e+06 -1.0035370710376009e+09 
-4.5000000000000000e+00 -1.0309587253003949e+00 +2.3051729937085628e+00 +6.9019916789707292e+00 -3.8138085664099344e+02 +2.3158234475729574e+05 +2.3376476459396980e+06 -1.0017544751956015e+09 
-4.5999999999999996e+00 -1.0309615416885107e+00 +2.3051080157352821e+00 +6.9509393913349475e+00 -3.7725395635731593e+02 +2.3097314143573077e+05 +2.2950614756278028e+06 -9.9946319453005624e+08 
-4.6999999999999993e+00 -1.0309644362796788e+00 +2.3050410224421252e+00 +7.0056046450505756e+00 -3.7309560974736240e+02 +2.3026881360191718e+05 +2.2524837895334410e+06 -9.9673353981179011e+08 
-4.7999999999999989e+00 -1.0309673961819894e+00 +2.3049721121971145e+00 +7.0650200553415496e+00 -3.6891542163649734e+02 +2.2948492212313804e+05 +2.2100183892358732e+06 -9.9363581504763651e+08 
-4.8999999999999986e+00 -1.0309704085038842e+00 +2.3049013835787582e+00 +7.1282183018970526e+00 -3.6472300269199025e+02 +2.2863702633891741e+05 +2.1677691128850733e+06 -9.9024031607618713e+08 
-4.9999999999999982e+00 -1.0309734603540559e+00 +2.3048289353941009e+00 +7.1942321171162211e+00 -3.6052796992899437e+02 +2.2774068427193270e+05 +2.1258398383377767e+06 -9.8661733153801036e+08 
-5.0999999999999979e+00 -1.0309765388415273e+00 +2.3047548666893816e+00 +7.2620942968666737e+00 -3.5633994700402263e+02 +2.2681145241199469e+05 +2.0843344850497553e+06 -9.8283714181566238e+08 
-5.1999999999999975e+00 -1.0309796310756849e+00 +2.3046792767606159e+00 +7.3308377054539013e+00 -3.5216856452334633e+02 +2.2586488560995882e+05 +2.0433570160991843e+06 -9.7897001850042355e+08 
-5.2999999999999972e+00 -1.0309827241662222e+00 +2.3046022651782438e+00 +7.3994952695089742e+00 -3.4802346074644208e+02 +2.2491653718115459e+05 +2.0030114424834319e+06 -9.7508622484868312e+08 
-5.3999999999999968e+00 -1.0309858052231904e+00 +2.3045239317881134e+00 +7.4670999848918607e+00 -3.4391428160117306e+02 +2.2398195876521364e+05 +1.9634018234001624e+06 -9.7125601509358168e+08 
-5.4999999999999964e+00 -1.0309888613570375e+00 +2.3044443767432594e+00 +7.5326849240597555e+00 -3.3985068147277633e+02 +2.2307670017801420e+05 +1.9246322706329224e+06 -9.6754963373890960e+08 
-5.5999999999999961e+00 -1.0309918814019150e+00 +2.3043636921450967e+00 +7.5954443663998887e+00 -3.3583990705811919e+02 +2.2221378118744321e+05 +1.8867823662583965e+06 -9.6402634590323615e+08 
-5.6999999999999957e+00 -1.0309948607268156e+00 +2.3042818616328749e+00 +7.6551675438923743e+00 -3.3187854716034769e+02 +2.2139696447611495e+05 +1.8498265108424579e+06 -9.6070489975718343e+08 
-5.7999999999999954e+00 -1.0309977962472197e+00 +2.3041988250025720e+00 +7.7117806554759722e+00 -3.2796029226189592e+02 +2.2062790192816846e+05 +1.8137108435893299e+06 -9.5759469271731055e+08 
-5.8999999999999950e+00 -1.0310006848784667e+00 +2.3041145220786037e+00 +7.7652098758531265e+00 -3.2407883369156963e+02 +2.1990824596375215e+05 +1.7783815092888374e+06 -9.5470512495578134e+08 
-5.9999999999999947e+00 -1.0310035235357078e+00 +2.3040288927184629e+00 +7.8153813473409182e+00 -3.2022786390508855e+02 +2.1923964972045639e+05 +1.7437846619819757e+06 -9.5204560049277222e+08 
-6.0999999999999943e+00 -1.0310063091339745e+00 +2.3039418768233166e+00 +7.8622211886161084e+00 -3.1640107679577289e+02 +2.1862376689116625e+05 +1.7098664668597796e+06 -9.4962552644466078e+08 
-6.1999999999999940e+00 -1.0310090385881259e+00 +2.3038534143143856e+00 +7.9056554874280094e+00 -3.1259216702017653e+02 +2.1806225187064396e+05 +1.6765730964657401e+06 -9.4745431375218499e+08 
-6.2999999999999936e+00 -1.0310117088128570e+00 +2.3037634451633471e+00 +7.9456103007882497e+00 -3.0879483090240041e+02 +2.1755675976412022e+05 +1.6438507360890757e+06 -9.4554137726743197e+08 
-6.3999999999999932e+00 -1.0310143167226058e+00 +2.3036719093654288e+00 +7.9820116422832426e+00 -3.0500276565542589e+02 +2.1710894664038232e+05 +1.6116455793439297e+06 -9.4389613699815285e+08 
-6.4999999999999929e+00 -1.0310168592316880e+00 +2.3035787469604356e+00 +8.0147854992047733e+00 -3.0120967000845008e+02 +2.1672046920702796e+05 +1.5799038319417168e+06 -9.4252801657415593e+08 
-6.5999999999999925e+00 -1.0310193332541842e+00 +2.3034838980211201e+00 +8.0438578169713022e+00 -2.9740924389053947e+02 +2.1639298512589125e+05 +1.5485717100010328e+06 -9.4144644481397390e+08 
-6.6999999999999922e+00 -1.0310217357039344e+00 +2.3033873026561777e+00 +8.0691544978216569e+00 -2.9359518851158174e+02 +2.1612815303954834e+05 +1.5175954405874328e+06 -9.4066085585944855e+08 
-6.7999999999999918e+00 -1.0310240634945846e+00 +2.3032889010181772e+00 +8.0906014066307250e+00 -2.8976120662308159e+02 +2.1592763247413075e+05 +1.4869212634002157e+06 -9.4018068876614523e+08 
-6.8999999999999915e+00 -1.0310263135394742e+00 +2.3031886332960885e+00 +8.1081243548153825e+00 -2.8590100230424514e+02 +2.1579308415662302e+05 +1.4564954296285219e+06 -9.4001538904869461e+08 
-6.9999999999999911e+00 -1.0310284827517726e+00 +2.3030864397130371e+00 +8.1216491183052906e+00 -2.8200828091760400e+02 +2.1572616967779564e+05 +1.4262642018312498e+06 -9.4017440710290873e+08 
-7.0999999999999908e+00 -1.0310305680443492e+00 +2.3029822605377857e+00 +8.1311014196472584e+00 -2.7807674944355574e+02 +2.1572855184163919e+05 +1.3961738559768563e+06 -9.4066719989932573e+08 
-7.1999999999999904e+00 -1.0310325663297695e+00 +2.3028760360793945e+00 +8.1364069270413850e+00 -2.7410011634774662e+02 +2.1580189469887468e+05 +1.3661706808201582e+06 -9.4150323119797504e+08 
-7.2999999999999901e+00 -1.0310344745203843e+00 +2.3027677066828813e+00 +8.1374912647984967e+00 -2.7007209146190087e+02 +2.1594786335228727e+05 +1.3362009773162454e+06 -9.4269197064046764e+08 
-7.3999999999999897e+00 -1.0310362895281724e+00 +2.3026572127404217e+00 +8.1342799927759692e+00 -2.6598638633411821e+02 +2.1616812436126894e+05 +1.3062110608164379e+06 -9.4424289572265232e+08 
-7.4999999999999893e+00 -1.0310380082648751e+00 +2.3025444947028051e+00 +8.1266986250305013e+00 -2.6183671508299989e+02 +2.1646434530826111e+05 +1.2761472663332096e+06 -9.4616548957702053e+08 
-7.5999999999999890e+00 -1.0310396296933946e+00 +2.3024295285647920e+00 +8.1147783121674468e+00 -2.5761977083096713e+02 +2.1683634239825999e+05 +1.2459737814783831e+06 -9.4846036397376299e+08 
-7.6999999999999886e+00 -1.0310411610689583e+00 +2.3023124067647163e+00 +8.0989822549205179e+00 -2.5334087411451026e+02 +2.1727650867226467e+05 +1.2157017466443796e+06 -9.5109274488252008e+08 
-7.7999999999999883e+00 -1.0310426117452034e+00 +2.3021932444747066e+00 +8.0798846458599680e+00 -2.4900671514985385e+02 +2.1777535002030642e+05 +1.1853479779012301e+06 -9.5401885755622947e+08 
-7.8999999999999879e+00 -1.0310439910757649e+00 +2.3020721566702353e+00 +8.0580596808841829e+00 -2.4462397851101053e+02 +2.1832337230430965e+05 +1.1549292549266822e+06 -9.5719492700964117e+08 
-7.9999999999999876e+00 -1.0310453084142930e+00 +2.3019492581350609e+00 +8.0340815581321117e+00 -2.4019934366197356e+02 +2.1891108145221433e+05 +1.1244623262049181e+06 -9.6057717880645776e+08 
-8.0999999999999872e+00 -1.0310465731144691e+00 +2.3018246634681021e+00 +8.0085244817981263e+00 -2.3573948519580307e+02 +2.1952898337488962e+05 +1.0939639104051890e+06 -9.6412183863178587e+08 
-8.1999999999999869e+00 -1.0310477945299417e+00 +2.3016984870601145e+00 +7.9819626529841861e+00 -2.3125107214628491e+02 +2.2016758415139106e+05 +1.0634506922255680e+06 -9.6778513320224786e+08 
-8.2999999999999865e+00 -1.0310489820143915e+00 +2.3015708431034465e+00 +7.9549702780059919e+00 -2.2674076830332453e+02 +2.2081738987735534e+05 +1.0329393242070362e+06 -9.7152328955962002e+08 
-8.3999999999999861e+00 -1.0310501449214990e+00 +2.3014418455750185e+00 +7.9281215642677036e+00 -2.2221523172275576e+02 +2.2146890674330501e+05 +1.0024464237736298e+06 -9.7529253544017315e+08 
-8.4999999999999858e+00 -1.0310512926049680e+00 +2.3013116082304301e+00 +7.9019907237161799e+00 -2.1768111457023559e+02 +2.2211264097126000e+05 +9.7198857224315580e+05 -9.7904909897443700e+08 
-8.5999999999999854e+00 -1.0310524344184866e+00 +2.3011802446037861e+00 +7.8771519676087847e+00 -2.1314506314107214e+02 +2.2273909892341783e+05 +9.4158231490449701e+05 -9.8274920923142803e+08 
-8.6999999999999851e+00 -1.0310535797157605e+00 +2.3010478679948063e+00 +7.8541795106058689e+00 -2.0861371748537161e+02 +2.2333878702159575e+05 +9.1124415870811150e+05 -9.8634909581816709e+08 
-8.7999999999999847e+00 -1.0310547378505217e+00 +2.3009145914705234e+00 +7.8336475718718495e+00 -2.0409371148129068e+02 +2.2390221173814888e+05 +8.8099057265129464e+05 -9.8980498887299252e+08 
-8.8999999999999844e+00 -1.0310559181764913e+00 +2.3007805278463578e+00 +7.8161303709017425e+00 -1.9959167230220561e+02 +2.2441987967212428e+05 +8.5083798459873244e+05 -9.9307311941313672e+08 
-8.9999999999999840e+00 -1.0310571300473876e+00 +2.3006457896900168e+00 +7.8022021279039029e+00 -1.9511422052237148e+02 +2.2488229754906241e+05 +8.2080278176168643e+05 -9.9610971934901571e+08 
-9.0999999999999837e+00 -1.0310583828169959e+00 +2.3005104893096786e+00 +7.7924370730926196e+00 -1.9066796982345048e+02 +2.2527997204609719e+05 +7.9090130901695881e+05 -9.9887102065693152e+08 
-9.1999999999999833e+00 -1.0310596858390333e+00 +2.3003747387518265e+00 +7.7874094291587728e+00 -1.8625952692415947e+02 +2.2560341013409066e+05 +7.6114986835476803e+05 -1.0013132570264674e+09 
-9.2999999999999829e+00 -1.0310610484672804e+00 +2.3002386497911660e+00 +7.7876934283670360e+00 -1.8189549129409528e+02 +2.2584311875096301e+05 +7.3156471711183002e+05 -1.0033926623009603e+09 
-9.3999999999999826e+00 -1.0310624800555495e+00 +2.3001023339241371e+00 +7.7938633086123996e+00 -1.7758245500018270e+02 +2.2598960488045734e+05 +7.0216206706603302e+05 -1.0050654708575785e+09 
-9.4999999999999822e+00 -1.0310639899575191e+00 +2.2999659023334673e+00 +7.8064932871290758e+00 -1.7332700155083177e+02 +2.2603337612636728e+05 +6.7295808010079735e+05 -1.0062879203091556e+09 
-9.5999999999999819e+00 -1.0310655845712864e+00 +2.2998295838716127e+00 +7.8259675480023771e+00 -1.6913752316845347e+02 +2.2596785879923770e+05 +6.4398314596979960e+05 -1.0070288336075401e+09 
-9.6999999999999815e+00 -1.0310672587793825e+00 +2.2996941167312768e+00 +7.8519391956857465e+00 -1.6503093489716869e+02 +2.2579750600996640e+05 +6.1533595908945391e+05 -1.0073048568323014e+09 
-9.7999999999999812e+00 -1.0310690046546709e+00 +2.2995603741868456e+00 +7.8838845354575868e+00 -1.6102654644513319e+02 +2.2552939488190188e+05 +5.8713564613674220e+05 -1.0071441525400559e+09 
-9.8999999999999808e+00 -1.0310708142707157e+00 +2.2994292298008445e+00 +7.9212799566384380e+00 -1.5714367436601083e+02 +2.2517060088945655e+05 +5.5950137749182084e+05 -1.0065748760431496e+09 
-9.9999999999999805e+00 -1.0310726797017189e+00 +2.2993015574069622e+00 +7.9636019246534699e+00 -1.5340164099670830e+02 +2.2472819797543186e+05 +5.3255235141208733e+05 -1.0056251751196811e+09 
-1.0099999999999980e+01 -1.0310745930225627e+00 +2.2991782311190923e+00 +8.0103269864515827e+00 -1.4981977468156524e+02 +2.2420925844995442e+05 +5.0640779523155035e+05 -1.0043231895406106e+09 
