# field on trajectory
# s[mm] rx[mm] ry[mm] rz[mm] bx[T] by[T] bz[T]
0.0000000000000000e+00 +9.1476323485342608e+00 +0.0000000000000000e+00 +0.0000000000000000e+00 +1.1138125537166125e-02 -1.0329629885558833e+00 -5.8755211574191023e-02
1.0000000000000001e-01 +9.1476318316365202e+00 +0.0000000000000000e+00 +9.9999999998218805e-02 +1.1137929514252900e-02 -1.0329642270793571e+00 -5.8754851772717206e-02
2.0000000000000001e-01 +9.1476302809427192e+00 +0.0000000000000000e+00 +1.9999999998574999e-01 +1.1137727479277340e-02 -1.0329654149945906e+00 -5.8754504181635581e-02
2.9999999999999999e-01 +9.1476276964536503e+00 +0.0000000000000000e+00 +2.9999999995190701e-01 +1.1137518600925581e-02 -1.0329665457629356e+00 -5.8754168632174211e-02
4.0000000000000002e-01 +9.1476240781675404e+00 +0.0000000000000000e+00 +3.9999999988600199e-01 +1.1137302047902201e-02 -1.0329676128462466e+00 -5.8753844955550125e-02
5.0000000000000000e-01 +9.1476194260861501e+00 +0.0000000000000000e+00 +4.9999999977734699e-01 +1.1137076988931509e-02 -1.0329686097069997e+00 -5.8753532982964714e-02
5.9999999999999998e-01 +9.1476137402094899e+00 +0.0000000000000000e+00 +5.9999999961525596e-01 +1.1136842879288964e-02 -1.0329695305876345e+00 -5.8753232562804070e-02
6.9999999999999996e-01 +9.1476070205357907e+00 +0.0000000000000000e+00 +6.9999999938904001e-01 +1.1136600320387269e-02 -1.0329703728480806e+00 -5.8752943612249468e-02
8.0000000000000004e-01 +9.1475992670650292e+00 +0.0000000000000000e+00 +7.9999999908801400e-01 +1.1136350200177537e-02 -1.0329711346279098e+00 -5.8752666065671665e-02
9.0000000000000002e-01 +9.1475904798007797e+00 +0.0000000000000000e+00 +8.9999999870148795e-01 +1.1136093406614514e-02 -1.0329718140670421e+00 -5.8752399857428854e-02
1.0000000000000000e+00 +9.1475806587394892e+00 +0.0000000000000000e+00 +9.9999999821877705e-01 +1.1135830827652791e-02 -1.0329724093057000e+00 -5.8752144921868553e-02
1.1000000000000001e+00 +9.1475698038829201e+00 +0.0000000000000000e+00 +1.0999999976291901e+00 +1.1135563351242510e-02 -1.0329729184843104e+00 -5.8751901193327044e-02
1.2000000000000000e+00 +9.1475579152292994e+00 +0.0000000000000000e+00 +1.1999999969220501e+00 +1.1135291865325497e-02 -1.0329733397434555e+00 -5.8751668606130930e-02
1.3000000000000000e+00 +9.1475449927804107e+00 +0.0000000000000000e+00 +1.2999999960866500e+00 +1.1135017257831115e-02 -1.0329736712237885e+00 -5.8751447094597307e-02
1.3999999999999999e+00 +9.1475310365362503e+00 +0.0000000000000000e+00 +1.3999999951123201e+00 +1.1134740416672322e-02 -1.0329739110659746e+00 -5.8751236593034918e-02
1.5000000000000000e+00 +9.1475160464950402e+00 +0.0000000000000000e+00 +1.4999999939883699e+00 +1.1134462229741668e-02 -1.0329740574106248e+00 -5.8751037035745045e-02
1.6000000000000001e+00 +9.1475000226585603e+00 +0.0000000000000000e+00 +1.5999999927041100e+00 +1.1134183584907099e-02 -1.0329741083982105e+00 -5.8750848357021511e-02
1.7000000000000000e+00 +9.1474829650268106e+00 +0.0000000000000000e+00 +1.6999999912488499e+00 +1.1133905370008119e-02 -1.0329740621690120e+00 -5.8750670491152235e-02
1.8000000000000000e+00 +9.1474648735980093e+00 +0.0000000000000000e+00 +1.7999999896119101e+00 +1.1133628472851679e-02 -1.0329739168630423e+00 -5.8750503372419660e-02
1.8999999999999999e+00 +9.1474457483739400e+00 +0.0000000000000000e+00 +1.8999999877825899e+00 +1.1133353781208093e-02 -1.0329736706199721e+00 -5.8750346935101283e-02
2.0000000000000000e+00 +9.1474255893528191e+00 +0.0000000000000000e+00 +1.9999999857502100e+00 +1.1133082182807112e-02 -1.0329733215790724e+00 -5.8750201113470880e-02
2.1000000000000001e+00 +9.1474043965364302e+00 +0.0000000000000000e+00 +2.0999999835040901e+00 +1.1132814565333772e-02 -1.0329728678791328e+00 -5.8750065841798642e-02
2.2000000000000002e+00 +9.1473821699247697e+00 +0.0000000000000000e+00 +2.1999999810335300e+00 +1.1132551816424446e-02 -1.0329723076584003e+00 -5.8749941054352418e-02
2.2999999999999998e+00 +9.1473589095160595e+00 +0.0000000000000000e+00 +2.2999999783278602e+00 +1.1132294823662852e-02 -1.0329716390545147e+00 -5.8749826685398597e-02
2.3999999999999999e+00 +9.1473346153120794e+00 +0.0000000000000000e+00 +2.3999999753763701e+00 +1.1132044474575855e-02 -1.0329708602044232e+00 -5.8749722669202073e-02
2.5000000000000000e+00 +9.1473092873128206e+00 +0.0000000000000000e+00 +2.4999999721683901e+00 +1.1131801656629574e-02 -1.0329699692443264e+00 -5.8749628940027790e-02
2.6000000000000001e+00 +9.1472829255165191e+00 +0.0000000000000000e+00 +2.5999999686932198e+00 +1.1131566995814555e-02 -1.0329689662778936e+00 -5.8749545387370539e-02
2.7000000000000002e+00 +9.1472555299249496e+00 +0.0000000000000000e+00 +2.6999999649401798e+00 +1.1131340072435080e-02 -1.0329678592812059e+00 -5.8749471721654248e-02
2.7999999999999998e+00 +9.1472271005398795e+00 +0.0000000000000000e+00 +2.7999999608985902e+00 +1.1131120205388163e-02 -1.0329666581981183e+00 -5.8749407608566048e-02
2.8999999999999999e+00 +9.1471976373559905e+00 +0.0000000000000000e+00 +2.8999999565577501e+00 +1.1130906713584800e-02 -1.0329653729719990e+00 -5.8749352713834559e-02
3.0000000000000000e+00 +9.1471671403768209e+00 +0.0000000000000000e+00 +2.9999999519069700e+00 +1.1130698915953099e-02 -1.0329640135456639e+00 -5.8749306703232036e-02
3.1000000000000001e+00 +9.1471356096023904e+00 +0.0000000000000000e+00 +3.0999999469355801e+00 +1.1130496131442116e-02 -1.0329625898613830e+00 -5.8749269242579581e-02
3.2000000000000002e+00 +9.1471030450308994e+00 +0.0000000000000000e+00 +3.1999999416328699e+00 +1.1130297679025326e-02 -1.0329611118608490e+00 -5.8749239997750911e-02
3.2999999999999998e+00 +9.1470694466641493e+00 +0.0000000000000000e+00 +3.2999999359881800e+00 +1.1130102877704046e-02 -1.0329595894851402e+00 -5.8749218634675644e-02
3.3999999999999999e+00 +9.1470348145021205e+00 +0.0000000000000000e+00 +3.3999999299908001e+00 +1.1129911046511065e-02 -1.0329580326747048e+00 -5.8749204819343828e-02
3.5000000000000000e+00 +9.1469991485430509e+00 +0.0000000000000000e+00 +3.4999999236300501e+00 +1.1129721504514191e-02 -1.0329564513693408e+00 -5.8749198217809794e-02
3.6000000000000001e+00 +9.1469624487887007e+00 +0.0000000000000000e+00 +3.5999999168952499e+00 +1.1129533570819651e-02 -1.0329548555081509e+00 -5.8749198496195545e-02
3.7000000000000002e+00 +9.1469247152390807e+00 +0.0000000000000000e+00 +3.6999999097757001e+00 +1.1129346564575737e-02 -1.0329532550295362e+00 -5.8749205320695247e-02
3.7999999999999998e+00 +9.1468859478924092e+00 +0.0000000000000000e+00 +3.7999999022607200e+00 +1.1129159804976359e-02 -1.0329516598711659e+00 -5.8749218357579083e-02
3.8999999999999999e+00 +9.1468461467522495e+00 +0.0000000000000000e+00 +3.8999998943396199e+00 +1.1128972611264373e-02 -1.0329500799699352e+00 -5.8749237273196302e-02
4.0000000000000000e+00 +9.1468053118132708e+00 +0.0000000000000000e+00 +3.9999998860017101e+00 +1.1128784302735480e-02 -1.0329485252619779e+00 -5.8749261733981005e-02
4.0999999999999996e+00 +9.1467634430807898e+00 +0.0000000000000000e+00 +4.0999998772363098e+00 +1.1128594198741276e-02 -1.0329470056825885e+00 -5.8749291406453491e-02
4.2000000000000002e+00 +9.1467205405512608e+00 +0.0000000000000000e+00 +4.1999998680327302e+00 +1.1128401618693256e-02 -1.0329455311662454e+00 -5.8749325957226636e-02
4.2999999999999998e+00 +9.1466766042264602e+00 +0.0000000000000000e+00 +4.2999998583802803e+00 +1.1128205882066006e-02 -1.0329441116465523e+00 -5.8749365053008047e-02
4.4000000000000004e+00 +9.1466316341046099e+00 +0.0000000000000000e+00 +4.3999998482682798e+00 +1.1128006308400938e-02 -1.0329427570562340e+00 -5.8749408360605056e-02
4.5000000000000000e+00 +9.1465856301892607e+00 +0.0000000000000000e+00 +4.4999998376860297e+00 +1.1127802217309643e-02 -1.0329414773270869e+00 -5.8749455546927565e-02
4.5999999999999996e+00 +9.1465385924768707e+00 +0.0000000000000000e+00 +4.5999998266228497e+00 +1.1127593146598922e-02 -1.0329402796413236e+00 -5.8749506420128661e-02
4.7000000000000002e+00 +9.1464905209674292e+00 +0.0000000000000000e+00 +4.6999998150680504e+00 +1.1127379506620752e-02 -1.0329391601857401e+00 -5.8749561352942632e-02
4.7999999999999998e+00 +9.1464414156644995e+00 +0.0000000000000000e+00 +4.7999998030109499e+00 +1.1127161925871066e-02 -1.0329381123981538e+00 -5.8749620859147852e-02
4.9000000000000004e+00 +9.1463912765645095e+00 +0.0000000000000000e+00 +4.8999997904408596e+00 +1.1126941032861576e-02 -1.0329371297161953e+00 -5.8749685452405741e-02
5.0000000000000000e+00 +9.1463401036692602e+00 +0.0000000000000000e+00 +4.9999997773470897e+00 +1.1126717456119548e-02 -1.0329362055772895e+00 -5.8749755646251352e-02
5.0999999999999996e+00 +9.1462878969787305e+00 +0.0000000000000000e+00 +5.0999997637189498e+00 +1.1126491824188071e-02 -1.0329353334186915e+00 -5.8749831954086340e-02
5.2000000000000002e+00 +9.1462346564911599e+00 +0.0000000000000000e+00 +5.1999997495457499e+00 +1.1126264765626151e-02 -1.0329345066774980e+00 -5.8749914889170883e-02
5.2999999999999998e+00 +9.1461803822083105e+00 +0.0000000000000000e+00 +5.2999997348168204e+00 +1.1126036909008654e-02 -1.0329337187906533e+00 -5.8750004964615334e-02
5.4000000000000004e+00 +9.1461250741284204e+00 +0.0000000000000000e+00 +5.3999997195214604e+00 +1.1125808882926589e-02 -1.0329329631949793e+00 -5.8750102693373003e-02
5.5000000000000000e+00 +9.1460687322550296e+00 +0.0000000000000000e+00 +5.4999997036489701e+00 +1.1125581315986958e-02 -1.0329322333271675e+00 -5.8750208588231087e-02
5.5999999999999996e+00 +9.1460113565845909e+00 +0.0000000000000000e+00 +5.5999996871886903e+00 +1.1125354836813164e-02 -1.0329315226238278e+00 -5.8750323161804417e-02
5.7000000000000002e+00 +9.1459529471188894e+00 +0.0000000000000000e+00 +5.6999996701299196e+00 +1.1125130074044779e-02 -1.0329308245214708e+00 -5.8750446926525972e-02
5.7999999999999998e+00 +9.1458935038561293e+00 +0.0000000000000000e+00 +5.7999996524619597e+00 +1.1124907656337866e-02 -1.0329301324565445e+00 -5.8750580394639824e-02
5.9000000000000004e+00 +9.1458330267980994e+00 +0.0000000000000000e+00 +5.8999996341741401e+00 +1.1124688212364869e-02 -1.0329294398654323e+00 -5.8750724078192672e-02
6.0000000000000000e+00 +9.1457715159465796e+00 +0.0000000000000000e+00 +5.9999996152557697e+00 +1.1124472370814823e-02 -1.0329287401844791e+00 -5.8750878489026062e-02
6.0999999999999996e+00 +9.1457089712962301e+00 +0.0000000000000000e+00 +6.0999995956961603e+00 +1.1124260760393564e-02 -1.0329280268500189e+00 -5.8751044138769457e-02
6.2000000000000002e+00 +9.1456453928523906e+00 +0.0000000000000000e+00 +6.1999995754846200e+00 +1.1124054009823437e-02 -1.0329272932983504e+00 -5.8751221538830077e-02
6.2999999999999998e+00 +9.1455807806132707e+00 +0.0000000000000000e+00 +6.2999995546104604e+00 +1.1123852747843766e-02 -1.0329265329657942e+00 -5.8751411200387155e-02
6.4000000000000004e+00 +9.1455151345771100e+00 +0.0000000000000000e+00 +6.3999995330630002e+00 +1.1123657603210803e-02 -1.0329257392886899e+00 -5.8751613634383103e-02
6.5000000000000000e+00 +9.1454484547456794e+00 +0.0000000000000000e+00 +6.4999995108315600e+00 +1.1123469204697690e-02 -1.0329249057034033e+00 -5.8751829351515156e-02
6.5999999999999996e+00 +9.1453807411171901e+00 +0.0000000000000000e+00 +6.5999994879054302e+00 +1.1123287992265179e-02 -1.0329240274997682e+00 -5.8752058714222621e-02
6.7000000000000002e+00 +9.1453119936934399e+00 +0.0000000000000000e+00 +6.6999994642739402e+00 +1.1123113650570022e-02 -1.0329231073817693e+00 -5.8752301492728545e-02
6.7999999999999998e+00 +9.1452422124761892e+00 +0.0000000000000000e+00 +6.7999994399263999e+00 +1.1122945675474602e-02 -1.0329221499079231e+00 -5.8752557309191156e-02
6.9000000000000004e+00 +9.1451713974618905e+00 +0.0000000000000000e+00 +6.8999994148521200e+00 +1.1122783562885276e-02 -1.0329211596379675e+00 -5.8752825785733986e-02
7.0000000000000000e+00 +9.1450995486523308e+00 +0.0000000000000000e+00 +6.9999993890404202e+00 +1.1122626808753163e-02 -1.0329201411328919e+00 -5.8753106544445134e-02
7.0999999999999996e+00 +9.1450266660474906e+00 +0.0000000000000000e+00 +7.0999993624805997e+00 +1.1122474909075355e-02 -1.0329190989550074e+00 -5.8753399207378931e-02
7.2000000000000002e+00 +9.1449527496438208e+00 +0.0000000000000000e+00 +7.1999993351619702e+00 +1.1122327359895977e-02 -1.0329180376680061e+00 -5.8753703396556597e-02
7.2999999999999998e+00 +9.1448777994484391e+00 +0.0000000000000000e+00 +7.2999993070738700e+00 +1.1122183657306941e-02 -1.0329169618369827e+00 -5.8754018733965532e-02
7.4000000000000004e+00 +9.1448018154560096e+00 +0.0000000000000000e+00 +7.3999992782055797e+00 +1.1122043297449457e-02 -1.0329158760285422e+00 -5.8754344841562438e-02
7.5000000000000000e+00 +9.1447247976682995e+00 +0.0000000000000000e+00 +7.4999992485464304e+00 +1.1121905776514684e-02 -1.0329147848108089e+00 -5.8754681341271778e-02
7.5999999999999996e+00 +9.1446467460835503e+00 +0.0000000000000000e+00 +7.5999992180857303e+00 +1.1121770590744970e-02 -1.0329136927535074e+00 -5.8755027854987853e-02
7.7000000000000002e+00 +9.1445676607035296e+00 +0.0000000000000000e+00 +7.6999991868127999e+00 +1.1121637236434756e-02 -1.0329126044279964e+00 -5.8755384004574286e-02
7.7999999999999998e+00 +9.1444875415300100e+00 +0.0000000000000000e+00 +7.7999991547169403e+00 +1.1121505209931706e-02 -1.0329115244073364e+00 -5.8755749411865496e-02
7.9000000000000004e+00 +9.1444063885594495e+00 +0.0000000000000000e+00 +7.8999991217874603e+00 +1.1121374007637828e-02 -1.0329104572663534e+00 -5.8756123698667645e-02
8.0000000000000000e+00 +9.1443242017936104e+00 +0.0000000000000000e+00 +7.9999990880136904e+00 +1.1121243126010339e-02 -1.0329094075816689e+00 -5.8756506486758328e-02
8.0999999999999996e+00 +9.1442409812307197e+00 +0.0000000000000000e+00 +8.0999990533849306e+00 +1.1121112061562841e-02 -1.0329083799317753e+00 -5.8756897397888107e-02
8.1999999999999993e+00 +9.1441567268743391e+00 +0.0000000000000000e+00 +8.1999990178904891e+00 +1.1120980310866214e-02 -1.0329073788970702e+00 -5.8757296053780182e-02
8.3000000000000007e+00 +9.1440714387209105e+00 +0.0000000000000000e+00 +8.2999989815196997e+00 +1.1120847370549919e-02 -1.0329064090599374e+00 -5.8757702076132470e-02
8.4000000000000004e+00 +9.1439851167722104e+00 +0.0000000000000000e+00 +8.3999989442618492e+00 +1.1120712737302767e-02 -1.0329054750047741e+00 -5.8758115086616929e-02
8.5000000000000000e+00 +9.1438977610300203e+00 +0.0000000000000000e+00 +8.4999989061062706e+00 +1.1120575907874082e-02 -1.0329045813180588e+00 -5.8758534706880680e-02
8.5999999999999996e+00 +9.1438093714890005e+00 +0.0000000000000000e+00 +8.5999988670422596e+00 +1.1120436487857547e-02 -1.0329037310916085e+00 -5.8758960432596631e-02
8.6999999999999993e+00 +9.1437199481544802e+00 +0.0000000000000000e+00 +8.6999988270591402e+00 +1.1120294517981409e-02 -1.0329029214308079e+00 -5.8759391255656171e-02
8.8000000000000007e+00 +9.1436294910247007e+00 +0.0000000000000000e+00 +8.7999987861462294e+00 +1.1120150147625211e-02 -1.0329021479431704e+00 -5.8759826042147509e-02
8.9000000000000004e+00 +9.1435380000978608e+00 +0.0000000000000000e+00 +8.8999987442928301e+00 +1.1120003526006774e-02 -1.0329014062349064e+00 -5.8760263658335948e-02
9.0000000000000000e+00 +9.1434454753775292e+00 +0.0000000000000000e+00 +8.9999987014882503e+00 +1.1119854802176804e-02 -1.0329006919108596e+00 -5.8760702970669564e-02
9.0999999999999996e+00 +9.1433519168619295e+00 +0.0000000000000000e+00 +9.0999986577218195e+00 +1.1119704125013926e-02 -1.0329000005744922e+00 -5.8761142845786644e-02
9.1999999999999993e+00 +9.1432573245492801e+00 +0.0000000000000000e+00 +9.1999986129828297e+00 +1.1119551643219287e-02 -1.0328993278278240e+00 -5.8761582150521428e-02
9.3000000000000007e+00 +9.1431616984413608e+00 +0.0000000000000000e+00 +9.2999985672606194e+00 +1.1119397505311235e-02 -1.0328986692713860e+00 -5.8762019751909846e-02
9.4000000000000004e+00 +9.1430650385381700e+00 +0.0000000000000000e+00 +9.3999985205444805e+00 +1.1119241859620176e-02 -1.0328980205041791e+00 -5.8762454517196423e-02
9.5000000000000000e+00 +9.1429673448397004e+00 +0.0000000000000000e+00 +9.4999984728237195e+00 +1.1119084854283303e-02 -1.0328973771236345e+00 -5.8762885313840350e-02
9.5999999999999996e+00 +9.1428686173459699e+00 +0.0000000000000000e+00 +9.5999984240876799e+00 +1.1118926637239342e-02 -1.0328967347255633e+00 -5.8763311009521757e-02
9.6999999999999993e+00 +9.1427688560551807e+00 +0.0000000000000000e+00 +9.6999983743256504e+00 +1.1118767356223339e-02 -1.0328960889041190e+00 -5.8763730472148154e-02
9.8000000000000007e+00 +9.1426680609726798e+00 +0.0000000000000000e+00 +9.7999983235269408e+00 +1.1118607158761193e-02 -1.0328954352517326e+00 -5.8764142569859720e-02
9.9000000000000004e+00 +9.1425662320913492e+00 +0.0000000000000000e+00 +9.8999982716808805e+00 +1.1118446192164890e-02 -1.0328947693591128e+00 -5.8764546171037831e-02
1.0000000000000000e+01 +9.1424633694165305e+00 +0.0000000000000000e+00 +9.9999982187767706e+00 +1.1118284603526646e-02 -1.0328940868151457e+00 -5.8764940144308379e-02
1.0100000000000000e+01 +9.1423594729446602e+00 +0.0000000000000000e+00 +1.0099998164803900e+01 +1.1118122539714176e-02 -1.0328933832068987e+00 -5.8765323358550690e-02
1.0199999999999999e+01 +9.1422545426793000e+00 +0.0000000000000000e+00 +1.0199998109751700e+01 +1.1117960147365047e-02 -1.0328926541195393e+00 -5.8765694682901763e-02
1.0300000000000001e+01 +9.1421485786168795e+00 +0.0000000000000000e+00 +1.0299998053609301e+01 +1.1117797572881798e-02 -1.0328918951363280e+00 -5.8766052986764405e-02
1.0400000000000000e+01 +9.1420415807609707e+00 +0.0000000000000000e+00 +1.0399997996366100e+01 +1.1117634962426310e-02 -1.0328911018385358e+00 -5.8766397139811681e-02
1.0500000000000000e+01 +9.1419335491080194e+00 +0.0000000000000000e+00 +1.0499997938011500e+01 +1.1117472461914931e-02 -1.0328902698054370e+00 -5.8766726011995007e-02
1.0600000000000000e+01 +9.1418244836597893e+00 +0.0000000000000000e+00 +1.0599997878534600e+01 +1.1117310225927518e-02 -1.0328893951713114e+00 -5.8767038703602191e-02
1.0699999999999999e+01 +9.1417143844180693e+00 +0.0000000000000000e+00 +1.0699997817925000e+01 +1.1117148444595775e-02 -1.0328884762976225e+00 -5.8767335235339307e-02
1.0800000000000001e+01 +9.1416032513792906e+00 +0.0000000000000000e+00 +1.0799997756171701e+01 +1.1116987317116090e-02 -1.0328875121032264e+00 -5.8767615857897020e-02
1.0900000000000000e+01 +9.1414910845470292e+00 +0.0000000000000000e+00 +1.0899997693264300e+01 +1.1116827042874953e-02 -1.0328865015074213e+00 -5.8767880821828711e-02
1.1000000000000000e+01 +9.1413778839177091e+00 +0.0000000000000000e+00 +1.0999997629191901e+01 +1.1116667821454491e-02 -1.0328854434300001e+00 -5.8768130377548501e-02
1.1100000000000000e+01 +9.1412636494931299e+00 +0.0000000000000000e+00 +1.1099997563943900e+01 +1.1116509852637213e-02 -1.0328843367912319e+00 -5.8768364775325918e-02
1.1199999999999999e+01 +9.1411483812750394e+00 +0.0000000000000000e+00 +1.1199997497509599e+01 +1.1116353336411294e-02 -1.0328831805118892e+00 -5.8768584265282732e-02
1.1300000000000001e+01 +9.1410320792599205e+00 +0.0000000000000000e+00 +1.1299997429878401e+01 +1.1116198472975828e-02 -1.0328819735132779e+00 -5.8768789097389897e-02
1.1400000000000000e+01 +9.1409147434512903e+00 +0.0000000000000000e+00 +1.1399997361039500e+01 +1.1116045462745590e-02 -1.0328807147172199e+00 -5.8768979521462206e-02
1.1500000000000000e+01 +9.1407963738456193e+00 +0.0000000000000000e+00 +1.1499997290982201e+01 +1.1115894506356546e-02 -1.0328794030460993e+00 -5.8769155787156302e-02
1.1600000000000000e+01 +9.1406769704464494e+00 +0.0000000000000000e+00 +1.1599997219695799e+01 +1.1115745804670575e-02 -1.0328780374228468e+00 -5.8769318143965063e-02
1.1699999999999999e+01 +9.1405565332520098e+00 +0.0000000000000000e+00 +1.1699997147169800e+01 +1.1115599558780925e-02 -1.0328766167709815e+00 -5.8769466841215492e-02
1.1800000000000001e+01 +9.1404350622623003e+00 +0.0000000000000000e+00 +1.1799997073393300e+01 +1.1115455970017096e-02 -1.0328751400146081e+00 -5.8769602128063848e-02
