# field on trajectory
# s[mm] rx[mm] ry[mm] rz[mm] bx[T] by[T] bz[T]
0.0000000000000000e+00 +9.1112000000000002e+00 +0.0000000000000000e+00 +0.0000000000000000e+00 +1.0508088600414901e-02 -1.0311686966088722e+00 -5.8792734045999460e-02
-1.0000000000000001e-01 +9.1111994847720812e+00 +0.0000000000000000e+00 -9.9999999998230268e-02 +1.0508231769261307e-02 -1.0311700647429736e+00 -5.8791936165634183e-02
-2.0000000000000001e-01 +9.1111979390874644e+00 +0.0000000000000000e+00 -1.9999999998584214e-01 +1.0508381271705476e-02 -1.0311711136597959e+00 -5.8791148167387619e-02
-3.0000000000000004e-01 +9.1111953629451019e+00 +0.0000000000000000e+00 -2.9999999995221716e-01 +1.0508535327272334e-02 -1.0311718299056252e+00 -5.8790370336403656e-02
-4.0000000000000002e-01 +9.1111917563442812e+00 +0.0000000000000000e+00 -3.9999999988673685e-01 +1.0508692155479272e-02 -1.0311722000294141e+00 -5.8789602957895676e-02
-5.0000000000000000e-01 +9.1111871192846330e+00 +0.0000000000000000e+00 -4.9999999977878279e-01 +1.0508849975827546e-02 -1.0311722105825551e+00 -5.8788846317137808e-02
-5.9999999999999998e-01 +9.1111814517661482e+00 +0.0000000000000000e+00 -5.9999999961773653e-01 +1.0509007007793770e-02 -1.0311718481186540e+00 -5.8788100699456662e-02
-6.9999999999999996e-01 +9.1111747537891912e+00 +0.0000000000000000e+00 -6.9999999939297963e-01 +1.0509161470821296e-02 -1.0311710991932999e+00 -5.8787366390222577e-02
-7.9999999999999993e-01 +9.1111670253545132e+00 +0.0000000000000000e+00 -7.9999999909389374e-01 +1.0509311584311719e-02 -1.0311699503638407e+00 -5.8786643674841231e-02
-8.9999999999999991e-01 +9.1111582664632618e+00 +0.0000000000000000e+00 -8.9999999870986047e-01 +1.0509455567616267e-02 -1.0311683881891536e+00 -5.8785932838744934e-02
-9.9999999999999989e-01 +9.1111484771170019e+00 +0.0000000000000000e+00 -9.9999999823026153e-01 +1.0509591640027276e-02 -1.0311663992294196e+00 -5.8785234167384411e-02
-1.0999999999999999e+00 +9.1111376573177232e+00 +0.0000000000000000e+00 -1.0999999976444788e+00 +1.0509718020769616e-02 -1.0311639700458946e+00 -5.8784547946219907e-02
-1.2000000000000000e+00 +9.1111258070678556e+00 +0.0000000000000000e+00 -1.1999999969418942e+00 +1.0509832928992114e-02 -1.0311610872006827e+00 -5.8783874460712857e-02
-1.3000000000000000e+00 +9.1111129263702804e+00 +0.0000000000000000e+00 -1.2999999961118900e+00 +1.0509934583759045e-02 -1.0311577372565079e+00 -5.8783213996317342e-02
-1.4000000000000001e+00 +9.1110990152283495e+00 +0.0000000000000000e+00 -1.3999999951438482e+00 +1.0510021204041526e-02 -1.0311539067764897e+00 -5.8782566838471509e-02
-1.5000000000000002e+00 +9.1110840736458929e+00 +0.0000000000000000e+00 -1.4999999940271513e+00 +1.0510091008708986e-02 -1.0311495823239105e+00 -5.8781933272589078e-02
-1.6000000000000003e+00 +9.1110681016272341e+00 +0.0000000000000000e+00 -1.5999999927511821e+00 +1.0510142645361121e-02 -1.0311447602918900e+00 -5.8781313546222201e-02
-1.7000000000000004e+00 +9.1110510991771907e+00 +0.0000000000000000e+00 -1.6999999913053232e+00 +1.0510176476893358e-02 -1.0311394763925426e+00 -5.8780707755579857e-02
-1.8000000000000005e+00 +9.1110330663010419e+00 +0.0000000000000000e+00 -1.7999999896789576e+00 +1.0510193295068547e-02 -1.0311337761664707e+00 -5.8780115959029960e-02
-1.9000000000000006e+00 +9.1110140030044811e+00 +0.0000000000000000e+00 -1.8999999878614688e+00 +1.0510193891703306e-02 -1.0311277051524326e+00 -5.8779538214928116e-02
-2.0000000000000004e+00 +9.1109939092935726e+00 +0.0000000000000000e+00 -1.9999999858422404e+00 +1.0510179058683180e-02 -1.0311213088869757e+00 -5.8778974581614934e-02
-2.1000000000000005e+00 +9.1109727851747060e+00 +0.0000000000000000e+00 -2.0999999836106560e+00 +1.0510149587977793e-02 -1.0311146329040732e+00 -5.8778425117413179e-02
-2.2000000000000006e+00 +9.1109506306545534e+00 +0.0000000000000000e+00 -2.1999999811561000e+00 +1.0510106271656021e-02 -1.0311077227347585e+00 -5.8777889880625191e-02
-2.3000000000000007e+00 +9.1109274457400176e+00 +0.0000000000000000e+00 -2.2999999784679561e+00 +1.0510049901901138e-02 -1.0311006239067591e+00 -5.8777368929529929e-02
-2.4000000000000008e+00 +9.1109032304381898e+00 +0.0000000000000000e+00 -2.3999999755356094e+00 +1.0509981271025978e-02 -1.0310933819441339e+00 -5.8776862322380455e-02
-2.5000000000000009e+00 +9.1108779847563071e+00 +0.0000000000000000e+00 -2.4999999723484447e+00 +1.0509901171488098e-02 -1.0310860423669064e+00 -5.8776370117401062e-02
-2.6000000000000010e+00 +9.1108517087017038e+00 +0.0000000000000000e+00 -2.5999999688958471e+00 +1.0509810395904966e-02 -1.0310786506906997e+00 -5.8775892372784536e-02
-2.7000000000000011e+00 +9.1108244022817644e+00 +0.0000000000000000e+00 -2.6999999651672018e+00 +1.0509709737069058e-02 -1.0310712524263712e+00 -5.8775429146689435e-02
-2.8000000000000012e+00 +9.1107960655038820e+00 +0.0000000000000000e+00 -2.7999999611518946e+00 +1.0509599987963102e-02 -1.0310638930796507e+00 -5.8774980497237422e-02
-2.9000000000000012e+00 +9.1107666983754090e+00 +0.0000000000000000e+00 -2.8999999568393111e+00 +1.0509481941775188e-02 -1.0310566181507694e+00 -5.8774546482510376e-02
-3.0000000000000013e+00 +9.1107363009036142e+00 +0.0000000000000000e+00 -2.9999999522188374e+00 +1.0509356391913969e-02 -1.0310494731341002e+00 -5.8774127160547800e-02
-3.1000000000000014e+00 +9.1107048730956386e+00 +0.0000000000000000e+00 -3.0999999472798594e+00 +1.0509224132023794e-02 -1.0310425035177890e+00 -5.8773722589343977e-02
-3.2000000000000015e+00 +9.1106724149584455e+00 +0.0000000000000000e+00 -3.1999999420117637e+00 +1.0509085955999911e-02 -1.0310357547833910e+00 -5.8773332826845270e-02
-3.3000000000000016e+00 +9.1106389264987797e+00 +0.0000000000000000e+00 -3.2999999364039367e+00 +1.0508942658003615e-02 -1.0310292724055052e+00 -5.8772957930947438e-02
-3.4000000000000017e+00 +9.1106044077231179e+00 +0.0000000000000000e+00 -3.3999999304457651e+00 +1.0508795032477439e-02 -1.0310231018514087e+00 -5.8772597959492773e-02
-3.5000000000000018e+00 +9.1105688586376257e+00 +0.0000000000000000e+00 -3.4999999241266351e+00 +1.0508643874160303e-02 -1.0310172885806916e+00 -5.8772252970267475e-02
-3.6000000000000019e+00 +9.1105322792481136e+00 +0.0000000000000000e+00 -3.5999999174359338e+00 +1.0508489939000117e-02 -1.0310118683539664e+00 -5.8771922761487357e-02
-3.7000000000000020e+00 +9.1104946695600031e+00 +0.0000000000000000e+00 -3.6999999103630481e+00 +1.0508333826707348e-02 -1.0310068381626376e+00 -5.8771606093221636e-02
-3.8000000000000020e+00 +9.1104560295783248e+00 +0.0000000000000000e+00 -3.7999999028973646e+00 +1.0508176097795611e-02 -1.0310021853068854e+00 -5.8771301465858274e-02
-3.9000000000000021e+00 +9.1104163593077345e+00 +0.0000000000000000e+00 -3.8999998950282699e+00 +1.0508017312631256e-02 -1.0309978970876030e+00 -5.8771007379597506e-02
-4.0000000000000018e+00 +9.1103756587525222e+00 +0.0000000000000000e+00 -3.9999998867451514e+00 +1.0507858031417074e-02 -1.0309939608066503e+00 -5.8770722334441625e-02
-4.1000000000000014e+00 +9.1103339279166278e+00 +0.0000000000000000e+00 -4.0999998780373952e+00 +1.0507698814175879e-02 -1.0309903637671007e+00 -5.8770444830184537e-02
-4.2000000000000011e+00 +9.1102911668036501e+00 +0.0000000000000000e+00 -4.1999998688943885e+00 +1.0507540220734154e-02 -1.0309870932734968e+00 -5.8770173366401696e-02
-4.3000000000000007e+00 +9.1102473754168631e+00 +0.0000000000000000e+00 -4.2999998593055180e+00 +1.0507382810705693e-02 -1.0309841366321011e+00 -5.8769906442439665e-02
-4.4000000000000004e+00 +9.1102025537592279e+00 +0.0000000000000000e+00 -4.3999998492601700e+00 +1.0507227143475212e-02 -1.0309814811511437e+00 -5.8769642557405834e-02
-4.5000000000000000e+00 +9.1101567018334020e+00 +0.0000000000000000e+00 -4.4999998387477316e+00 +1.0507073778181976e-02 -1.0309791141410773e+00 -5.8769380210158213e-02
-4.5999999999999996e+00 +9.1101098196417585e+00 +0.0000000000000000e+00 -4.5999998277575891e+00 +1.0506923273703429e-02 -1.0309770229148274e+00 -5.8769117899295023e-02
-4.6999999999999993e+00 +9.1100619071863935e+00 +0.0000000000000000e+00 -4.6999998162791297e+00 +1.0506776188638801e-02 -1.0309751947880437e+00 -5.8768854123144532e-02
-4.7999999999999989e+00 +9.1100129644691386e+00 +0.0000000000000000e+00 -4.7999998043017387e+00 +1.0506633081292720e-02 -1.0309736170793495e+00 -5.8768587379754614e-02
-4.8999999999999986e+00 +9.1099629914915781e+00 +0.0000000000000000e+00 -4.8999997918148033e+00 +1.0506494509658843e-02 -1.0309722771105974e+00 -5.8768316166882599e-02
-4.9999999999999982e+00 +9.1099119882550568e+00 +0.0000000000000000e+00 -4.9999997788077097e+00 +1.0506361031403439e-02 -1.0309711622071163e+00 -5.8768038981984891e-02
-5.0999999999999979e+00 +9.1098599547606938e+00 +0.0000000000000000e+00 -5.0999997652698434e+00 +1.0506233203849028e-02 -1.0309702596979662e+00 -5.8767754322206670e-02
-5.1999999999999975e+00 +9.1098068910094003e+00 +0.0000000000000000e+00 -5.1999997511905915e+00 +1.0506111583957931e-02 -1.0309695569161879e+00 -5.8767460684371664e-02
-5.2999999999999972e+00 +9.1097527970018835e+00 +0.0000000000000000e+00 -5.2999997365593403e+00 +1.0505996728315934e-02 -1.0309690411990546e+00 -5.8767156564971744e-02
-5.3999999999999968e+00 +9.1096976727386654e+00 +0.0000000000000000e+00 -5.3999997213654751e+00 +1.0505889193115812e-02 -1.0309686998883263e+00 -5.8766840460156754e-02
-5.4999999999999964e+00 +9.1096415182200943e+00 +0.0000000000000000e+00 -5.4999997055983822e+00 +1.0505789534140974e-02 -1.0309685203304968e+00 -5.8766510865724049e-02
-5.5999999999999961e+00 +9.1095843334463584e+00 +0.0000000000000000e+00 -5.5999996892474471e+00 +1.0505698272721412e-02 -1.0309684896875564e+00 -5.8766166797366258e-02
-5.6999999999999957e+00 +9.1095261184174934e+00 +0.0000000000000000e+00 -5.6999996723020558e+00 +1.0505615793826086e-02 -1.0309685943667379e+00 -5.8765809351676621e-02
-5.7999999999999954e+00 +9.1094668731334032e+00 +0.0000000000000000e+00 -5.7999996547515940e+00 +1.0505542448478891e-02 -1.0309688205855996e+00 -5.8765440145759948e-02
-5.8999999999999950e+00 +9.1094065975938676e+00 +0.0000000000000000e+00 -5.8999996365854468e+00 +1.0505478587843026e-02 -1.0309691545610138e+00 -5.8765060797039401e-02
-5.9999999999999947e+00 +9.1093452917985616e+00 +0.0000000000000000e+00 -5.9999996177929997e+00 +1.0505424563230158e-02 -1.0309695825091487e+00 -5.8764672923275661e-02
-6.0999999999999943e+00 +9.1092829557470658e+00 +0.0000000000000000e+00 -6.0999995983636390e+00 +1.0505380726109669e-02 -1.0309700906454526e+00 -5.8764278142586467e-02
-6.1999999999999940e+00 +9.1092195894388794e+00 +0.0000000000000000e+00 -6.1999995782867501e+00 +1.0505347428117843e-02 -1.0309706651846404e+00 -5.8763878073465940e-02
-6.2999999999999936e+00 +9.1091551928734358e+00 +0.0000000000000000e+00 -6.2999995575517174e+00 +1.0505325021067078e-02 -1.0309712923406720e+00 -5.8763474334804007e-02
-6.3999999999999932e+00 +9.1090897660501167e+00 +0.0000000000000000e+00 -6.3999995361479272e+00 +1.0505313856955098e-02 -1.0309719583267389e+00 -5.8763068545905649e-02
-6.4999999999999929e+00 +9.1090233089682648e+00 +0.0000000000000000e+00 -6.4999995140647640e+00 +1.0505314287974155e-02 -1.0309726493552485e+00 -5.8762662326510458e-02
-6.5999999999999925e+00 +9.1089558216271964e+00 +0.0000000000000000e+00 -6.5999994912916131e+00 +1.0505326666520248e-02 -1.0309733516378041e+00 -5.8762257296811941e-02
-6.6999999999999922e+00 +9.1088873040262204e+00 +0.0000000000000000e+00 -6.6999994678178600e+00 +1.0505351345202309e-02 -1.0309740513851933e+00 -5.8761855077476888e-02
-6.7999999999999918e+00 +9.1088177561646440e+00 +0.0000000000000000e+00 -6.7999994436328892e+00 +1.0505388676851423e-02 -1.0309747348073661e+00 -5.8761457289664767e-02
-6.8999999999999915e+00 +9.1087471780417939e+00 +0.0000000000000000e+00 -6.8999994187260869e+00 +1.0505439014530037e-02 -1.0309753881134232e+00 -5.8761065555047211e-02
-6.9999999999999911e+00 +9.1086755696570254e+00 +0.0000000000000000e+00 -6.9999993930868376e+00 +1.0505502711541168e-02 -1.0309759975115971e+00 -5.8760681495827229e-02
-7.0999999999999908e+00 +9.1086029310097381e+00 +0.0000000000000000e+00 -7.0999993667045267e+00 +1.0505580121437597e-02 -1.0309765492092353e+00 -5.8760306734758759e-02
-7.1999999999999904e+00 +9.1085292620993901e+00 +0.0000000000000000e+00 -7.1999993395685387e+00 +1.0505671598031067e-02 -1.0309770294127860e+00 -5.8759942895165944e-02
-7.2999999999999901e+00 +9.1084545629255089e+00 +0.0000000000000000e+00 -7.2999993116682598e+00 +1.0505777495401540e-02 -1.0309774243277789e+00 -5.8759591600962682e-02
-7.3999999999999897e+00 +9.1083788334877109e+00 +0.0000000000000000e+00 -7.3999992829930745e+00 +1.0505898167906336e-02 -1.0309777201588111e+00 -5.8759254476671852e-02
-7.4999999999999893e+00 +9.1083020737857083e+00 +0.0000000000000000e+00 -7.4999992535323683e+00 +1.0506033970189383e-02 -1.0309779031095287e+00 -5.8758933147444806e-02
-7.5999999999999890e+00 +9.1082242838193288e+00 +0.0000000000000000e+00 -7.5999992232755273e+00 +1.0506184997440044e-02 -1.0309779633073057e+00 -5.8758628921046177e-02
-7.6999999999999886e+00 +9.1081454635885191e+00 +0.0000000000000000e+00 -7.6999991922119362e+00 +1.0506350306031793e-02 -1.0309779065791462e+00 -5.8758341833603032e-02
-7.7999999999999883e+00 +9.1080656130933431e+00 +0.0000000000000000e+00 -7.7999991603309811e+00 +1.0506528692621652e-02 -1.0309777426800890e+00 -5.8758071603495200e-02
-7.8999999999999879e+00 +9.1079847323339731e+00 +0.0000000000000000e+00 -7.8999991276220474e+00 +1.0506718953888402e-02 -1.0309774813688319e+00 -5.8757817949375991e-02
-7.9999999999999876e+00 +9.1079028213106774e+00 +0.0000000000000000e+00 -7.9999990940745205e+00 +1.0506919886532436e-02 -1.0309771324078618e+00 -5.8757580590178070e-02
-8.0999999999999872e+00 +9.1078198800238130e+00 +0.0000000000000000e+00 -8.0999990596777867e+00 +1.0507130287275578e-02 -1.0309767055635826e+00 -5.8757359245119392e-02
-8.1999999999999869e+00 +9.1077359084738134e+00 +0.0000000000000000e+00 -8.1999990244212313e+00 +1.0507348952860920e-02 -1.0309762106064464e+00 -5.8757153633708911e-02
-8.2999999999999865e+00 +9.1076509066611830e+00 +0.0000000000000000e+00 -8.2999989882942415e+00 +1.0507574680052667e-02 -1.0309756573110815e+00 -5.8756963475752530e-02
-8.3999999999999861e+00 +9.1075648745864815e+00 +0.0000000000000000e+00 -8.3999989512862037e+00 +1.0507806265635964e-02 -1.0309750554564221e+00 -5.8756788491358833e-02
-8.4999999999999858e+00 +9.1074778122503197e+00 +0.0000000000000000e+00 -8.4999989133865022e+00 +1.0508042506416754e-02 -1.0309744148258375e+00 -5.8756628400944984e-02
-8.5999999999999854e+00 +9.1073897196533462e+00 +0.0000000000000000e+00 -8.5999988745845233e+00 +1.0508282199221623e-02 -1.0309737452072587e+00 -5.8756482925242492e-02
-8.6999999999999851e+00 +9.1073005967962377e+00 +0.0000000000000000e+00 -8.6999988348696551e+00 +1.0508524140897649e-02 -1.0309730563933126e+00 -5.8756351785303085e-02
-8.7999999999999847e+00 +9.1072104436796906e+00 +0.0000000000000000e+00 -8.7999987942312821e+00 +1.0508767128312271e-02 -1.0309723581814452e+00 -5.8756234702504448e-02
-8.8999999999999844e+00 +9.1071192603044135e+00 +0.0000000000000000e+00 -8.8999987526587923e+00 +1.0509009958353145e-02 -1.0309716603740571e+00 -5.8756131398556226e-02
-8.9999999999999840e+00 +9.1070270466711118e+00 +0.0000000000000000e+00 -8.9999987101415702e+00 +1.0509251427928006e-02 -1.0309709727786251e+00 -5.8756041595505591e-02
-9.0999999999999837e+00 +9.1069338027804800e+00 +0.0000000000000000e+00 -9.0999986666690020e+00 +1.0509490333964535e-02 -1.0309703052078378e+00 -5.8755965015743199e-02
-9.1999999999999833e+00 +9.1068395286331967e+00 +0.0000000000000000e+00 -9.1999986222304759e+00 +1.0509725473410253e-02 -1.0309696674797200e+00 -5.8755901382009042e-02
-9.2999999999999829e+00 +9.1067442242299066e+00 +0.0000000000000000e+00 -9.2999985768153763e+00 +1.0509955643232389e-02 -1.0309690694177627e+00 -5.8755850417398101e-02
-9.3999999999999826e+00 +9.1066478895712173e+00 +0.0000000000000000e+00 -9.3999985304130913e+00 +1.0510179640417762e-02 -1.0309685208510548e+00 -5.8755811845366289e-02
-9.4999999999999822e+00 +9.1065505246576866e+00 +0.0000000000000000e+00 -9.4999984830130053e+00 +1.0510396261972662e-02 -1.0309680316144070e+00 -5.8755785389736151e-02
-9.5999999999999819e+00 +9.1064521294898135e+00 +0.0000000000000000e+00 -9.5999984346045064e+00 +1.0510604438796941e-02 -1.0309676102787695e+00 -5.8755770695654068e-02
-9.6999999999999815e+00 +9.1063527040680281e+00 +0.0000000000000000e+00 -9.6999983851769791e+00 +1.0510803637150831e-02 -1.0309672603390660e+00 -5.8755767092108988e-02
-9.7999999999999812e+00 +9.1062522483926909e+00 +0.0000000000000000e+00 -9.7999983347198114e+00 +1.0510993456698864e-02 -1.0309669840183815e+00 -5.8755773828508551e-02
-9.8999999999999808e+00 +9.1061507624640878e+00 +0.0000000000000000e+00 -9.8999982832223878e+00 +1.0511173496565119e-02 -1.0309667835369738e+00 -5.8755790153635273e-02
-9.9999999999999805e+00 +9.1060482462824304e+00 +0.0000000000000000e+00 -9.9999982306740947e+00 +1.0511343355319032e-02 -1.0309666611121786e+00 -5.8755815315626903e-02
-1.0099999999999980e+01 +9.1059446998478517e+00 +0.0000000000000000e+00 -1.0099998177064318e+01 +1.0511502630961256e-02 -1.0309666189583113e+00 -5.8755848561956904e-02
-1.0199999999999980e+01 +9.1058401231604051e+00 +0.0000000000000000e+00 -1.0199998122382443e+01 +1.0511650920909532e-02 -1.0309666592865703e+00 -5.8755889139415061e-02
-1.0299999999999979e+01 +9.1057345162200605e+00 +0.0000000000000000e+00 -1.0299998066617857e+01 +1.0511787821984513e-02 -1.0309667843049395e+00 -5.8755936294087867e-02
-1.0399999999999979e+01 +9.1056278790267040e+00 +0.0000000000000000e+00 -1.0399998009759942e+01 +1.0511912930395632e-02 -1.0309669962180923e+00 -5.8755989271339126e-02
-1.0499999999999979e+01 +9.1055202115801368e+00 +0.0000000000000000e+00 -1.0499997951798088e+01 +1.0512025841726945e-02 -1.0309672972272907e+00 -5.8756047315790351e-02
-1.0599999999999978e+01 +9.1054115138800675e+00 +0.0000000000000000e+00 -1.0599997892721678e+01 +1.0512126150923003e-02 -1.0309676895302933e+00 -5.8756109671301363e-02
-1.0699999999999978e+01 +9.1053017859261161e+00 +0.0000000000000000e+00 -1.0699997832520099e+01 +1.0512213452274681e-02 -1.0309681753212545e+00 -5.8756175580950726e-02
-1.0799999999999978e+01 +9.1051910277178081e+00 +0.0000000000000000e+00 -1.0799997771182735e+01 +1.0512287339405051e-02 -1.0309687567906283e+00 -5.8756244287016278e-02
-1.0899999999999977e+01 +9.1050792392545734e+00 +0.0000000000000000e+00 -1.0899997708698971e+01 +1.0512347405255234e-02 -1.0309694361250710e+00 -5.8756315030955748e-02
-1.0999999999999977e+01 +9.1049664205357459e+00 +0.0000000000000000e+00 -1.0999997645058192e+01 +1.0512393242070253e-02 -1.0309702155073441e+00 -5.8756387053387024e-02
-1.1099999999999977e+01 +9.1048525715605582e+00 +0.0000000000000000e+00 -1.1099997580249783e+01 +1.0512424441384888e-02 -1.0309710971162189e+00 -5.8756459594068972e-02
-1.1199999999999976e+01 +9.1047376923281416e+00 +0.0000000000000000e+00 -1.1199997514263128e+01 +1.0512440594009543e-02 -1.0309720831263749e+00 -5.8756531891881666e-02
-1.1299999999999976e+01 +9.1046217828375227e+00 +0.0000000000000000e+00 -1.1299997447087613e+01 +1.0512441290016099e-02 -1.0309731757083080e+00 -5.8756603184807167e-02
-1.1399999999999975e+01 +9.1045048430876214e+00 +0.0000000000000000e+00 -1.1399997378712621e+01 +1.0512426118723764e-02 -1.0309743770282285e+00 -5.8756672709909856e-02
-1.1499999999999975e+01 +9.1043868730772495e+00 +0.0000000000000000e+00 -1.1499997309127538e+01 +1.0512394668684947e-02 -1.0309756892479685e+00 -5.8756739703316997e-02
-1.1599999999999975e+01 +9.1042678728051083e+00 +0.0000000000000000e+00 -1.1599997238321746e+01 +1.0512346890402284e-02 -1.0309771121959892e+00 -5.8756803475534414e-02
-1.1699999999999974e+01 +9.1041478422697892e+00 +0.0000000000000000e+00 -1.1699997166284632e+01 +1.0512284185277637e-02 -1.0309786363803413e+00 -5.8756863637758880e-02
