# trajectory
# s[mm] rx[mm] ry[mm] rz[mm] px[rad] py[rad] pz[rad]
0.0000000000000000e+00 +9.0991999999999997e+00 +0.0000000000000000e+00 +0.0000000000000000e+00 +0.0000000000000000e+00 +0.0000000000000000e+00 +1.0000000000000000e+00
1.0000000000000001e-01 +9.0991994837777348e+00 +0.0000000000000000e+00 +9.9999999998223441e-02 -1.0324451639958991e-05 +0.0000000000000000e+00 +9.9999999994670286e-01
2.0000000000000001e-01 +9.0991979351084105e+00 +0.0000000000000000e+00 +1.9999999998578741e-01 -2.0648941112647586e-05 +0.0000000000000000e+00 +9.9999999978681064e-01
3.0000000000000004e-01 +9.0991953539882697e+00 +0.0000000000000000e+00 +2.9999999995203236e-01 -3.0973467852498851e-05 +0.0000000000000000e+00 +9.9999999952032215e-01
4.0000000000000002e-01 +9.0991917404136178e+00 +0.0000000000000000e+00 +3.9999999988629859e-01 -4.1298031230572961e-05 +0.0000000000000000e+00 +9.9999999914723636e-01
5.0000000000000000e-01 +9.0991870943808255e+00 +0.0000000000000000e+00 +4.9999999977792631e-01 -5.1622630554555037e-05 +0.0000000000000000e+00 +9.9999999866755207e-01
5.9999999999999998e-01 +9.0991814158863349e+00 +0.0000000000000000e+00 +5.9999999961625572e-01 -6.1947265073040918e-05 +0.0000000000000000e+00 +9.9999999808126827e-01
6.9999999999999996e-01 +9.0991747049266642e+00 +0.0000000000000000e+00 +6.9999999939062674e-01 -7.2271934022702375e-05 +0.0000000000000000e+00 +9.9999999738838385e-01
7.9999999999999993e-01 +9.0991669614984065e+00 +0.0000000000000000e+00 +7.9999999909037922e-01 -8.2596636675452424e-05 +0.0000000000000000e+00 +9.9999999658889793e-01
8.9999999999999991e-01 +9.0991581855982275e+00 +0.0000000000000000e+00 +8.9999999870485292e-01 -9.2921372342731368e-05 +0.0000000000000000e+00 +9.9999999568280939e-01
9.9999999999999989e-01 +9.0991483772228587e+00 +0.0000000000000000e+00 +9.9999999822338759e-01 -1.0324614037550494e-04 +0.0000000000000000e+00 +9.9999999467011735e-01
1.0999999999999999e+00 +9.0991375363690938e+00 +0.0000000000000000e+00 +1.0999999976353230e+00 -1.1357094016426259e-04 +0.0000000000000000e+00 +9.9999999355082092e-01
1.2000000000000000e+00 +9.0991256630337869e+00 +0.0000000000000000e+00 +1.1999999969299984e+00 -1.2389577113901579e-04 +0.0000000000000000e+00 +9.9999999232491910e-01
1.3000000000000000e+00 +9.0991127572138453e+00 +0.0000000000000000e+00 +1.2999999960967532e+00 -1.3422063276929643e-04 +0.0000000000000000e+00 +9.9999999099241099e-01
1.4000000000000001e+00 +9.0990988189062278e+00 +0.0000000000000000e+00 +1.3999999951249269e+00 -1.4454552456415537e-04 +0.0000000000000000e+00 +9.9999998955329572e-01
1.5000000000000002e+00 +9.0990838481079415e+00 +0.0000000000000000e+00 +1.4999999940038586e+00 -1.5487044607216088e-04 +0.0000000000000000e+00 +9.9999998800757250e-01
1.6000000000000003e+00 +9.0990678448160356e+00 +0.0000000000000000e+00 +1.5999999927228876e+00 -1.6519539688139738e-04 +0.0000000000000000e+00 +9.9999998635524046e-01
1.7000000000000004e+00 +9.0990508090276006e+00 +0.0000000000000000e+00 +1.6999999912713530e+00 -1.7552037661946413e-04 +0.0000000000000000e+00 +9.9999998459629869e-01
1.8000000000000005e+00 +9.0990327407397587e+00 +0.0000000000000000e+00 +1.7999999896385936e+00 -1.8584538495347396e-04 +0.0000000000000000e+00 +9.9999998273074642e-01
1.9000000000000006e+00 +9.0990136399496659e+00 +0.0000000000000000e+00 +1.8999999878139486e+00 -1.9617042159005222e-04 +0.0000000000000000e+00 +9.9999998075858276e-01
2.0000000000000004e+00 +9.0989935066545051e+00 +0.0000000000000000e+00 +1.9999999857867565e+00 -2.0649548627533568e-04 +0.0000000000000000e+00 +9.9999997867980694e-01
2.1000000000000005e+00 +9.0989723408514820e+00 +0.0000000000000000e+00 +2.0999999835463563e+00 -2.1682057879497153e-04 +0.0000000000000000e+00 +9.9999997649441807e-01
2.2000000000000006e+00 +9.0989501425378236e+00 +0.0000000000000000e+00 +2.1999999810820863e+00 -2.2714569897411654e-04 +0.0000000000000000e+00 +9.9999997420241549e-01
2.3000000000000007e+00 +9.0989269117107696e+00 +0.0000000000000000e+00 +2.2999999783832856e+00 -2.3747084667743613e-04 +0.0000000000000000e+00 +9.9999997180379818e-01
2.4000000000000008e+00 +9.0989026483675737e+00 +0.0000000000000000e+00 +2.3999999754392922e+00 -2.4779602180910378e-04 +0.0000000000000000e+00 +9.9999996929856538e-01
2.5000000000000009e+00 +9.0988773525054949e+00 +0.0000000000000000e+00 +2.4999999722394448e+00 -2.5812122431280015e-04 +0.0000000000000000e+00 +9.9999996668671631e-01
2.6000000000000010e+00 +9.0988510241217995e+00 +0.0000000000000000e+00 +2.5999999687730817e+00 -2.6844645416820287e-04 +0.0000000000000000e+00 +9.9999996396825008e-01
2.7000000000000011e+00 +9.0988236632137518e+00 +0.0000000000000000e+00 +2.6999999650295408e+00 -2.7877171135237802e-04 +0.0000000000000000e+00 +9.9999996114316581e-01
2.8000000000000012e+00 +9.0987952697786216e+00 +0.0000000000000000e+00 +2.7999999609981607e+00 -2.8909699580117462e-04 +0.0000000000000000e+00 +9.9999995821146270e-01
2.9000000000000012e+00 +9.0987658438136876e+00 +0.0000000000000000e+00 +2.8999999566682795e+00 -2.9942230740571930e-04 +0.0000000000000000e+00 +9.9999995517314000e-01
3.0000000000000013e+00 +9.0987353853162407e+00 +0.0000000000000000e+00 +2.9999999520292349e+00 -3.0974764601242143e-04 +0.0000000000000000e+00 +9.9999995202819680e-01
3.1000000000000014e+00 +9.0987038942835916e+00 +0.0000000000000000e+00 +3.0999999470703647e+00 -3.2007301142297887e-04 +0.0000000000000000e+00 +9.9999994877663245e-01
3.2000000000000015e+00 +9.0986713707130704e+00 +0.0000000000000000e+00 +3.1999999417810070e+00 -3.3039840339438401e-04 +0.0000000000000000e+00 +9.9999994541844617e-01
3.3000000000000016e+00 +9.0986378146020357e+00 +0.0000000000000000e+00 +3.2999999361504995e+00 -3.4072382163893064e-04 +0.0000000000000000e+00 +9.9999994195363717e-01
3.4000000000000017e+00 +9.0986032259478780e+00 +0.0000000000000000e+00 +3.3999999301681800e+00 -3.5104926582422090e-04 +0.0000000000000000e+00 +9.9999993838220480e-01
3.5000000000000018e+00 +9.0985676047480197e+00 +0.0000000000000000e+00 +3.4999999238233861e+00 -3.6137473557317331e-04 +0.0000000000000000e+00 +9.9999993470414827e-01
3.6000000000000019e+00 +9.0985309509999261e+00 +0.0000000000000000e+00 +3.5999999171054555e+00 -3.7170023046403071e-04 +0.0000000000000000e+00 +9.9999993091946715e-01
3.7000000000000020e+00 +9.0984932647011050e+00 +0.0000000000000000e+00 +3.6999999100037253e+00 -3.8202575003036911e-04 +0.0000000000000000e+00 +9.9999992702816065e-01
3.8000000000000020e+00 +9.0984545458491137e+00 +0.0000000000000000e+00 +3.7999999025075333e+00 -3.9235129376110695e-04 +0.0000000000000000e+00 +9.9999992303022833e-01
3.9000000000000021e+00 +9.0984147944415650e+00 +0.0000000000000000e+00 +3.8999998946062169e+00 -4.0267686110051487e-04 +0.0000000000000000e+00 +9.9999991892566964e-01
4.0000000000000018e+00 +9.0983740104761264e+00 +0.0000000000000000e+00 +3.9999998862891131e+00 -4.1300245144822601e-04 +0.0000000000000000e+00 +9.9999991471448402e-01
4.1000000000000014e+00 +9.0983321939505295e+00 +0.0000000000000000e+00 +4.0999998775455593e+00 -4.2332806415924665e-04 +0.0000000000000000e+00 +9.9999991039667113e-01
4.2000000000000011e+00 +9.0982893448625717e+00 +0.0000000000000000e+00 +4.1999998683648929e+00 -4.3365369854396767e-04 +0.0000000000000000e+00 +9.9999990597223054e-01
4.3000000000000007e+00 +9.0982454632101231e+00 +0.0000000000000000e+00 +4.2999998587364514e+00 -4.4397935386817624e-04 +0.0000000000000000e+00 +9.9999990144116191e-01
4.4000000000000004e+00 +9.0982005489911266e+00 +0.0000000000000000e+00 +4.3999998486495713e+00 -4.5430502935306832e-04 +0.0000000000000000e+00 +9.9999989680346490e-01
4.5000000000000000e+00 +9.0981546022036071e+00 +0.0000000000000000e+00 +4.4999998380935899e+00 -4.6463072417526126e-04 +0.0000000000000000e+00 +9.9999989205913931e-01
4.5999999999999996e+00 +9.0981076228456743e+00 +0.0000000000000000e+00 +4.5999998270578448e+00 -4.7495643746924346e-04 +0.0000000000000000e+00 +9.9999988720818500e-01
4.6999999999999993e+00 +9.0980596109155254e+00 +0.0000000000000000e+00 +4.6999998155316725e+00 -4.8528216835418256e-04 +0.0000000000000000e+00 +9.9999988225060177e-01
4.7999999999999989e+00 +9.0980105664114461e+00 +0.0000000000000000e+00 +4.7999998035044102e+00 -4.9560791596072254e-04 +0.0000000000000000e+00 +9.9999987718638939e-01
4.8999999999999986e+00 +9.0979604893318058e+00 +0.0000000000000000e+00 +4.8999997909653956e+00 -5.0593367943341293e-04 +0.0000000000000000e+00 +9.9999987201554796e-01
4.9999999999999982e+00 +9.0979093796750590e+00 +0.0000000000000000e+00 +4.9999997779039651e+00 -5.1625945793070066e-04 +0.0000000000000000e+00 +9.9999986673807728e-01
5.0999999999999979e+00 +9.0978572374397455e+00 +0.0000000000000000e+00 +5.0999997643094561e+00 -5.2658525062492163e-04 +0.0000000000000000e+00 +9.9999986135397745e-01
5.1999999999999975e+00 +9.0978040626244869e+00 +0.0000000000000000e+00 +5.1999997501712061e+00 -5.3691105670229135e-04 +0.0000000000000000e+00 +9.9999985586324835e-01
5.2999999999999972e+00 +9.0977498552279847e+00 +0.0000000000000000e+00 +5.2999997354785515e+00 -5.4723687536289522e-04 +0.0000000000000000e+00 +9.9999985026589011e-01
5.3999999999999968e+00 +9.0976946152490203e+00 +0.0000000000000000e+00 +5.3999997202208299e+00 -5.5756270582067789e-04 +0.0000000000000000e+00 +9.9999984456190261e-01
5.4999999999999964e+00 +9.0976383426864533e+00 +0.0000000000000000e+00 +5.4999997043873776e+00 -5.6788854730343240e-04 +0.0000000000000000e+00 +9.9999983875128606e-01
5.5999999999999961e+00 +9.0975810375392179e+00 +0.0000000000000000e+00 +5.5999996879675322e+00 -5.7821439905278817e-04 +0.0000000000000000e+00 +9.9999983283404048e-01
5.6999999999999957e+00 +9.0975226998063246e+00 +0.0000000000000000e+00 +5.6999996709506311e+00 -5.8854026032419886e-04 +0.0000000000000000e+00 +9.9999982681016608e-01
5.7999999999999954e+00 +9.0974633294868585e+00 +0.0000000000000000e+00 +5.7999996533260108e+00 -5.9886613038692910e-04 +0.0000000000000000e+00 +9.9999982067966298e-01
5.8999999999999950e+00 +9.0974029265799778e+00 +0.0000000000000000e+00 +5.8999996350830086e+00 -6.0919200852404111e-04 +0.0000000000000000e+00 +9.9999981444253128e-01
5.9999999999999947e+00 +9.0973414910849080e+00 +0.0000000000000000e+00 +5.9999996162109621e+00 -6.1951789403238045e-04 +0.0000000000000000e+00 +9.9999980809877120e-01
6.0999999999999943e+00 +9.0972790230009473e+00 +0.0000000000000000e+00 +6.0999995966992087e+00 -6.2984378622256084e-04 +0.0000000000000000e+00 +9.9999980164838298e-01
6.1999999999999940e+00 +9.0972155223274633e+00 +0.0000000000000000e+00 +6.1999995765370848e+00 -6.4016968441894914e-04 +0.0000000000000000e+00 +9.9999979509136672e-01
6.2999999999999936e+00 +9.0971509890638860e+00 +0.0000000000000000e+00 +6.2999995557139279e+00 -6.5049558795964881e-04 +0.0000000000000000e+00 +9.9999978842772275e-01
6.3999999999999932e+00 +9.0970854232097142e+00 +0.0000000000000000e+00 +6.3999995342190754e+00 -6.6082149619648323e-04 +0.0000000000000000e+00 +9.9999978165745140e-01
6.4999999999999929e+00 +9.0970188247645112e+00 +0.0000000000000000e+00 +6.4999995120418639e+00 -6.7114740849497849e-04 +0.0000000000000000e+00 +9.9999977478055280e-01
6.5999999999999925e+00 +9.0969511937279002e+00 +0.0000000000000000e+00 +6.5999994891716316e+00 -6.8147332423650541e-04 +0.0000000000000000e+00 +9.9999976779702737e-01
6.6999999999999922e+00 +9.0968825300995686e+00 +0.0000000000000000e+00 +6.6999994655977151e+00 -6.9179924284202556e-04 +0.0000000000000000e+00 +9.9999976070687535e-01
6.7999999999999918e+00 +9.0968128338792535e+00 +0.0000000000000000e+00 +6.7999994413094527e+00 -7.0212516379584760e-04 +0.0000000000000000e+00 +9.9999975351009696e-01
6.8999999999999915e+00 +9.0967421050667454e+00 +0.0000000000000000e+00 +6.8999994162961809e+00 -7.1245108664778662e-04 +0.0000000000000000e+00 +9.9999974620669252e-01
6.9999999999999911e+00 +9.0966703436618737e+00 +0.0000000000000000e+00 +6.9999993905472371e+00 -7.2277701101316366e-04 +0.0000000000000000e+00 +9.9999973879666226e-01
7.0999999999999908e+00 +9.0965975496645033e+00 +0.0000000000000000e+00 +7.0999993640519588e+00 -7.3310293657280511e-04 +0.0000000000000000e+00 +9.9999973128000630e-01
7.1999999999999904e+00 +9.0965237230745277e+00 +0.0000000000000000e+00 +7.1999993367996842e+00 -7.4342886307304258e-04 +0.0000000000000000e+00 +9.9999972365672485e-01
7.2999999999999901e+00 +9.0964488638918635e+00 +0.0000000000000000e+00 +7.2999993087797499e+00 -7.5375479032571257e-04 +0.0000000000000000e+00 +9.9999971592681791e-01
7.3999999999999897e+00 +9.0963729721164412e+00 +0.0000000000000000e+00 +7.3999992799814933e+00 -7.6408071820815624e-04 +0.0000000000000000e+00 +9.9999970809028571e-01
7.4999999999999893e+00 +9.0962960477482024e+00 +0.0000000000000000e+00 +7.4999992503942527e+00 -7.7440664666321934e-04 +0.0000000000000000e+00 +9.9999970014712813e-01
7.5999999999999890e+00 +9.0962180907870902e+00 +0.0000000000000000e+00 +7.5999992200073647e+00 -7.8473257569925206e-04 +0.0000000000000000e+00 +9.9999969209734518e-01
7.6999999999999886e+00 +9.0961391012330424e+00 +0.0000000000000000e+00 +7.6999991888101675e+00 -7.9505850539010917e-04 +0.0000000000000000e+00 +9.9999968394093686e-01
7.7999999999999883e+00 +9.0960590790859861e+00 +0.0000000000000000e+00 +7.7999991567919977e+00 -8.0538443587515013e-04 +0.0000000000000000e+00 +9.9999967567790293e-01
7.8999999999999879e+00 +9.0959780243458344e+00 +0.0000000000000000e+00 +7.8999991239421936e+00 -8.1571036735923926e-04 +0.0000000000000000e+00 +9.9999966730824330e-01
7.9999999999999876e+00 +9.0958959370124735e+00 +0.0000000000000000e+00 +7.9999990902500926e+00 -8.2603630011274568e-04 +0.0000000000000000e+00 +9.9999965883195763e-01
8.0999999999999872e+00 +9.0958128170857595e+00 +0.0000000000000000e+00 +8.0999990557050321e+00 -8.3636223447154418e-04 +0.0000000000000000e+00 +9.9999965024904558e-01
8.1999999999999869e+00 +9.0957286645655131e+00 +0.0000000000000000e+00 +8.1999990202963478e+00 -8.4668817083701517e-04 +0.0000000000000000e+00 +9.9999964155950682e-01
8.2999999999999865e+00 +9.0956434794515104e+00 +0.0000000000000000e+00 +8.2999989840133779e+00 -8.5701410967604539e-04 +0.0000000000000000e+00 +9.9999963276334081e-01
8.3999999999999861e+00 +9.0955572617434779e+00 +0.0000000000000000e+00 +8.3999989468454608e+00 -8.6734005152102830e-04 +0.0000000000000000e+00 +9.9999962386054708e-01
8.4999999999999858e+00 +9.0954700114410869e+00 +0.0000000000000000e+00 +8.4999989087819330e+00 -8.7766599696986487e-04 +0.0000000000000000e+00 +9.9999961485112498e-01
8.5999999999999854e+00 +9.0953817285439431e+00 +0.0000000000000000e+00 +8.5999988698121310e+00 -8.8799194668055695e-04 +0.0000000000000000e+00 +9.9999960573507385e-01
8.6999999999999851e+00 +9.0952924130515864e+00 +0.0000000000000000e+00 +8.6999988299253932e+00 -8.9831790131173069e-04 +0.0000000000000000e+00 +9.9999959651239290e-01
8.7999999999999847e+00 +9.0952020649634964e+00 +0.0000000000000000e+00 +8.7999987891110560e+00 -9.0864386146316566e-04 +0.0000000000000000e+00 +9.9999958718308146e-01
8.8999999999999844e+00 +9.0951106842790921e+00 +0.0000000000000000e+00 +8.8999987473584561e+00 -9.1896982767040265e-04 +0.0000000000000000e+00 +9.9999957774713888e-01
8.9999999999999840e+00 +9.0950182709977447e+00 +0.0000000000000000e+00 +8.9999987046569299e+00 -9.2929580040475919e-04 +0.0000000000000000e+00 +9.9999956820456459e-01
9.0999999999999837e+00 +9.0949248251187793e+00 +0.0000000000000000e+00 +9.0999986609958139e+00 -9.3962178007334616e-04 +0.0000000000000000e+00 +9.9999955855535794e-01
9.1999999999999833e+00 +9.0948303466414870e+00 +0.0000000000000000e+00 +9.1999986163644465e+00 -9.4994776701908445e-04 +0.0000000000000000e+00 +9.9999954879951836e-01
9.2999999999999829e+00 +9.0947348355651236e+00 +0.0000000000000000e+00 +9.2999985707521624e+00 -9.6027376152072212e-04 +0.0000000000000000e+00 +9.9999953893704541e-01
9.3999999999999826e+00 +9.0946382918889235e+00 +0.0000000000000000e+00 +9.3999985241482999e+00 -9.7059976379285237e-04 +0.0000000000000000e+00 +9.9999952896793853e-01
9.4999999999999822e+00 +9.0945407156121014e+00 +0.0000000000000000e+00 +9.4999984765421956e+00 -9.8092577398593145e-04 +0.0000000000000000e+00 +9.9999951889219740e-01
9.5999999999999819e+00 +9.0944421067338599e+00 +0.0000000000000000e+00 +9.5999984279231860e+00 -9.9125179218629775e-04 +0.0000000000000000e+00 +9.9999950870982168e-01
9.6999999999999815e+00 +9.0943424652533960e+00 +0.0000000000000000e+00 +9.6999983782806058e+00 -1.0015778184161907e-03 +0.0000000000000000e+00 +9.9999949842081115e-01
9.7999999999999812e+00 +9.0942417911699103e+00 +0.0000000000000000e+00 +9.7999983276037934e+00 -1.0119038526337704e-03 +0.0000000000000000e+00 +9.9999948802516558e-01
9.8999999999999808e+00 +9.0941400844826070e+00 +0.0000000000000000e+00 +9.8999982758820853e+00 -1.0222298947331382e-03 +0.0000000000000000e+00 +9.9999947752288476e-01
9.9999999999999805e+00 +9.0940373451907064e+00 +0.0000000000000000e+00 +9.9999982231048161e+00 -1.0325559445443567e-03 +0.0000000000000000e+00 +9.9999946691396868e-01
1.0099999999999980e+01 +9.0939335732934481e+00 +0.0000000000000000e+00 +1.0099998169261324e+01 -1.0428820018334715e-03 +0.0000000000000000e+00 +9.9999945619841735e-01
1.0199999999999980e+01 +9.0938287687901003e+00 +0.0000000000000000e+00 +1.0199998114340945e+01 -1.0532080663025324e-03 +0.0000000000000000e+00 +9.9999944537623087e-01
1.0299999999999979e+01 +9.0937229316799613e+00 +0.0000000000000000e+00 +1.0299998058333015e+01 -1.0635341375896156e-03 +0.0000000000000000e+00 +9.9999943444740935e-01
1.0399999999999979e+01 +9.0936160619623703e+00 +0.0000000000000000e+00 +1.0399998001226873e+01 -1.0738602152688464e-03 +0.0000000000000000e+00 +9.9999942341195303e-01
1.0499999999999979e+01 +9.0935081596367109e+00 +0.0000000000000000e+00 +1.0499997943011852e+01 -1.0841862988504223e-03 +0.0000000000000000e+00 +9.9999941226986222e-01
1.0599999999999978e+01 +9.0933992247024218e+00 +0.0000000000000000e+00 +1.0599997883677291e+01 -1.0945123877834589e-03 +0.0000000000000000e+00 +9.9999940102113738e-01
1.0699999999999978e+01 +9.0932892571589949e+00 +0.0000000000000000e+00 +1.0699997823212525e+01 -1.1048384814870643e-03 +0.0000000000000000e+00 +9.9999938966577895e-01
1.0799999999999978e+01 +9.0931782570059845e+00 +0.0000000000000000e+00 +1.0799997761606893e+01 -1.1151645793813893e-03 +0.0000000000000000e+00 +9.9999937820378737e-01
1.0899999999999977e+01 +9.0930662242429978e+00 +0.0000000000000000e+00 +1.0899997698849729e+01 -1.1254906808904324e-03 +0.0000000000000000e+00 +9.9999936663516331e-01
1.0999999999999977e+01 +9.0929531588697046e+00 +0.0000000000000000e+00 +1.0999997634930372e+01 -1.1358167854420202e-03 +0.0000000000000000e+00 +9.9999935495990722e-01
1.1099999999999977e+01 +9.0928390608858276e+00 +0.0000000000000000e+00 +1.1099997569838157e+01 -1.1461428924677876e-03 +0.0000000000000000e+00 +9.9999934317801964e-01
1.1199999999999976e+01 +9.0927239302911484e+00 +0.0000000000000000e+00 +1.1199997503562422e+01 -1.1564690014031563e-03 +0.0000000000000000e+00 +9.9999933128950114e-01
1.1299999999999976e+01 +9.0926077670855037e+00 +0.0000000000000000e+00 +1.1299997436092504e+01 -1.1667951116873135e-03 +0.0000000000000000e+00 +9.9999931929435226e-01
1.1399999999999975e+01 +9.0924905712687849e+00 +0.0000000000000000e+00 +1.1399997367417738e+01 -1.1771212227631902e-03 +0.0000000000000000e+00 +9.9999930719257379e-01
1.1499999999999975e+01 +9.0923723428409424e+00 +0.0000000000000000e+00 +1.1499997297527463e+01 -1.1874473340774388e-03 +0.0000000000000000e+00 +9.9999929498416618e-01
1.1599999999999975e+01 +9.0922530818019798e+00 +0.0000000000000000e+00 +1.1599997226411016e+01 -1.1977734450804099e-03 +0.0000000000000000e+00 +9.9999928266913019e-01
1.1699999999999974e+01 +9.0921327881519556e+00 +0.0000000000000000e+00 +1.1699997154057735e+01 -1.2080995552261292e-03 +0.0000000000000000e+00 +9.9999927024746638e-01
1.1799999999999974e+01 +9.0920114618909817e+00 +0.0000000000000000e+00 +1.1799997080456956e+01 -1.2184256639722728e-03 +0.0000000000000000e+00 +9.9999925771917553e-01
