# multipoles
# s[mm] polynom_b[n=0][T/m^n] polynom_b[n=1][T/m^n] polynom_b[n=2][T/m^n] polynom_b[n=3][T/m^n] polynom_b[n=4][T/m^n] polynom_b[n=5][T/m^n] polynom_b[n=6][T/m^n] 
+0.0000000000000000e+00 -1.0319782867105789e+00 +2.2712356945310108e+00 +1.8808434550604822e+01 +3.5856462795568171e+02 +2.9941879261638118e+04 -5.6247089291178097e+05 -1.7829444740376878e+08 
-1.0000000000000001e-01 -1.0319754139995940e+00 +2.2715093267000195e+00 +1.8719513039604170e+01 +3.5426784822298993e+02 +3.1550090722712019e+04 -5.4160955356899940e+05 -1.8594273013448071e+08 
-2.0000000000000001e-01 -1.0319726073666455e+00 +2.2717963870551396e+00 +1.8635439982598090e+01 +3.4957604485471813e+02 +3.3071892452578133e+04 -5.1874928058090556e+05 -1.9318717251310706e+08 
-3.0000000000000004e-01 -1.0319698664891139e+00 +2.2720955574744766e+00 +1.8555982125729400e+01 +3.4453044870418682e+02 +3.4510693333061747e+04 -4.9411822359323199e+05 -2.0004095498194999e+08 
-4.0000000000000002e-01 -1.0319671910444081e+00 +2.2724055197998205e+00 +1.8480906215449181e+01 +3.3917229188959629e+02 +3.5869902312351289e+04 -4.6794454109611874e+05 -2.0651725857271066e+08 
-5.0000000000000000e-01 -1.0319645807100188e+00 +2.2727249558417841e+00 +1.8409979005683194e+01 +3.3354280762304205e+02 +3.7152928260568100e+04 -4.4045639933300653e+05 -2.1262926418091565e+08 
-5.9999999999999998e-01 -1.0319620351634335e+00 +2.2730525473858574e+00 +1.8342967247463719e+01 +3.2768323002265436e+02 +3.8363180151123299e+04 -4.1188197112947993e+05 -2.1839015336186704e+08 
-6.9999999999999996e-01 -1.0319595540821682e+00 +2.2733869762004053e+00 +1.8279637692940053e+01 +3.2163479385261320e+02 +3.9504066976403898e+04 -3.8244943426331872e+05 -2.2381310788762766e+08 
-7.9999999999999993e-01 -1.0319571371436902e+00 +2.2737269240416635e+00 +1.8219757086927547e+01 +3.1543873437432183e+02 +4.0578997894855027e+04 -3.5238697055183287e+05 -2.2891131039219588e+08 
-8.9999999999999991e-01 -1.0319547840254872e+00 +2.2740710726587339e+00 +1.8163092175146502e+01 +3.0913628717946432e+02 +4.1591382061451070e+04 -3.2192276477363339e+05 -2.3369794350590536e+08 
-9.9999999999999989e-01 -1.0319524944049969e+00 +2.2744181038027524e+00 +1.8109409696332328e+01 +3.0276868789808259e+02 +4.2544628768517265e+04 -2.9128500286788208e+05 -2.3818619048434380e+08 
-1.0999999999999999e+00 -1.0319502679596062e+00 +2.2747666992309781e+00 +1.8058476381937563e+01 +2.9637717207789711e+02 +4.3442147438578984e+04 -2.6070187117418877e+05 -2.4238923511335558e+08 
-1.2000000000000000e+00 -1.0319481043666459e+00 +2.2751155407119970e+00 +1.8010058956276957e+01 +2.9000297500544497e+02 +4.4287347612072503e+04 -2.3040155528110894e+05 -2.4632026161148494e+08 
-1.3000000000000000e+00 -1.0319460033033510e+00 +2.2754633100369022e+00 +1.7963924132119164e+01 +2.8368733137425272e+02 +4.5083639014430628e+04 -2.0061223803922461e+05 -2.4999245487712237e+08 
-1.4000000000000001e+00 -1.0319439644468842e+00 +2.2758086890181946e+00 +1.7919838613470478e+01 +2.7747147528149725e+02 +4.5834431496393016e+04 -1.7156209939269663e+05 -2.5341900016947621e+08 
-1.5000000000000002e+00 -1.0319419874742930e+00 +2.2761503595004213e+00 +1.7877569090857254e+01 +2.7139663992723484e+02 +4.6543135108127419e+04 -1.4347931462466580e+05 -2.5661308339556342e+08 
-1.6000000000000003e+00 -1.0319400726865637e+00 +2.2764872211791749e+00 +1.7836947988567157e+01 +2.6549631049881617e+02 +4.7212410246112428e+04 -1.1654738368595685e+05 -2.5958570095929006e+08 
-1.7000000000000004e+00 -1.0319382228846194e+00 +2.2768190463429736e+00 +1.7798067200481601e+01 +2.5977239617461237e+02 +4.7842052417619714e+04 -9.0766803943820312e+04 -2.6233987521832100e+08 
-1.8000000000000005e+00 -1.0319364414960930e+00 +2.2771458259855737e+00 +1.7761082720560943e+01 +2.5421875499892192e+02 +4.8431172937420561e+04 -6.6091181801592305e+04 -2.6487682549029800e+08 
-1.9000000000000006e+00 -1.0319347319486143e+00 +2.2774675510506350e+00 +1.7726150541874489e+01 +2.4882924640817723e+02 +4.8978883164239953e+04 -4.2474132001211408e+04 -2.6719777142815790e+08 
-2.0000000000000004e+00 -1.0319330976696703e+00 +2.2777842124302987e+00 +1.7693426639185841e+01 +2.4359773121985040e+02 +4.9484294840457253e+04 -1.9869277367849056e+04 -2.6930393467788064e+08 
-2.1000000000000005e+00 -1.0319315420866801e+00 +2.2780958009636803e+00 +1.7663066978265345e+01 +2.3851807167409413e+02 +4.9946519914067947e+04 +1.7697509752375645e+03 -2.7119653803941453e+08 
-2.2000000000000006e+00 -1.0319300686270154e+00 +2.2784023074241162e+00 +1.7635227518404005e+01 +2.3358413177910748e+02 +5.0364670502398585e+04 +2.2489311704069172e+04 -2.7287680534430695e+08 
-2.3000000000000007e+00 -1.0319286807179266e+00 +2.2787037225166236e+00 +1.7610064203730303e+01 +2.2878977736745705e+02 +5.0737859055321300e+04 +4.2335753028792788e+04 -2.7434596224023026e+08 
-2.4000000000000008e+00 -1.0319273817865440e+00 +2.2790000368703467e+00 +1.7587732962462809e+01 +2.2412887628533062e+02 +5.1065198377474946e+04 +6.1355411722899655e+04 -2.7560523633165604e+08 
-2.5000000000000009e+00 -1.0319261752599758e+00 +2.2792912410301711e+00 +1.7568389719843527e+01 +2.1959529861554492e+02 +5.1345801386797961e+04 +7.9594611898588220e+04 -2.7665585605948520e+08 
-2.6000000000000010e+00 -1.0319250645651592e+00 +2.2795773254536802e+00 +1.7552190379418484e+01 +2.1518291676162423e+02 +5.1578781475813921e+04 +9.7099664558181204e+04 -2.7749905245107293e+08 
-2.7000000000000011e+00 -1.0319240531289580e+00 +2.2798582805026135e+00 +1.7539290835257116e+01 +2.1088560565668695e+02 +5.1763252277977102e+04 +1.1391686651862148e+05 -2.7813605801374638e+08 
-2.8000000000000012e+00 -1.0319231443781394e+00 +2.2801340964414809e+00 +1.7529846968619314e+01 +2.0669724278568876e+02 +5.1898327745896357e+04 +1.3009250036109168e+05 -2.7856810716862190e+08 
-2.9000000000000012e+00 -1.0319223417393490e+00 +2.2804047634210027e+00 +1.7524014645674665e+01 +2.0261170865045861e+02 +5.1983122190531038e+04 +1.4567283180022068e+05 -2.7879643643756849e+08 
-3.0000000000000013e+00 -1.0319216486391232e+00 +2.2806702714812359e+00 +1.7521949718654461e+01 +1.9862288665742878e+02 +5.2016750265417621e+04 +1.6070411041394100e+05 -2.7882228439841139e+08 
-3.1000000000000014e+00 -1.0319210685038709e+00 +2.2809306105428533e+00 +1.7523808023218308e+01 +1.9472466334233610e+02 +5.1998327027417618e+04 +1.7523256845889328e+05 -2.7864689202100164e+08 
-3.2000000000000015e+00 -1.0319206047599077e+00 +2.2811857703960237e+00 +1.7529745383207125e+01 +1.9091092868750337e+02 +5.1926967841643418e+04 +1.8930441905468522e+05 -2.7827150221210796e+08 
-3.3000000000000016e+00 -1.0319202608334026e+00 +2.2814357406998935e+00 +1.7539917604128881e+01 +1.8717557609810873e+02 +5.1801788517091336e+04 +2.0296585647384528e+05 -2.7769736051282454e+08 
-3.4000000000000017e+00 -1.0319200401503985e+00 +2.2816805109770422e+00 +1.7554480475141229e+01 +1.8351250254857189e+02 +5.1621905271390235e+04 +2.1626305534222876e+05 -2.7692571494881660e+08 
-3.5000000000000018e+00 -1.0319199461368094e+00 +2.2819200706002709e+00 +1.7573589769322513e+01 +1.7991560892913668e+02 +5.1386434726473941e+04 +2.2924216892312790e+05 -2.7595781601081890e+08 
-3.6000000000000019e+00 -1.0319199806265877e+00 +2.2821543582274235e+00 +1.7597330546627340e+01 +1.7638091470169482e+02 +5.1095195309830502e+04 +2.4193756966988172e+05 -2.7479644936718237e+08 
-3.7000000000000020e+00 -1.0319201389992188e+00 +2.2823830592339824e+00 +1.7625495200061586e+01 +1.7291489089473131e+02 +5.0750958564674307e+04 +2.5432212583383892e+05 -2.7345117980573636e+08 
-3.8000000000000020e+00 -1.0319204149937764e+00 +2.2826057832418645e+00 +1.7657799915920542e+01 +1.6952711615804958e+02 +5.0357280121956239e+04 +2.6634973915857816e+05 -2.7193346088072580e+08 
-3.9000000000000021e+00 -1.0319208023491839e+00 +2.2828221399287352e+00 +1.7693960864688471e+01 +1.6622716738286655e+02 +4.9917715901865056e+04 +2.7797432154462399e+05 -2.7025474754774112e+08 
-4.0000000000000018e+00 -1.0319212948042022e+00 +2.2830317390458679e+00 +1.7733694199749319e+01 +1.6302461911002345e+02 +4.9435822135903647e+04 +2.8914979876218556e+05 -2.6842649626572144e+08 
-4.1000000000000014e+00 -1.0319218860974768e+00 +2.2832341904123203e+00 +1.7776716064060508e+01 +1.5992904372089757e+02 +4.8915155234591977e+04 +2.9983010925697914e+05 -2.6646016435314548e+08 
-4.2000000000000011e+00 -1.0319225699674277e+00 +2.2834291039412480e+00 +1.7822742575953036e+01 +1.5695001065511266e+02 +4.8359272059293100e+04 +3.0996920875417854e+05 -2.6436721128210562e+08 
-4.3000000000000007e+00 -1.0319233401523817e+00 +2.2836160896254127e+00 +1.7871489846293560e+01 +1.5409708683519486e+02 +4.7771729588304945e+04 +3.1952106777073251e+05 -2.6215909706543478e+08 
-4.4000000000000004e+00 -1.0319241903904179e+00 +2.2837947575666053e+00 +1.7922673959439965e+01 +1.5137983581912442e+02 +4.7156085274197656e+04 +3.2843967651214992e+05 -2.5984728394176856e+08 
-4.5000000000000000e+00 -1.0319251144195130e+00 +2.2839647179727423e+00 +1.7976010991257606e+01 +1.4880781786008831e+02 +4.6515896703309591e+04 +3.3667904459565727e+05 -2.5744323475757965e+08 
-4.5999999999999996e+00 -1.0319261059774369e+00 +2.2841255811642314e+00 +1.8031216996773725e+01 +1.4639058974429670e+02 +4.5854721819241167e+04 +3.4419320191269915e+05 -2.5495841399556494e+08 
-4.6999999999999993e+00 -1.0319271588018011e+00 +2.2842769575887742e+00 +1.8088008016140272e+01 +1.4413770434262241e+02 +4.5176118813022375e+04 +3.5093620129121223e+05 -2.5240428726215205e+08 
-4.7999999999999989e+00 -1.0319282666299925e+00 +2.2844184578260296e+00 +1.8146100066655382e+01 +1.4205871047746822e+02 +4.4483646266859512e+04 +3.5686211924960971e+05 -2.4979232194288957e+08 
-4.8999999999999986e+00 -1.0319294231992373e+00 +2.2845496925924524e+00 +1.8205209150768038e+01 +1.4016315279723813e+02 +4.3780863001958402e+04 +3.6192505668355990e+05 -2.4713398647857165e+08 
-4.9999999999999982e+00 -1.0319306222465958e+00 +2.2846702727576766e+00 +1.8265051256183238e+01 +1.3846057125622005e+02 +4.3071328068618568e+04 +3.6607914200508368e+05 -2.4444075029179177e+08 
-5.0999999999999979e+00 -1.0319318575088841e+00 +2.2847798093445442e+00 +1.8325342345632009e+01 +1.3696050116294640e+02 +4.2358600941984041e+04 +3.6927853071278235e+05 -2.4172408471982783e+08 
-5.1999999999999975e+00 -1.0319331227227431e+00 +2.2848779135391326e+00 +1.8385798366268361e+01 +1.3567247285401822e+02 +4.1646241336268038e+04 +3.7147740739120258e+05 -2.3899546210730404e+08 
-5.2999999999999972e+00 -1.0319344116246270e+00 +2.2849641967035441e+00 +1.8446135248373597e+01 +1.3460601131939933e+02 +4.0937809223955890e+04 +3.7262998788225203e+05 -2.3626635587955618e+08 
-5.3999999999999968e+00 -1.0319357179507498e+00 +2.2850382703769854e+00 +1.8506068898114005e+01 +1.3377063619525214e+02 +4.0236864980975479e+04 +3.7269051925452374e+05 -2.3354824125333706e+08 
-5.4999999999999964e+00 -1.0319370354371660e+00 +2.2850997462848923e+00 +1.8565315209036477e+01 +1.3317586161351565e+02 +3.9546969162634246e+04 +3.7161327924741490e+05 -2.3085259426090395e+08 
-5.5999999999999961e+00 -1.0319383592541629e+00 +2.2851483684607330e+00 +1.8623668711718036e+01 +1.3282725360915924e+02 +3.8870714641510378e+04 +3.6937146976999514e+05 -2.2818811628248090e+08 
-5.6999999999999957e+00 -1.0319396904492817e+00 +2.2851844570706148e+00 +1.8681248938023920e+01 +1.3271228102175803e+02 +3.8206710414843539e+04 +3.6603439834418369e+05 -2.2555188965537262e+08 
-5.7999999999999954e+00 -1.0319410315775115e+00 +2.2852084882587764e+00 +1.8738259527797688e+01 +1.3281329282431992e+02 +3.7552541946312413e+04 +3.6170055165126378e+05 -2.2293800191196391e+08 
-5.8999999999999950e+00 -1.0319423851939424e+00 +2.2852209380738095e+00 +1.8794904141535604e+01 +1.3311264013316901e+02 +3.6905794334082195e+04 +3.5646840852937481e+05 -2.2034053904665697e+08 
-5.9999999999999947e+00 -1.0319437538537881e+00 +2.2852222824610506e+00 +1.8851386462757965e+01 +1.3359267661317963e+02 +3.6264052247104599e+04 +3.5043643680083007e+05 -2.1775358510220736e+08 
-6.0999999999999943e+00 -1.0319451401122939e+00 +2.2852129972601944e+00 +1.8907910185409804e+01 +1.3423575852291012e+02 +3.5624900180259690e+04 +3.4370309320754709e+05 -2.1517122343019775e+08 
-6.1999999999999940e+00 -1.0319465465249946e+00 +2.2851935581992304e+00 +1.8964679048977739e+01 +1.3502424489328803e+02 +3.4985921759349796e+04 +3.3636682246534684e+05 -2.1258753330399060e+08 
-6.2999999999999936e+00 -1.0319479756474292e+00 +2.2851644408844436e+00 +1.9021896800576538e+01 +1.3594049779425032e+02 +3.4344700488661554e+04 +3.2852605591288075e+05 -2.0999659355522841e+08 
-6.3999999999999932e+00 -1.0319494300353245e+00 +2.2851261208042000e+00 +1.9079767219517020e+01 +1.3696688222554792e+02 +3.3698819266974402e+04 +3.2027921224613622e+05 -2.0739248021809548e+08 
-6.4999999999999929e+00 -1.0319509122445945e+00 +2.2850790733125055e+00 +1.9138494116920203e+01 +1.3808576657595182e+02 +3.3045860402572740e+04 +3.1172469502512255e+05 -2.0476926662427339e+08 
-6.5999999999999925e+00 -1.0319524248312573e+00 +2.2850237736342174e+00 +1.9198281325455056e+01 +1.3927952246681477e+02 +3.2383405809614665e+04 +3.0296089371788007e+05 -2.0212102434223729e+08 
-6.6999999999999922e+00 -1.0319539703515843e+00 +2.2849606968545251e+00 +1.9259332718755662e+01 +1.4053052504090812e+02 +3.1709036631063671e+04 +2.9408618216887460e+05 -1.9944182135585201e+08 
-6.7999999999999918e+00 -1.0319555513619703e+00 +2.2848903179116449e+00 +1.9321852194673880e+01 +1.4182115316554527e+02 +3.1020333567406014e+04 +2.8519891757475841e+05 -1.9672572366163155e+08 
-6.8999999999999915e+00 -1.0319571704190580e+00 +2.2848131116015784e+00 +1.9386043691751741e+01 +1.4313378929237638e+02 +3.0314876555612467e+04 +2.7639744141780864e+05 -1.9396679371654677e+08 
-6.9999999999999911e+00 -1.0319588300796383e+00 +2.2847295525597322e+00 +1.9452111176320802e+01 +1.4445081996195853e+02 +2.9590245022008807e+04 +2.6778007672628836e+05 -1.9115909166355908e+08 
-7.0999999999999908e+00 -1.0319605329007859e+00 +2.2846401152619729e+00 +1.9520258660008075e+01 +1.4575463578309103e+02 +2.8844017541380828e+04 +2.5944512828448383e+05 -1.8829667368301496e+08 
-7.1999999999999904e+00 -1.0319622814397162e+00 +2.2845452740244054e+00 +1.9590690181879605e+01 +1.4702763141677633e+02 +2.8073772185970916e+04 +2.5149088291120221e+05 -1.8537359368428177e+08 
-7.2999999999999901e+00 -1.0319640782539687e+00 +2.2844455029884458e+00 +1.9663609832245381e+01 +1.4825220599190632e+02 +2.7277086061600032e+04 +2.4401560720503278e+05 -1.8238390106397584e+08 
-7.3999999999999897e+00 -1.0319659259012963e+00 +2.2843412761253648e+00 +1.9739221737889437e+01 +1.4941076299106479e+02 +2.6451535601547017e+04 +2.3711754826564359e+05 -1.7932164214110371e+08 
-7.4999999999999893e+00 -1.0319678269397445e+00 +2.2842330672478943e+00 +1.9817730075783679e+01 +1.5048570944126013e+02 +2.5594696237018510e+04 +2.3089494291654529e+05 -1.7618085808491066e+08 
-7.5999999999999890e+00 -1.0319697825625618e+00 +2.2841214384959589e+00 +1.9899238168553300e+01 +1.5145876175327444e+02 +2.4705512306242323e+04 +2.2545141574926145e+05 -1.7296007064600119e+08 
-7.6999999999999886e+00 -1.0319717885298283e+00 +2.2840072896800949e+00 +1.9983441601480695e+01 +1.5231158509381004e+02 +2.3788360302061370e+04 +2.2088483516903064e+05 -1.6967551916282737e+08 
-7.7999999999999883e+00 -1.0319738392596878e+00 +2.2838916001675860e+00 +2.0069934414515490e+01 +1.5302658986044838e+02 +2.2848920493638216e+04 +2.1728446721846404e+05 -1.6634753163028494e+08 
-7.8999999999999879e+00 -1.0319759291706347e+00 +2.2837753494622155e+00 +2.0158310674325982e+01 +1.5358618387324412e+02 +2.1892872763232823e+04 +2.1473958509206021e+05 -1.6299643476553503e+08 
-7.9999999999999876e+00 -1.0319780526814533e+00 +2.2836595172488376e+00 +2.0248164462382572e+01 +1.5397277038509711e+02 +2.0925896949170474e+04 +2.1333948294498422e+05 -1.5964255608175585e+08 
-8.0999999999999872e+00 -1.0319802042111599e+00 +2.2835450834001194e+00 +2.0339089867377826e+01 +1.5416874791020004e+02 +1.9953672997012796e+04 +2.1317347668080093e+05 -1.5630622463696495e+08 
-8.1999999999999869e+00 -1.0319823781791002e+00 +2.2834330279724409e+00 +2.0430680996615834e+01 +1.5415651038844547e+02 +1.8981880746039238e+04 +2.1433090272853459e+05 -1.5300777003395751e+08 
-8.2999999999999865e+00 -1.0319845690049163e+00 +2.2833243312308085e+00 +2.0522531970548236e+01 +1.5391844647970819e+02 +1.8016200049077470e+04 +2.1690112195345777e+05 -1.4976752304324433e+08 
-8.3999999999999861e+00 -1.0319867711085833e+00 +2.2832199736341821e+00 +2.0614236927950536e+01 +1.5343694002978248e+02 +1.7062310665368648e+04 +2.2097351669559738e+05 -1.4660581507687020e+08 
-8.4999999999999858e+00 -1.0319889789103547e+00 +2.2831209358590283e+00 +2.0705390015998461e+01 +1.5269436940832853e+02 +1.6125892477779231e+04 +2.2663749441565073e+05 -1.4354297931049997e+08 
-8.5999999999999854e+00 -1.0319911868308622e+00 +2.2830281987949359e+00 +2.0795585404615171e+01 +1.5167310767918178e+02 +1.5212625206437231e+04 +2.3398248644469582e+05 -1.4059934929150784e+08 
-8.6999999999999851e+00 -1.0319933892910527e+00 +2.2829427435588485e+00 +2.0884417275852453e+01 +1.5035552219334843e+02 +1.4328188628619555e+04 +2.4309795019815766e+05 -1.3779526004065984e+08 
-8.7999999999999847e+00 -1.0319955807122341e+00 +2.2828655514977765e+00 +2.0971479829565531e+01 +1.4872397456847585e+02 +1.3478262478116560e+04 +2.5407336897756075e+05 -1.3515104760653076e+08 
-8.8999999999999844e+00 -1.0319977555160655e+00 +2.2827976041918761e+00 +2.1056367281283666e+01 +1.4676082061792584e+02 +1.2668526488780048e+04 +2.6699825219879096e+05 -1.3268704928582191e+08 
-8.9999999999999840e+00 -1.0319999081245854e+00 +2.2827398834662298e+00 +2.1138673865392800e+01 +1.4444841003000386e+02 +1.1904660341391584e+04 +2.8196213705911947e+05 -1.3042360340074071e+08 
-9.0999999999999837e+00 -1.0320020329601747e+00 +2.2826933713995783e+00 +2.1217993829146138e+01 +1.4176908616355044e+02 +1.1192343786510419e+04 +2.9905458944039035e+05 -1.2838104991704473e+08 
-9.1999999999999833e+00 -1.0320041244456457e+00 +2.2826590503201500e+00 +2.1293921443088031e+01 +1.3870518618211389e+02 +1.0537256453327718e+04 +3.1836520295592037e+05 -1.2657972956226024e+08 
-9.2999999999999829e+00 -1.0320061770041817e+00 +2.2826379028217207e+00 +2.1366050992618202e+01 +1.3523904063638420e+02 +9.9450780166580189e+03 +3.3998360110077570e+05 -1.2503998464501753e+08 
-9.3999999999999826e+00 -1.0320081850593787e+00 +2.2826309117681425e+00 +2.1433976783136846e+01 +1.3135297333659372e+02 +9.4214881044837457e+03 +3.6399943783789821e+05 -1.2378215864260124e+08 
-9.4999999999999822e+00 -1.0320101430351241e+00 +2.2826390602773565e+00 +2.1497293121828566e+01 +1.2702930195405736e+02 +8.9721666594643684e+03 +3.9050238958642393e+05 -1.2282659832797536e+08 
-9.5999999999999819e+00 -1.0320120464615326e+00 +2.2826631528680030e+00 +2.1555690201433354e+01 +1.2225558288786256e+02 +8.6008906196292046e+03 +4.1954871107837092e+05 -1.2218462578277066e+08 
-9.6999999999999815e+00 -1.0320138950945270e+00 +2.2827031186431483e+00 +2.1609237033319893e+01 +1.1704660984047375e+02 +8.3036839511173530e+03 +4.5102707804084482e+05 -1.2182984762457903e+08 
-9.7999999999999812e+00 -1.0320156896791910e+00 +2.2827586233932764e+00 +2.1658094833605105e+01 +1.1142577989959656e+02 +8.0746009180932197e+03 +4.8477405867467297e+05 -1.2172602760448653e+08 
-9.8999999999999808e+00 -1.0320174309602557e+00 +2.2828293331114171e+00 +2.1702424749338753e+01 +1.0541648755589171e+02 +7.9076970440820796e+03 +5.2062622321849753e+05 -1.2183693498718582e+08 
-9.9999999999999805e+00 -1.0320191196822139e+00 +2.2829149140298139e+00 +2.1742387868653559e+01 +9.9042122582795884e+01 +7.7970290873933209e+03 +5.5842015736630908e+05 -1.2212634485087502e+08 
-1.0099999999999980e+01 -1.0320207565892532e+00 +2.2830150326418894e+00 +2.1778145210482329e+01 +9.2326069456621042e+01 +7.7366552412735709e+03 +5.9799246535424003e+05 -1.2255803903072721e+08 
