# trajectory
# s[mm] rx[mm] ry[mm] rz[mm] px[rad] py[rad] pz[rad]
0.0000000000000000e+00 +9.1613000000000007e+00 +0.0000000000000000e+00 +0.0000000000000000e+00 +0.0000000000000000e+00 +0.0000000000000000e+00 +1.0000000000000000e+00
-1.0000000000000001e-01 +9.1612994837035249e+00 +0.0000000000000000e+00 -9.9999999998222927e-02 +1.0325929347201014e-05 +0.0000000000000000e+00 +9.9999999994668765e-01
-2.0000000000000001e-01 +9.1612979348141437e+00 +0.0000000000000000e+00 -1.9999999998578338e-01 +2.0651858273827571e-05 +0.0000000000000000e+00 +9.9999999978675047e-01
-3.0000000000000004e-01 +9.1612953533318517e+00 +0.0000000000000000e+00 -2.9999999995201887e-01 +3.0977787727860180e-05 +0.0000000000000000e+00 +9.9999999952018848e-01
-4.0000000000000002e-01 +9.1612917392565532e+00 +0.0000000000000000e+00 -3.9999999988626689e-01 +4.1303718508213980e-05 +0.0000000000000000e+00 +9.9999999914700155e-01
-5.0000000000000000e-01 +9.1612870925880827e+00 +0.0000000000000000e+00 -4.9999999977786502e-01 +5.1629651264728510e-05 +0.0000000000000000e+00 +9.9999999866718969e-01
-5.9999999999999998e-01 +9.1612814133262166e+00 +0.0000000000000000e+00 -5.9999999961615069e-01 +6.1955586498158252e-05 +0.0000000000000000e+00 +9.9999999808075279e-01
-6.9999999999999996e-01 +9.1612747014706883e+00 +0.0000000000000000e+00 -6.9999999939046142e-01 +7.2281524560164004e-05 +0.0000000000000000e+00 +9.9999999738769074e-01
-7.9999999999999993e-01 +9.1612669570212031e+00 +0.0000000000000000e+00 -7.9999999909013464e-01 +8.2607465653305009e-05 +0.0000000000000000e+00 +9.9999999658800343e-01
-8.9999999999999991e-01 +9.1612581799774535e+00 +0.0000000000000000e+00 -8.9999999870450786e-01 +9.2933409831031890e-05 +0.0000000000000000e+00 +9.9999999568169073e-01
-9.9999999999999989e-01 +9.1612483703391359e+00 +0.0000000000000000e+00 -9.9999999822291863e-01 +1.0325935699768046e-04 +0.0000000000000000e+00 +9.9999999466875267e-01
-1.0999999999999999e+00 +9.1612375281059624e+00 +0.0000000000000000e+00 -1.0999999976347044e+00 +1.1358530690846622e-04 +0.0000000000000000e+00 +9.9999999354918911e-01
-1.2000000000000000e+00 +9.1612256532776755e+00 +0.0000000000000000e+00 -1.1999999969292023e+00 +1.2391125916947967e-04 +0.0000000000000000e+00 +9.9999999232299996e-01
-1.3000000000000000e+00 +9.1612127458540673e+00 +0.0000000000000000e+00 -1.2999999960957502e+00 +1.3423721323768255e-04 +0.0000000000000000e+00 +9.9999999099018533e-01
-1.4000000000000001e+00 +9.1611988058349905e+00 +0.0000000000000000e+00 -1.3999999951236852e+00 +1.4456316842090470e-04 +0.0000000000000000e+00 +9.9999998955074521e-01
-1.5000000000000002e+00 +9.1611838332203739e+00 +0.0000000000000000e+00 -1.4999999940023450e+00 +1.5488912387784181e-04 +0.0000000000000000e+00 +9.9999998800467971e-01
-1.6000000000000003e+00 +9.1611678280102389e+00 +0.0000000000000000e+00 -1.5999999927210669e+00 +1.6521507862473153e-04 +0.0000000000000000e+00 +9.9999998635198895e-01
-1.7000000000000004e+00 +9.1611507902047080e+00 +0.0000000000000000e+00 -1.6999999912691885e+00 +1.7554103160880610e-04 +0.0000000000000000e+00 +9.9999998459267314e-01
-1.8000000000000005e+00 +9.1611327198040104e+00 +0.0000000000000000e+00 -1.7999999896360475e+00 +1.8586698178174818e-04 +0.0000000000000000e+00 +9.9999998272673252e-01
-1.9000000000000006e+00 +9.1611136168084801e+00 +0.0000000000000000e+00 -1.8999999878109810e+00 +1.9619292810637364e-04 +0.0000000000000000e+00 +9.9999998075416741e-01
-2.0000000000000004e+00 +9.1610934812185523e+00 +0.0000000000000000e+00 -1.9999999857833268e+00 +2.0651886955663833e-04 +0.0000000000000000e+00 +9.9999997867497814e-01
-2.1000000000000005e+00 +9.1610723130347651e+00 +0.0000000000000000e+00 -2.0999999835424226e+00 +2.1684480511764622e-04 +0.0000000000000000e+00 +9.9999997648916505e-01
-2.2000000000000006e+00 +9.1610501122577581e+00 +0.0000000000000000e+00 -2.1999999810776059e+00 +2.2717073378565893e-04 +0.0000000000000000e+00 +9.9999997419672859e-01
-2.3000000000000007e+00 +9.1610268788882703e+00 +0.0000000000000000e+00 -2.2999999783782141e+00 +2.3749665456810663e-04 +0.0000000000000000e+00 +9.9999997179766920e-01
-2.4000000000000008e+00 +9.1610026129271400e+00 +0.0000000000000000e+00 -2.3999999754335857e+00 +2.4782256648360040e-04 +0.0000000000000000e+00 +9.9999996929198731e-01
-2.5000000000000009e+00 +9.1609773143753017e+00 +0.0000000000000000e+00 -2.4999999722330579e+00 +2.5814846856194584e-04 +0.0000000000000000e+00 +9.9999996667968349e-01
-2.6000000000000010e+00 +9.1609509832337874e+00 +0.0000000000000000e+00 -2.5999999687659687e+00 +2.6847435984415837e-04 +0.0000000000000000e+00 +9.9999996396075841e-01
-2.7000000000000011e+00 +9.1609236195037251e+00 +0.0000000000000000e+00 -2.6999999650216560e+00 +2.7880023938247939e-04 +0.0000000000000000e+00 +9.9999996113521250e-01
-2.8000000000000012e+00 +9.1608952231863352e+00 +0.0000000000000000e+00 -2.7999999609894575e+00 +2.8912610624039437e-04 +0.0000000000000000e+00 +9.9999995820304644e-01
-2.9000000000000012e+00 +9.1608657942829321e+00 +0.0000000000000000e+00 -2.8999999566587111e+00 +2.9945195949265216e-04 +0.0000000000000000e+00 +9.9999995516426099e-01
-3.0000000000000013e+00 +9.1608353327949210e+00 +0.0000000000000000e+00 -2.9999999520187557e+00 +3.0977779822528547e-04 +0.0000000000000000e+00 +9.9999995201885672e-01
-3.1000000000000014e+00 +9.1608038387238011e+00 +0.0000000000000000e+00 -3.0999999470589286e+00 +3.2010362153563304e-04 +0.0000000000000000e+00 +9.9999994876683440e-01
-3.2000000000000015e+00 +9.1607713120711587e+00 +0.0000000000000000e+00 -3.1999999417685685e+00 +3.3042942853236300e-04 +0.0000000000000000e+00 +9.9999994540819481e-01
-3.3000000000000016e+00 +9.1607377528386689e+00 +0.0000000000000000e+00 -3.2999999361370138e+00 +3.4075521833549778e-04 +0.0000000000000000e+00 +9.9999994194293884e-01
-3.4000000000000017e+00 +9.1607031610280938e+00 +0.0000000000000000e+00 -3.3999999301536024e+00 +3.5108099007644025e-04 +0.0000000000000000e+00 +9.9999993837106727e-01
-3.5000000000000018e+00 +9.1606675366412844e+00 +0.0000000000000000e+00 -3.4999999238076733e+00 +3.6140674289800141e-04 +0.0000000000000000e+00 +9.9999993469258097e-01
-3.6000000000000019e+00 +9.1606308796801734e+00 +0.0000000000000000e+00 -3.5999999170885650e+00 +3.7173247595761983e-04 +0.0000000000000000e+00 +9.9999993090748074e-01
-3.7000000000000020e+00 +9.1605931901467788e+00 +0.0000000000000000e+00 -3.6999999099856158e+00 +3.8205818846248380e-04 +0.0000000000000000e+00 +9.9999992701576756e-01
-3.8000000000000020e+00 +9.1605544680431912e+00 +0.0000000000000000e+00 -3.7999999024881648e+00 +3.9238387970463623e-04 +0.0000000000000000e+00 +9.9999992301744245e-01
-3.9000000000000021e+00 +9.1605147133715672e+00 +0.0000000000000000e+00 -3.8999998945855507e+00 +4.0270954906416426e-04 +0.0000000000000000e+00 +9.9999991891250617e-01
-4.0000000000000018e+00 +9.1604739261341255e+00 +0.0000000000000000e+00 -3.9999998862671124e+00 +4.1303519600919690e-04 +0.0000000000000000e+00 +9.9999991470095972e-01
-4.1000000000000014e+00 +9.1604321063331273e+00 +0.0000000000000000e+00 -4.0999998775221886e+00 +4.2336082009590179e-04 +0.0000000000000000e+00 +9.9999991038280389e-01
-4.2000000000000011e+00 +9.1603892539708802e+00 +0.0000000000000000e+00 -4.1999998683401190e+00 +4.3368642096848096e-04 +0.0000000000000000e+00 +9.9999990595803967e-01
-4.3000000000000007e+00 +9.1603453690497165e+00 +0.0000000000000000e+00 -4.2999998587102430e+00 +4.4401199835916613e-04 +0.0000000000000000e+00 +9.9999990142666773e-01
-4.4000000000000004e+00 +9.1603004515719970e+00 +0.0000000000000000e+00 -4.3999998486218992e+00 +4.5433755208821274e-04 +0.0000000000000000e+00 +9.9999989678868895e-01
-4.5000000000000000e+00 +9.1602545015400914e+00 +0.0000000000000000e+00 -4.4999998380644275e+00 +4.6466308206389342e-04 +0.0000000000000000e+00 +9.9999989204410411e-01
-4.5999999999999996e+00 +9.1602075189563763e+00 +0.0000000000000000e+00 -4.5999998270271671e+00 +4.7498858828249040e-04 +0.0000000000000000e+00 +9.9999988719291399e-01
-4.6999999999999993e+00 +9.1601595038232233e+00 +0.0000000000000000e+00 -4.6999998154994573e+00 +4.8531407082828734e-04 +0.0000000000000000e+00 +9.9999988223511926e-01
-4.7999999999999989e+00 +9.1601104561429931e+00 +0.0000000000000000e+00 -4.7999998034706373e+00 +4.9563952987355994e-04 +0.0000000000000000e+00 +9.9999987717072059e-01
-4.8999999999999986e+00 +9.1600603759180235e+00 +0.0000000000000000e+00 -4.8999997909300479e+00 +5.0596496567856600e-04 +0.0000000000000000e+00 +9.9999987199971851e-01
-4.9999999999999982e+00 +9.1600092631506200e+00 +0.0000000000000000e+00 -4.9999997778670275e+00 +5.1629037859153451e-04 +0.0000000000000000e+00 +9.9999986672211361e-01
-5.0999999999999979e+00 +9.1599571178430530e+00 +0.0000000000000000e+00 -5.0999997642709172e+00 +5.2661576904865389e-04 +0.0000000000000000e+00 +9.9999986133790630e-01
-5.1999999999999975e+00 +9.1599039399975410e+00 +0.0000000000000000e+00 -5.1999997501310560e+00 +5.3694113757405944e-04 +0.0000000000000000e+00 +9.9999985584709705e-01
-5.2999999999999972e+00 +9.1598497296162478e+00 +0.0000000000000000e+00 -5.2999997354367832e+00 +5.4726648477981983e-04 +0.0000000000000000e+00 +9.9999985024968618e-01
-5.3999999999999968e+00 +9.1597944867012711e+00 +0.0000000000000000e+00 -5.3999997201774397e+00 +5.5759181136592288e-04 +0.0000000000000000e+00 +9.9999984454567392e-01
-5.4999999999999964e+00 +9.1597382112546342e+00 +0.0000000000000000e+00 -5.4999997043423647e+00 +5.6791711812026024e-04 +0.0000000000000000e+00 +9.9999983873506049e-01
-5.5999999999999961e+00 +9.1596809032782787e+00 +0.0000000000000000e+00 -5.5999996879208984e+00 +5.7824240591323973e-04 +0.0000000000000000e+00 +9.9999983281784599e-01
-5.6999999999999957e+00 +9.1596225627740537e+00 +0.0000000000000000e+00 -5.6999996709023808e+00 +5.8856767563868109e-04 +0.0000000000000000e+00 +9.9999982679403054e-01
-5.7999999999999954e+00 +9.1595631897437233e+00 +0.0000000000000000e+00 -5.7999996532761511e+00 +5.9889292815472317e-04 +0.0000000000000000e+00 +9.9999982066361415e-01
-5.8999999999999950e+00 +9.1595027841889678e+00 +0.0000000000000000e+00 -5.8999996350315502e+00 +6.0921816427845664e-04 +0.0000000000000000e+00 +9.9999981442659691e-01
-5.9999999999999947e+00 +9.1594413461113877e+00 +0.0000000000000000e+00 -5.9999996161579174e+00 +6.1954338478592921e-04 +0.0000000000000000e+00 +9.9999980808297873e-01
-6.0999999999999943e+00 +9.1593788755125072e+00 +0.0000000000000000e+00 -6.0999995966445928e+00 +6.2986859041215136e-04 +0.0000000000000000e+00 +9.9999980163275970e-01
-6.1999999999999940e+00 +9.1593153723937792e+00 +0.0000000000000000e+00 -6.1999995764809164e+00 +6.4019378185110149e-04 +0.0000000000000000e+00 +9.9999979507593983e-01
-6.2999999999999936e+00 +9.1592508367565895e+00 +0.0000000000000000e+00 -6.2999995556562274e+00 +6.5051895975573181e-04 +0.0000000000000000e+00 +9.9999978841251913e-01
-6.3999999999999932e+00 +9.1591852686022595e+00 +0.0000000000000000e+00 -6.3999995341598668e+00 +6.6084412473797424e-04 +0.0000000000000000e+00 +9.9999978164249759e-01
-6.4999999999999929e+00 +9.1591186679320540e+00 +0.0000000000000000e+00 -6.4999995119811738e+00 +6.7116927736874646e-04 +0.0000000000000000e+00 +9.9999977476587520e-01
-6.5999999999999925e+00 +9.1590510347471810e+00 +0.0000000000000000e+00 -6.5999994891094884e+00 +6.8149441817795802e-04 +0.0000000000000000e+00 +9.9999976778265209e-01
-6.6999999999999922e+00 +9.1589823690487968e+00 +0.0000000000000000e+00 -6.6999994655341508e+00 +6.9181954765451656e-04 +0.0000000000000000e+00 +9.9999976069282814e-01
-6.7999999999999918e+00 +9.1589126708380135e+00 +0.0000000000000000e+00 -6.7999994412445011e+00 +7.0214466624633461e-04 +0.0000000000000000e+00 +9.9999975349640347e-01
-6.8999999999999915e+00 +9.1588419401158969e+00 +0.0000000000000000e+00 -6.8999994162298783e+00 +7.1246977436033602e-04 +0.0000000000000000e+00 +9.9999974619337817e-01
-6.9999999999999911e+00 +9.1587701768834773e+00 +0.0000000000000000e+00 -6.9999993904796236e+00 +7.2279487236246278e-04 +0.0000000000000000e+00 +9.9999973878375215e-01
-7.0999999999999908e+00 +9.1586973811417494e+00 +0.0000000000000000e+00 -7.0999993639830761e+00 +7.3311996057768213e-04 +0.0000000000000000e+00 +9.9999973126752562e-01
-7.1999999999999904e+00 +9.1586235528916777e+00 +0.0000000000000000e+00 -7.1999993367295758e+00 +7.4344503928999337e-04 +0.0000000000000000e+00 +9.9999972364469858e-01
-7.2999999999999901e+00 +9.1585486921342003e+00 +0.0000000000000000e+00 -7.2999993087084629e+00 +7.5377010874243559e-04 +0.0000000000000000e+00 +9.9999971591527126e-01
-7.3999999999999897e+00 +9.1584727988702319e+00 +0.0000000000000000e+00 -7.3999992799090766e+00 +7.6409516913709464e-04 +0.0000000000000000e+00 +9.9999970807924365e-01
-7.4999999999999893e+00 +9.1583958731006696e+00 +0.0000000000000000e+00 -7.4999992503207578e+00 +7.7442022063511104e-04 +0.0000000000000000e+00 +9.9999970013661599e-01
-7.5999999999999890e+00 +9.1583179148263980e+00 +0.0000000000000000e+00 -7.5999992199328466e+00 +7.8474526335767182e-04 +0.0000000000000000e+00 +9.9999969208738837e-01
-7.6999999999999886e+00 +9.1582389240482875e+00 +0.0000000000000000e+00 -7.6999991887346821e+00 +7.9507029739684439e-04 +0.0000000000000000e+00 +9.9999968393156113e-01
-7.7999999999999883e+00 +9.1581589007672051e+00 +0.0000000000000000e+00 -7.7999991567156055e+00 +8.0539532282640415e-04 +0.0000000000000000e+00 +9.9999967566913439e-01
-7.8999999999999879e+00 +9.1580778449840068e+00 +0.0000000000000000e+00 -7.8999991238649558e+00 +8.1572033970281625e-04 +0.0000000000000000e+00 +9.9999966730010836e-01
-7.9999999999999876e+00 +9.1579957566995471e+00 +0.0000000000000000e+00 -7.9999990901720741e+00 +8.2604534806523220e-04 +0.0000000000000000e+00 +9.9999965882448327e-01
-8.0999999999999872e+00 +9.1579126359146770e+00 +0.0000000000000000e+00 -8.0999990556263004e+00 +8.3637034793548665e-04 +0.0000000000000000e+00 +9.9999965024225934e-01
-8.1999999999999869e+00 +9.1578284826302436e+00 +0.0000000000000000e+00 -8.1999990202169730e+00 +8.4669533931809354e-04 +0.0000000000000000e+00 +9.9999964155343690e-01
-8.2999999999999865e+00 +9.1577432968470962e+00 +0.0000000000000000e+00 -8.2999989839334347e+00 +8.5702032220024251e-04 +0.0000000000000000e+00 +9.9999963275801618e-01
-8.3999999999999861e+00 +9.1576570785660873e+00 +0.0000000000000000e+00 -8.3999989467650238e+00 +8.6734529655179467e-04 +0.0000000000000000e+00 +9.9999962385599750e-01
-8.4999999999999858e+00 +9.1575698277880715e+00 +0.0000000000000000e+00 -8.4999989087010803e+00 +8.7767026232527846e-04 +0.0000000000000000e+00 +9.9999961484738109e-01
-8.5999999999999854e+00 +9.1574815445139102e+00 +0.0000000000000000e+00 -8.5999988697309462e+00 +8.8799521945588514e-04 +0.0000000000000000e+00 +9.9999960573216728e-01
-8.6999999999999851e+00 +9.1573922287444720e+00 +0.0000000000000000e+00 -8.6999988298439614e+00 +8.9832016786146440e-04 +0.0000000000000000e+00 +9.9999959651035653e-01
-8.7999999999999847e+00 +9.1573018804806328e+00 +0.0000000000000000e+00 -8.7999987890294644e+00 +9.0864510744251932e-04 +0.0000000000000000e+00 +9.9999958718194903e-01
-8.8999999999999844e+00 +9.1572104997232806e+00 +0.0000000000000000e+00 -8.8999987472767970e+00 +9.1897003808220131e-04 +0.0000000000000000e+00 +9.9999957774694526e-01
-8.9999999999999840e+00 +9.1571180864733179e+00 +0.0000000000000000e+00 -8.9999987045752992e+00 +9.2929495964630502e-04 +0.0000000000000000e+00 +9.9999956820534563e-01
-9.0999999999999837e+00 +9.1570246407316596e+00 +0.0000000000000000e+00 -9.0999986609143129e+00 +9.3961987198326277e-04 +0.0000000000000000e+00 +9.9999955855715050e-01
-9.1999999999999833e+00 +9.1569301624992345e+00 +0.0000000000000000e+00 -9.1999986162831764e+00 +9.4994477492413906e-04 +0.0000000000000000e+00 +9.9999954880236031e-01
-9.2999999999999829e+00 +9.1568346517769932e+00 +0.0000000000000000e+00 -9.2999985706712316e+00 +9.6026966828262447e-04 +0.0000000000000000e+00 +9.9999953894097560e-01
-9.3999999999999826e+00 +9.1567381085659036e+00 +0.0000000000000000e+00 -9.3999985240678186e+00 +9.7059455185502996e-04 +0.0000000000000000e+00 +9.9999952897299682e-01
-9.4999999999999822e+00 +9.1566405328669553e+00 +0.0000000000000000e+00 -9.4999984764622774e+00 +9.8091942542028040e-04 +0.0000000000000000e+00 +9.9999951889842453e-01
-9.5999999999999819e+00 +9.1565419246811608e+00 +0.0000000000000000e+00 -9.5999984278439499e+00 +9.9124428874022255e-04 +0.0000000000000000e+00 +9.9999950871725918e-01
-9.6999999999999815e+00 +9.1564422840095574e+00 +0.0000000000000000e+00 -9.6999983782021761e+00 +1.0015691415630819e-03 +0.0000000000000000e+00 +9.9999949842950142e-01
-9.7999999999999812e+00 +9.1563416108532074e+00 +0.0000000000000000e+00 -9.7999983275262963e+00 +1.0118939836269336e-03 +0.0000000000000000e+00 +9.9999948803515182e-01
-9.8999999999999808e+00 +9.1562399052131997e+00 +0.0000000000000000e+00 -9.8999982758056522e+00 +1.0222188146600368e-03 +0.0000000000000000e+00 +9.9999947753421092e-01
-9.9999999999999805e+00 +9.1561371670906517e+00 +0.0000000000000000e+00 -9.9999982230295856e+00 +1.0325436343808542e-03 +0.0000000000000000e+00 +9.9999946692667940e-01
-1.0099999999999980e+01 +9.1560333964867091e+00 +0.0000000000000000e+00 -1.0099998169187435e+01 +1.0428684424980740e-03 +0.0000000000000000e+00 +9.9999945621255792e-01
-1.0199999999999980e+01 +9.1559285934025478e+00 +0.0000000000000000e+00 -1.0199998114268544e+01 +1.0531932387106307e-03 +0.0000000000000000e+00 +9.9999944539184715e-01
-1.0299999999999979e+01 +9.1558227578393740e+00 +0.0000000000000000e+00 -1.0299998058262252e+01 +1.0635180227077273e-03 +0.0000000000000000e+00 +9.9999943446454775e-01
-1.0399999999999979e+01 +9.1557158897984241e+00 +0.0000000000000000e+00 -1.0399998001157901e+01 +1.0738427941688574e-03 +0.0000000000000000e+00 +9.9999942343066051e-01
-1.0499999999999979e+01 +9.1556079892809681e+00 +0.0000000000000000e+00 -1.0499997942944830e+01 +1.0841675527638284e-03 +0.0000000000000000e+00 +9.9999941229018607e-01
-1.0599999999999978e+01 +9.1554990562883116e+00 +0.0000000000000000e+00 -1.0599997883612383e+01 +1.0944922981527844e-03 +0.0000000000000000e+00 +9.9999940104312524e-01
-1.0699999999999978e+01 +9.1553890908217905e+00 +0.0000000000000000e+00 -1.0699997823149902e+01 +1.1048170299862302e-03 +0.0000000000000000e+00 +9.9999938968947888e-01
-1.0799999999999978e+01 +9.1552780928827779e+00 +0.0000000000000000e+00 -1.0799997761546726e+01 +1.1151417479050559e-03 +0.0000000000000000e+00 +9.9999937822924778e-01
-1.0899999999999977e+01 +9.1551660624726843e+00 +0.0000000000000000e+00 -1.0899997698792198e+01 +1.1254664515405611e-03 +0.0000000000000000e+00 +9.9999936666243272e-01
-1.0999999999999977e+01 +9.1550529995929573e+00 +0.0000000000000000e+00 -1.0999997634875660e+01 +1.1357911405144808e-03 +0.0000000000000000e+00 +9.9999935498903458e-01
-1.1099999999999977e+01 +9.1549389042450819e+00 +0.0000000000000000e+00 -1.1099997569786453e+01 +1.1461158144390109e-03 +0.0000000000000000e+00 +9.9999934320905426e-01
-1.1199999999999976e+01 +9.1548237764305842e+00 +0.0000000000000000e+00 -1.1199997503513918e+01 +1.1564404729168343e-03 +0.0000000000000000e+00 +9.9999933132249275e-01
-1.1299999999999976e+01 +9.1547076161510272e+00 +0.0000000000000000e+00 -1.1299997436047398e+01 +1.1667651155411480e-03 +0.0000000000000000e+00 +9.9999931932935093e-01
-1.1399999999999975e+01 +9.1545904234080187e+00 +0.0000000000000000e+00 -1.1399997367376235e+01 +1.1770897418956899e-03 +0.0000000000000000e+00 +9.9999930722962982e-01
-1.1499999999999975e+01 +9.1544721982032051e+00 +0.0000000000000000e+00 -1.1499997297489772e+01 +1.1874143515547672e-03 +0.0000000000000000e+00 +9.9999929502333040e-01
-1.1599999999999975e+01 +9.1543529405382777e+00 +0.0000000000000000e+00 -1.1599997226377349e+01 +1.1977389440868940e-03 +0.0000000000000000e+00 +9.9999928271045369e-01
-1.1699999999999974e+01 +9.1542326504149720e+00 +0.0000000000000000e+00 -1.1699997154028310e+01 +1.2080635190945261e-03 +0.0000000000000000e+00 +9.9999927029100066e-01
