# multipoles
# s[mm] polynom_b[n=0][T/m^n] polynom_b[n=1][T/m^n] polynom_b[n=2][T/m^n] polynom_b[n=3][T/m^n] polynom_b[n=4][T/m^n] polynom_b[n=5][T/m^n] polynom_b[n=6][T/m^n] 
+0.0000000000000000e+00 -1.0330048708888133e+00 +2.2778393539551187e+00 +2.1042860719429534e+01 +8.0463878553953137e+01 -2.7335802699017248e+04 +8.7247428925538005e+05 +1.7117169444976166e+08 
-1.0000000000000001e-01 -1.0330019111627049e+00 +2.2773936070864051e+00 +2.0853264168738868e+01 +9.8313166078277519e+01 -2.4344036347212499e+04 +7.6030103769246384e+05 +1.5736113083815351e+08 
-2.0000000000000001e-01 -1.0329989726095394e+00 +2.2769539308243374e+00 +2.0661617730040565e+01 +1.1598564744294306e+02 -2.1297653321975245e+04 +6.4921225121112831e+05 +1.4323554714209852e+08 
-3.0000000000000004e-01 -1.0329960595768761e+00 +2.2765185005254240e+00 +2.0468362611165343e+01 +1.3352980532326634e+02 -1.8205502261758062e+04 +5.3891967681921402e+05 +1.2883901772140510e+08 
-4.0000000000000002e-01 -1.0329931764123768e+00 +2.2760854915365716e+00 +2.0273940035576938e+01 +1.5099412249230960e+02 -1.5076432145863299e+04 +4.2913506228706095e+05 +1.1421561873942934e+08 
-5.0000000000000000e-01 -1.0329903274636798e+00 +2.2756530791906857e+00 +2.0078791226019867e+01 +1.6842708194239370e+02 -1.1919291975549775e+04 +3.1957015539359627e+05 +9.9409426631426305e+07 
-5.9999999999999998e-01 -1.0329875170784439e+00 +2.2752194388073028e+00 +1.9883357410723420e+01 +1.8587716690893632e+02 -8.7429309022962552e+03 +2.0993670362447063e+05 +8.4464518756873980e+07 
-6.9999999999999996e-01 -1.0329847496042965e+00 +2.2747827456850849e+00 +1.9688079816710299e+01 +2.0339286104458324e+02 -5.5561980946537442e+03 +9.9946453226980462e+04 +6.9424972753367692e+07 
-7.9999999999999993e-01 -1.0329820293887781e+00 +2.2743411751116192e+00 +1.9493399663718684e+01 +2.2102264819240460e+02 -2.3679426302703305e+03 -1.0688849694143564e+04 +5.4334866057524227e+07 
-8.9999999999999991e-01 -1.0329793607793769e+00 +2.2738929023519092e+00 +1.9299758167770523e+01 +2.3881501269836045e+02 +8.1298643825195393e+02 -1.2225746098232063e+05 +3.9238276222045414e+07 
-9.9999999999999989e-01 -1.0329767481234351e+00 +2.2734361026558245e+00 +1.9107596530859688e+01 +2.5681843921623800e+02 +3.9777402736966296e+03 -2.3504763740652803e+05 +2.4179280033550885e+07 
-1.0999999999999999e+00 -1.0329741957681442e+00 +2.2729689512525413e+00 +1.8917355939740553e+01 +2.7508141287254261e+02 +7.1174702781269034e+03 -3.4934763769252063e+05 +9.2019534082477000e+06 
-1.2000000000000000e+00 -1.0329717080604894e+00 +2.2724896233488669e+00 +1.8729477558857173e+01 +2.9365241932176195e+02 +1.0223328229482326e+04 -4.6544572291240189e+05 -5.6496292559865229e+06 
-1.3000000000000000e+00 -1.0329692893472693e+00 +2.2719962941292975e+00 +1.8544402533996848e+01 +3.1257994476206818e+02 +1.3286466203085853e+04 -5.8363015667712118e+05 -2.0331394670071661e+07 
-1.4000000000000001e+00 -1.0329669439750651e+00 +2.2714871387598112e+00 +1.8362571987920102e+01 +3.3191247581964092e+02 +1.6298036657638817e+04 -7.0418920450776699e+05 -3.4799271062994964e+07 
-1.5000000000000002e+00 -1.0329646762901004e+00 +2.2709603323736443e+00 +1.8184427003433061e+01 +3.5169849998278460e+02 +1.9249192752325460e+04 -8.2741113644595665e+05 -4.9009189662823915e+07 
-1.6000000000000003e+00 -1.0329624890060034e+00 +2.2704143293846761e+00 +1.8010275484669798e+01 +3.7197827579835661e+02 +2.2133620093474139e+04 -9.5352945997261547e+05 -6.2929111703348763e+07 
-1.7000000000000004e+00 -1.0329603783199151e+00 +2.2698487307115385e+00 +1.7839889312432849e+01 +3.9275799933167070e+02 +2.4955250427009534e+04 -1.0825520246243842e+06 -7.6575958371205583e+07 
-1.8000000000000005e+00 -1.0329583388029762e+00 +2.2692634315170674e+00 +1.7672905459365097e+01 +4.1403505234271313e+02 +2.7720608193039050e+04 -1.2144285141378324e+06 -8.9979111817149594e+07 
-1.9000000000000006e+00 -1.0329563650261779e+00 +2.2686583269677922e+00 +1.7508960885546252e+01 +4.3580681635089263e+02 +3.0436217995706862e+04 -1.3491086103272585e+06 -1.0316795472505876e+08 
-2.0000000000000004e+00 -1.0329544515603200e+00 +2.2680333122416716e+00 +1.7347692534699824e+01 +4.5807067238248442e+02 +3.3108604666060550e+04 -1.4865419915848407e+06 -1.1617187060004674e+08 
-2.1000000000000005e+00 -1.0329525929761316e+00 +2.2673882825275338e+00 +1.7188737347779224e+01 +4.8082400101982739e+02 +3.5744293011103888e+04 -1.6266783332944321e+06 -1.2902024260035641e+08 
-2.2000000000000006e+00 -1.0329507838441550e+00 +2.2667231330262636e+00 +1.7031732251177196e+01 +5.0406418233396897e+02 +3.8349808021565339e+04 -1.7694673073823827e+06 -1.4174245449723357e+08 
-2.3000000000000007e+00 -1.0329490187347798e+00 +2.2660377589600187e+00 +1.6876314158389608e+01 +5.2778859564481195e+02 +4.0931674852262789e+04 -1.9148585810477312e+06 -1.5436789061996031e+08 
-2.4000000000000008e+00 -1.0329472922183001e+00 +2.2653320555707284e+00 +1.6722119980579958e+01 +5.5199461954311448e+02 +4.3496418600813980e+04 -2.0628018168517684e+06 -1.6692593476125982e+08 
-2.5000000000000009e+00 -1.0329455988648195e+00 +2.2646059181218039e+00 +1.6568786612559308e+01 +5.7667963184013001e+02 +4.6050564588401576e+04 -2.2132466724710520e+06 -1.7944597156356993e+08 
-2.6000000000000010e+00 -1.0329439332443355e+00 +2.2638592419118648e+00 +1.6415950945043196e+01 +6.0184100917706019e+02 +4.8600638109739040e+04 -2.3661427984814895e+06 -1.9195738529046011e+08 
-2.7000000000000011e+00 -1.0329422899267131e+00 +2.2630919222575336e+00 +1.6263249861483050e+01 +6.2747612751968802e+02 +5.1153164495245946e+04 -2.5214398412566981e+06 -2.0448956014085475e+08 
-2.8000000000000012e+00 -1.0329406634816449e+00 +2.2623038545218361e+00 +1.6110320233002135e+01 +6.5358236132706134e+02 +5.3714669207868021e+04 -2.6790874381534928e+06 -2.1707188072317749e+08 
-2.9000000000000012e+00 -1.0329390484787417e+00 +2.2614949340968424e+00 +1.5956798930471313e+01 +6.8015708405362739e+02 +5.6291677603065007e+04 -2.8390352204655758e+06 -2.2973373089307249e+08 
-3.0000000000000013e+00 -1.0329374394874051e+00 +2.2606650564156121e+00 +1.5802322808484595e+01 +7.0719766781243413e+02 +5.8890715236844379e+04 -3.0012328115241621e+06 -2.4250449524079743e+08 
-3.1000000000000014e+00 -1.0329358310769783e+00 +2.2598141169565689e+00 +1.5646528725157708e+01 +7.3470148322758291e+02 +6.1518307479017720e+04 -3.1656298258211482e+06 -2.5541355723184243e+08 
-3.2000000000000015e+00 -1.0329342178166234e+00 +2.2589420112406975e+00 +1.5489053526732784e+01 +7.6266589953456071e+02 +6.4180979810355529e+04 -3.3321758696877169e+06 -2.6849030064849889e+08 
-3.3000000000000016e+00 -1.0329325942753955e+00 +2.2580486348449114e+00 +1.5329534057074563e+01 +7.9108828417790653e+02 +6.6885257632939989e+04 -3.5008205389499357e+06 -2.8176410866769588e+08 
-3.4000000000000017e+00 -1.0329309550221895e+00 +2.2571338833905368e+00 +1.5167607151539631e+01 +8.1996600313153533e+02 +6.9637666387162812e+04 -3.6715134207772696e+06 -2.9526436443291044e+08 
-3.5000000000000018e+00 -1.0329292946258066e+00 +2.2561976525623764e+00 +1.5002909646375088e+01 +8.4929642037199721e+02 +7.2444731360757258e+04 -3.8442040910018575e+06 -3.0902045014457804e+08 
-3.6000000000000019e+00 -1.0329276095889561e+00 +2.2552403001460415e+00 +1.4835206746716242e+01 +8.7906596508486257e+02 +7.5310788930075068e+04 -4.0187913757445426e+06 -3.2305188387186253e+08 
-3.7000000000000020e+00 -1.0329259041618870e+00 +2.2542640059796306e+00 +1.4664758893471298e+01 +9.0921856717548678e+02 +7.8231854034496529e+04 -4.1949782498887004e+06 -3.3734072559388715e+08 
-3.8000000000000020e+00 -1.0329241845376833e+00 +2.2532714002137788e+00 +1.4491946262484566e+01 +9.3968780633962353e+02 +8.1201958132651460e+04 -4.3724204050457636e+06 -3.5186010975493169e+08 
-3.9000000000000021e+00 -1.0329224569099376e+00 +2.2522651129349991e+00 +1.4317149087751709e+01 +9.7040726372349263e+02 +8.4215131675785524e+04 -4.5507735413830094e+06 -3.6658316637846828e+08 
-4.0000000000000018e+00 -1.0329207274726655e+00 +2.2512477741745922e+00 +1.4140747650219280e+01 +1.0013105216279776e+03 +8.7265404330561869e+04 -4.7296933657419272e+06 -3.8148302217383611e+08 
-4.1000000000000014e+00 -1.0329190024203974e+00 +2.2502220138970870e+00 +1.3963122288529215e+01 +1.0323311638132375e+03 +9.0346804787685425e+04 -4.9088355933993123e+06 -3.9653279966995782e+08 
-4.2000000000000011e+00 -1.0329172879482671e+00 +2.2491904619940755e+00 +1.3784653409048802e+01 +1.0634027756547862e+03 +9.3453360585216127e+04 -5.0878559489724413e+06 -4.1170561641853887e+08 
-4.3000000000000007e+00 -1.0329155902519063e+00 +2.2481557482820360e+00 +1.3605721471982799e+01 +1.0944589442077045e+03 +9.6579098380526993e+04 -5.2664101668794928e+06 -4.2697458631793660e+08 
-4.4000000000000004e+00 -1.0329139155276468e+00 +2.2471205025011209e+00 +1.3426707015551200e+01 +1.1254332582100042e+03 +9.9718043508231887e+04 -5.4441539913316406e+06 -4.4231281756457543e+08 
-4.5000000000000000e+00 -1.0329122699724200e+00 +2.2460873543037256e+00 +1.3247990643319891e+01 +1.1562593083917768e+03 +1.0286422022456059e+05 -5.6207431781388884e+06 -4.5769341383270043e+08 
-4.5999999999999996e+00 -1.0329106597838982e+00 +2.2450589332560376e+00 +1.3069953040468761e+01 +1.1868706874221848e+03 +1.0601165141583656e+05 -5.7958334944569431e+06 -4.7308947294406825e+08 
-4.6999999999999993e+00 -1.0329090911604604e+00 +2.2440378688270051e+00 +1.2892974968813553e+01 +1.2172009902198745e+03 +1.0915435870461493e+05 -5.9690807206303990e+06 -4.8847408741037154e+08 
-4.7999999999999989e+00 -1.0329075703012114e+00 +2.2430267903898389e+00 +1.2717437268197221e+01 +1.2471838138598478e+03 +1.1228636243350006e+05 -6.1401406495891185e+06 -5.0382034439169061e+08 
-4.8999999999999986e+00 -1.0329061034061588e+00 +2.2420283272144581e+00 +1.2543720878700878e+01 +1.2767527578085799e+03 +1.1540168124993326e+05 -6.3086690883191768e+06 -5.1910132374724948e+08 
-4.9999999999999982e+00 -1.0329046966760609e+00 +2.2410451084594620e+00 +1.2372206819518981e+01 +1.3058414241164410e+03 +1.1849433252984968e+05 -6.4743218589582769e+06 -5.3429010012032747e+08 
-5.0999999999999979e+00 -1.0329033563125645e+00 +2.2400797631784437e+00 +1.2203276206140760e+01 +1.3343834172270210e+03 +1.2155833205538958e+05 -6.6367547977151750e+06 -5.4935974142256594e+08 
-5.1999999999999975e+00 -1.0329020885182589e+00 +2.2391349203001689e+00 +1.2037310256184302e+01 +1.3623123445364652e+03 +1.2458769391755566e+05 -6.7956237581715826e+06 -5.6428330841475928e+08 
-5.2999999999999972e+00 -1.0329008994966675e+00 +2.2382132086356052e+00 +1.1874690287587493e+01 +1.3895618161535804e+03 +1.2757643056214129e+05 -6.9505846098385155e+06 -5.7903385496636736e+08 
-5.3999999999999968e+00 -1.0328997954522861e+00 +2.2373172568679083e+00 +1.1715797722464776e+01 +1.4160654451981025e+03 +1.3051855272757876e+05 -7.1012932399951527e+06 -5.9358442779478741e+08 
-5.4999999999999964e+00 -1.0328987825906462e+00 +2.2364496935503202e+00 +1.1561014094239111e+01 +1.4417568477705654e+03 +1.3340806931458745e+05 -7.2474055536124185e+06 -6.0790806588830864e+08 
-5.5999999999999961e+00 -1.0328978660097905e+00 +2.2356128308180789e+00 +1.1410695765733976e+01 +1.4665770522186751e+03 +1.3623888804739027e+05 -7.3886150148331206e+06 -6.2197630801856887e+08 
-5.6999999999999957e+00 -1.0328970462083313e+00 +2.2348076109624535e+00 +1.1265096954053888e+01 +1.4905001399451542e+03 +1.3900446050026183e+05 -7.5247830349632083e+06 -6.3575436609992969e+08 
-5.7999999999999954e+00 -1.0328963224902841e+00 +2.2340346065105936e+00 +1.1124446053045197e+01 +1.5135093416877744e+03 +1.4169810473315389e+05 -7.6558175871568890e+06 -6.4920575409245479e+08 
-5.8999999999999950e+00 -1.0328956941601874e+00 +2.2332943899770945e+00 +1.0988971518636935e+01 +1.5355878898362580e+03 +1.4431313772556290e+05 -7.7816266593432156e+06 -6.6229398131652141e+08 
-5.9999999999999947e+00 -1.0328951605230703e+00 +2.2325875338793035e+00 +1.0858901863747791e+01 +1.5567190180156103e+03 +1.4684287549433042e+05 -7.9021182526177252e+06 -6.7498255302335274e+08 
-6.0999999999999943e+00 -1.0328947208844370e+00 +2.2319146107383987e+00 +1.0734465657809933e+01 +1.5768859611039020e+03 +1.4928063309413419e+05 -8.0172003815455306e+06 -6.8723497037433600e+08 
-6.1999999999999940e+00 -1.0328943745503438e+00 +2.2312761930754088e+00 +1.0615891533925442e+01 +1.5960719554245002e+03 +1.5161972449806446e+05 -8.1267810755513078e+06 -6.9901472992360854e+08 
-6.2999999999999936e+00 -1.0328941208273776e+00 +2.2306728534187346e+00 +1.0503408188184002e+01 +1.6142602386077899e+03 +1.5385346260214745e+05 -8.2307683783987667e+06 -7.1028532361948359e+08 
-6.3999999999999932e+00 -1.0328939590226085e+00 +2.2301051643025818e+00 +1.0397244371964502e+01 +1.6314340496777088e+03 +1.5597515938297045e+05 -8.3290703488635104e+06 -7.2101023958798397e+08 
-6.4999999999999929e+00 -1.0328938884437089e+00 +2.2295736982711691e+00 +1.0297628908381823e+01 +1.6475766290145518e+03 +1.5797812558013044e+05 -8.4215950608125255e+06 -7.3115296061568046e+08 
-6.5999999999999925e+00 -1.0328939083988689e+00 +2.2290790278740307e+00 +1.0204790680406353e+01 +1.6626712185571632e+03 +1.5985567092812728e+05 -8.5082506046287715e+06 -7.4067696526781023e+08 
-6.6999999999999922e+00 -1.0328940181968393e+00 +2.2286217256751590e+00 +1.0118958636544665e+01 +1.6767010615980741e+03 +1.6160110405300767e+05 -8.5889450862387512e+06 -7.4954572741846311e+08 
-6.7999999999999918e+00 -1.0328942171469215e+00 +2.2282023642493756e+00 +1.0040361789562033e+01 +1.6896494029595194e+03 +1.6320773249595211e+05 -8.6635866283986419e+06 -7.5772271636013627e+08 
-6.8999999999999915e+00 -1.0328945045590152e+00 +2.2278215161871682e+00 +9.9692292221892931e+00 +1.7014994889193990e+03 +1.6466886261162642e+05 -8.7320833705080561e+06 -7.6517139634614933e+08 
-6.9999999999999911e+00 -1.0328948797435928e+00 +2.2274797540915410e+00 +9.9057900838239270e+00 +1.7122345673780135e+03 +1.6597779962871067e+05 -8.7943434698428791e+06 -7.7185522687242556e+08 
-7.0999999999999908e+00 -1.0328953420117208e+00 +2.2271776505880676e+00 +9.8502735939624877e+00 +1.7218378876232600e+03 +1.6712784758704796e+05 -8.8502751004174128e+06 -7.7773766239234996e+08 
-7.1999999999999904e+00 -1.0328958906750452e+00 +2.2269157783134736e+00 +9.8029090384074244e+00 +1.7302927007222843e+03 +1.6811230942145613e+05 -8.8997864554774035e+06 -7.8278215274982953e+08 
-7.2999999999999901e+00 -1.0328965250458353e+00 +2.2266947099321137e+00 +9.7639257766615888e+00 +1.7375822591375440e+03 +1.6892448681241734e+05 -8.9427857455988955e+06 -7.8695214244738054e+08 
-7.3999999999999897e+00 -1.0328972444369964e+00 +2.2265150181234374e+00 +9.7335532423451347e+00 +1.7436898171275398e+03 +1.6955768018680089e+05 -8.9791812011763584e+06 -7.9021107067957568e+08 
-7.4999999999999893e+00 -1.0328980481619197e+00 +2.2263772754626148e+00 +9.7120209087288387e+00 +1.7485986358571922e+03 +1.7000518968310050e+05 -9.0088811050460879e+06 -7.9252237678960598e+08 
-7.5999999999999890e+00 -1.0328989341895565e+00 +2.2262814733919938e+00 +9.6993763584800732e+00 +1.7523104947312038e+03 +1.7026459879876758e+05 -9.0319026096577942e+06 -7.9387190216025305e+08 
-7.6999999999999886e+00 -1.0328998952191748e+00 +2.2262256697643501e+00 +9.6950040810099427e+00 +1.7548860130129410e+03 +1.7034878296782897e+05 -9.0486072054750379e+06 -7.9432458047721052e+08 
-7.7999999999999883e+00 -1.0329009226425967e+00 +2.2262075239077252e+00 +9.6981344596430130e+00 +1.7563972118040242e+03 +1.7027410825112372e+05 -9.0594229247528836e+06 -7.9396320149068689e+08 
-7.8999999999999879e+00 -1.0329020078507891e+00 +2.2262246952906004e+00 +9.7079977626418223e+00 +1.7569161056046869e+03 +1.7005694290272042e+05 -9.0647777508216389e+06 -7.9287056481140983e+08 
-7.9999999999999876e+00 -1.0329031422337389e+00 +2.2262748435218582e+00 +9.7238241295243473e+00 +1.7565147025127051e+03 +1.6971365756648578e+05 -9.0650996176148225e+06 -7.9112948079474545e+08 
-8.0999999999999872e+00 -1.0329043171805532e+00 +2.2263556283375201e+00 +9.7448435850775539e+00 +1.7552650045192740e+03 +1.6926062499335091e+05 -9.0608164109089859e+06 -7.8882276913201904e+08 
-8.1999999999999869e+00 -1.0329055240793674e+00 +2.2264647096163559e+00 +9.7702860268956755e+00 +1.7532390069775117e+03 +1.6871422028099277e+05 -9.0523559648002759e+06 -7.8603325997971976e+08 
-8.2999999999999865e+00 -1.0329067543172201e+00 +2.2265997473796291e+00 +9.7993812093055244e+00 +1.7505086985263035e+03 +1.6809082117781884e+05 -9.0401460608030986e+06 -7.8284379538516343e+08 
-8.3999999999999861e+00 -1.0329079992801555e+00 +2.2267584017976469e+00 +9.8313587570299639e+00 +1.7471460608092516e+03 +1.6740680781128429e+05 -9.0246144257492255e+06 -7.7933722794082856e+08 
-8.4999999999999858e+00 -1.0329092503530699e+00 +2.2269383331898358e+00 +9.8654481458886281e+00 +1.7432230683811956e+03 +1.6667856305070626e+05 -9.0061887307643760e+06 -7.7559642248213089e+08 
-8.5999999999999854e+00 -1.0329104989197460e+00 +2.2271372020400011e+00 +9.9008787058196823e+00 +1.7388116882121396e+03 +1.6592247245535682e+05 -8.9852965880190805e+06 -7.7170425583912861e+08 
-8.6999999999999851e+00 -1.0329117363627602e+00 +2.2273526689868191e+00 +9.9368796108349624e+00 +1.7339838798392541e+03 +1.6515492444611181e+05 -8.9623655510379709e+06 -7.6774361757775605e+08 
-8.7999999999999847e+00 -1.0329129540635102e+00 +2.2275823948410549e+00 +9.9726798812039146e+00 +1.7288115948067334e+03 +1.6439231027110768e+05 -8.9378231110657509e+06 -7.6379740984335744e+08 
-8.8999999999999844e+00 -1.0329141434020823e+00 +2.2278240405803751e+00 +1.0007508367193092e+01 +1.7233667767328946e+03 +1.6365102430603036e+05 -8.9120966970023606e+06 -7.5994854874160051e+08 
-8.9999999999999840e+00 -1.0329152957572976e+00 +2.2280752673630690e+00 +1.0040593755079271e+01 +1.7177213608119050e+03 +1.6294746393270735e+05 -8.8856136719933599e+06 -7.5627996372773719e+08 
-9.0999999999999837e+00 -1.0329164025066342e+00 +2.2283337365247373e+00 +1.0071164557069432e+01 +1.7119472738409186e+03 +1.6229802973036157e+05 -8.8588013331880905e+06 -7.5287459849488533e+08 
-9.1999999999999833e+00 -1.0329174550262188e+00 +2.2285971095879700e+00 +1.0098449110261365e+01 +1.7061164338417084e+03 +1.6171912548666247e+05 -8.8320869090477321e+06 -7.4981541098366582e+08 
-9.2999999999999829e+00 -1.0329184446907078e+00 +2.2288630482644498e+00 +1.0121675561274786e+01 +1.7003007499236910e+03 +1.6122715849105775e+05 -8.8058975581049137e+06 -7.4718537476549697e+08 
-9.3999999999999826e+00 -1.0329193628733517e+00 +2.2291292144601877e+00 +1.0140071875208337e+01 +1.6945721220443631e+03 +1.6083853935376435e+05 -8.7806603671153970e+06 -7.4506747813239813e+08 
-9.4999999999999822e+00 -1.0329202009460523e+00 +2.2293932705510429e+00 +1.0152865873134466e+01 +1.6890024290762426e+03 +1.6056968059193660e+05 -8.7568022722919304e+06 -7.4354471517650950e+08 
-9.5999999999999819e+00 -1.0329209520614036e+00 +2.2296533612863998e+00 +1.0159481884824812e+01 +1.6836447730130822e+03 +1.6043245384803257e+05 -8.7346294149901848e+06 -7.4267631540228832e+08 
-9.6999999999999815e+00 -1.0329216165270156e+00 +2.2299090834429345e+00 +1.0160085738652459e+01 +1.6784966065111710e+03 +1.6042237072859838e+05 -8.7140823680179827e+06 -7.4243830058170176e+08 
-9.7999999999999812e+00 -1.0329221964815163e+00 +2.2301602955499478e+00 +1.0155025447614150e+01 +1.6735454788453658e+03 +1.6053108136876876e+05 -8.6950335123247039e+06 -7.4278763161783707e+08 
-9.8999999999999808e+00 -1.0329226940639804e+00 +2.2304068560267329e+00 +1.0144649130564318e+01 +1.6687789449961072e+03 +1.6075023346232518e+05 -8.6773552655279078e+06 -7.4368125754616666e+08 
-9.9999999999999805e+00 -1.0329231114136923e+00 +2.2306486232354001e+00 +1.0129304973831337e+01 +1.6641845642570570e+03 +1.6107147308263718e+05 -8.6609200812705234e+06 -7.4507611909887660e+08 
-1.0099999999999980e+01 -1.0329234506701521e+00 +2.2308854554814461e+00 +1.0109341232380222e+01 +1.6597499002718826e+03 +1.6148644465465096e+05 -8.6456004496848416e+06 -7.4692914856542909e+08 
