# trajectory
# s[mm] rx[mm] ry[mm] rz[mm] px[rad] py[rad] pz[rad]
0.0000000000000000e+00 +9.0449999999999999e+00 +0.0000000000000000e+00 +0.0000000000000000e+00 +0.0000000000000000e+00 +0.0000000000000000e+00 +1.0000000000000000e+00
-1.0000000000000001e-01 +9.0449994834964080e+00 +0.0000000000000000e+00 -9.9999999998221498e-02 +1.0330083027352657e-05 +0.0000000000000000e+00 +9.9999999994664468e-01
-2.0000000000000001e-01 +9.0449979339811453e+00 +0.0000000000000000e+00 -1.9999999998577186e-01 +2.0660233515886182e-05 +0.0000000000000000e+00 +9.9999999978657739e-01
-3.0000000000000004e-01 +9.0449953514474419e+00 +0.0000000000000000e+00 -2.9999999995197979e-01 +3.0990451913109215e-05 +0.0000000000000000e+00 +9.9999999951979590e-01
-4.0000000000000002e-01 +9.0449917358884910e+00 +0.0000000000000000e+00 -3.9999999988617380e-01 +4.1320738492237628e-05 +0.0000000000000000e+00 +9.9999999914629822e-01
-5.0000000000000000e-01 +9.0449870872974678e+00 +0.0000000000000000e+00 -4.9999999977768217e-01 +5.1651093352201007e-05 +0.0000000000000000e+00 +9.9999999866608225e-01
-5.9999999999999998e-01 +9.0449814056675475e+00 +0.0000000000000000e+00 -5.9999999961583295e-01 +6.1981516417645763e-05 +0.0000000000000000e+00 +9.9999999807914575e-01
-6.9999999999999996e-01 +9.0449746909919195e+00 +0.0000000000000000e+00 -6.9999999938995394e-01 +7.2312007438934866e-05 +0.0000000000000000e+00 +9.9999999738548673e-01
-7.9999999999999993e-01 +9.0449669432638089e+00 +0.0000000000000000e+00 -7.9999999908937280e-01 +8.2642565992144306e-05 +0.0000000000000000e+00 +9.9999999658510308e-01
-8.9999999999999991e-01 +9.0449581624764903e+00 +0.0000000000000000e+00 -8.9999999870341696e-01 +9.2973191479056114e-05 +0.0000000000000000e+00 +9.9999999567799280e-01
-9.9999999999999989e-01 +9.0449483486233078e+00 +0.0000000000000000e+00 -9.9999999822141372e-01 +1.0330388312714807e-04 +0.0000000000000000e+00 +9.9999999466415379e-01
-1.0999999999999999e+00 +9.0449375016976905e+00 +0.0000000000000000e+00 -1.0999999976326900e+00 +1.1363463998958005e-04 +0.0000000000000000e+00 +9.9999999354358426e-01
-1.2000000000000000e+00 +9.0449256216931726e+00 +0.0000000000000000e+00 -1.1999999969265727e+00 +1.2396546094517704e-04 +0.0000000000000000e+00 +9.9999999231628223e-01
-1.3000000000000000e+00 +9.0449127086034071e+00 +0.0000000000000000e+00 -1.2999999960923885e+00 +1.3429634469840876e-04 +0.0000000000000000e+00 +9.9999999098224590e-01
-1.4000000000000001e+00 +9.0448987624221875e+00 +0.0000000000000000e+00 -1.3999999951194639e+00 +1.4462728977936596e-04 +0.0000000000000000e+00 +9.9999998954147351e-01
-1.5000000000000002e+00 +9.0448837831434616e+00 +0.0000000000000000e+00 -1.4999999939971254e+00 +1.5495829454373336e-04 +0.0000000000000000e+00 +9.9999998799396339e-01
-1.6000000000000003e+00 +9.0448677707613498e+00 +0.0000000000000000e+00 -1.5999999927146988e+00 +1.6528935718694554e-04 +0.0000000000000000e+00 +9.9999998633971410e-01
-1.7000000000000004e+00 +9.0448507252701553e+00 +0.0000000000000000e+00 -1.6999999912615102e+00 +1.7562047590020675e-04 +0.0000000000000000e+00 +9.9999998457872408e-01
-1.8000000000000005e+00 +9.0448326466643554e+00 +0.0000000000000000e+00 -1.7999999896268855e+00 +1.8595164902652589e-04 +0.0000000000000000e+00 +9.9999998271099189e-01
-1.9000000000000006e+00 +9.0448135349385854e+00 +0.0000000000000000e+00 -1.8999999878001503e+00 +1.9628287507489806e-04 +0.0000000000000000e+00 +9.9999998073651619e-01
-2.0000000000000004e+00 +9.0447933900876212e+00 +0.0000000000000000e+00 -1.9999999857706305e+00 +2.0661415272030186e-04 +0.0000000000000000e+00 +9.9999997865529566e-01
-2.1000000000000005e+00 +9.0447722121063610e+00 +0.0000000000000000e+00 -2.0999999835276513e+00 +2.1694548080369812e-04 +0.0000000000000000e+00 +9.9999997646732885e-01
-2.2000000000000006e+00 +9.0447500009898132e+00 +0.0000000000000000e+00 -2.1999999810605382e+00 +2.2727685833203010e-04 +0.0000000000000000e+00 +9.9999997417261444e-01
-2.3000000000000007e+00 +9.0447267567330751e+00 +0.0000000000000000e+00 -2.2999999783586160e+00 +2.3760828447822528e-04 +0.0000000000000000e+00 +9.9999997177115107e-01
-2.4000000000000008e+00 +9.0447024793313187e+00 +0.0000000000000000e+00 -2.3999999754112102e+00 +2.4793975858119848e-04 +0.0000000000000000e+00 +9.9999996926293744e-01
-2.5000000000000009e+00 +9.0446771687797760e+00 +0.0000000000000000e+00 -2.4999999722076454e+00 +2.5827128014585657e-04 +0.0000000000000000e+00 +9.9999996664797219e-01
-2.6000000000000010e+00 +9.0446508250737185e+00 +0.0000000000000000e+00 -2.5999999687372464e+00 +2.6860284884310453e-04 +0.0000000000000000e+00 +9.9999996392625401e-01
-2.7000000000000011e+00 +9.0446234482084424e+00 +0.0000000000000000e+00 -2.6999999649893378e+00 +2.7893446450985332e-04 +0.0000000000000000e+00 +9.9999996109778133e-01
-2.8000000000000012e+00 +9.0445950381792510e+00 +0.0000000000000000e+00 -2.7999999609532442e+00 +2.8926612714902871e-04 +0.0000000000000000e+00 +9.9999995816255283e-01
-2.9000000000000012e+00 +9.0445655949814405e+00 +0.0000000000000000e+00 -2.8999999566182897e+00 +2.9959783692958209e-04 +0.0000000000000000e+00 +9.9999995512056694e-01
-3.0000000000000013e+00 +9.0445351186102823e+00 +0.0000000000000000e+00 -2.9999999519737988e+00 +3.0992959418650243e-04 +0.0000000000000000e+00 +9.9999995197182201e-01
-3.1000000000000014e+00 +9.0445036090610049e+00 +0.0000000000000000e+00 -3.0999999470090955e+00 +3.2026139942082987e-04 +0.0000000000000000e+00 +9.9999994871631659e-01
-3.2000000000000015e+00 +9.0444710663287768e+00 +0.0000000000000000e+00 -3.1999999417135037e+00 +3.3059325329967075e-04 +0.0000000000000000e+00 +9.9999994535404879e-01
-3.3000000000000016e+00 +9.0444374904086953e+00 +0.0000000000000000e+00 -3.2999999360763468e+00 +3.4092515665621421e-04 +0.0000000000000000e+00 +9.9999994188501695e-01
-3.4000000000000017e+00 +9.0444028812957633e+00 +0.0000000000000000e+00 -3.3999999300869481e+00 +3.5125711048975011e-04 +0.0000000000000000e+00 +9.9999993830921907e-01
-3.5000000000000018e+00 +9.0443672389848757e+00 +0.0000000000000000e+00 -3.4999999237346313e+00 +3.6158911596568849e-04 +0.0000000000000000e+00 +9.9999993462665326e-01
-3.6000000000000019e+00 +9.0443305634708047e+00 +0.0000000000000000e+00 -3.5999999170087196e+00 +3.7192117440467581e-04 +0.0000000000000000e+00 +9.9999993083731742e-01
-3.7000000000000020e+00 +9.0442928547481838e+00 +0.0000000000000000e+00 -3.6999999098985357e+00 +3.8225328716266158e-04 +0.0000000000000000e+00 +9.9999992694120932e-01
-3.8000000000000020e+00 +9.0442541128115188e+00 +0.0000000000000000e+00 -3.7999999023934024e+00 +3.9258545551095511e-04 +0.0000000000000000e+00 +9.9999992293832685e-01
-3.9000000000000021e+00 +9.0442143376551893e+00 +0.0000000000000000e+00 -3.8999998944826419e+00 +4.0291768062532458e-04 +0.0000000000000000e+00 +9.9999991882866779e-01
-4.0000000000000018e+00 +9.0441735292734649e+00 +0.0000000000000000e+00 -3.9999998861555768e+00 +4.1324996358600111e-04 +0.0000000000000000e+00 +9.9999991461222992e-01
-4.1000000000000014e+00 +9.0441316876605100e+00 +0.0000000000000000e+00 -4.0999998774015287e+00 +4.2358230537768281e-04 +0.0000000000000000e+00 +9.9999991028901103e-01
-4.2000000000000011e+00 +9.0440888128103971e+00 +0.0000000000000000e+00 -4.1999998682098196e+00 +4.3391470688953875e-04 +0.0000000000000000e+00 +9.9999990585900889e-01
-4.3000000000000007e+00 +9.0440449047171150e+00 +0.0000000000000000e+00 -4.2999998585697714e+00 +4.4424716891521330e-04 +0.0000000000000000e+00 +9.9999990132222139e-01
-4.4000000000000004e+00 +9.0439999633745742e+00 +0.0000000000000000e+00 -4.3999998484707046e+00 +4.5457969215283032e-04 +0.0000000000000000e+00 +9.9999989667864619e-01
-4.5000000000000000e+00 +9.0439539887766234e+00 +0.0000000000000000e+00 -4.4999998379019406e+00 +4.6491227720499751e-04 +0.0000000000000000e+00 +9.9999989192828120e-01
-4.5999999999999996e+00 +9.0439069809170558e+00 +0.0000000000000000e+00 -4.5999998268528008e+00 +4.7524492457881097e-04 +0.0000000000000000e+00 +9.9999988707112419e-01
-4.6999999999999993e+00 +9.0438589397896170e+00 +0.0000000000000000e+00 -4.6999998153126059e+00 +4.8557763468585964e-04 +0.0000000000000000e+00 +9.9999988210717317e-01
-4.7999999999999989e+00 +9.0438098653880168e+00 +0.0000000000000000e+00 -4.7999998032706754e+00 +4.9591040784223005e-04 +0.0000000000000000e+00 +9.9999987703642590e-01
-4.8999999999999986e+00 +9.0437597577059385e+00 +0.0000000000000000e+00 -4.8999997907163308e+00 +5.0624324426851099e-04 +0.0000000000000000e+00 +9.9999987185888040e-01
-4.9999999999999982e+00 +9.0437086167370495e+00 +0.0000000000000000e+00 -4.9999997776388918e+00 +5.1657614408979829e-04 +0.0000000000000000e+00 +9.9999986657453455e-01
-5.0999999999999979e+00 +9.0436564424750063e+00 +0.0000000000000000e+00 -5.0999997640276780e+00 +5.2690910733569978e-04 +0.0000000000000000e+00 +9.9999986118338646e-01
-5.1999999999999975e+00 +9.0436032349134692e+00 +0.0000000000000000e+00 -5.1999997498720090e+00 +5.3724213394034043e-04 +0.0000000000000000e+00 +9.9999985568543415e-01
-5.2999999999999972e+00 +9.0435489940461107e+00 +0.0000000000000000e+00 -5.2999997351612045e+00 +5.4757522374236720e-04 +0.0000000000000000e+00 +9.9999985008067571e-01
-5.3999999999999968e+00 +9.0434937198666230e+00 +0.0000000000000000e+00 -5.3999997198845842e+00 +5.5790837648495440e-04 +0.0000000000000000e+00 +9.9999984436910938e-01
-5.4999999999999964e+00 +9.0434374123687284e+00 +0.0000000000000000e+00 -5.4999997040314668e+00 +5.6824159181580885e-04 +0.0000000000000000e+00 +9.9999983855073338e-01
-5.5999999999999961e+00 +9.0433800715461885e+00 +0.0000000000000000e+00 -5.5999996875911711e+00 +5.7857486928850803e-04 +0.0000000000000000e+00 +9.9999983262554604e-01
-5.6999999999999957e+00 +9.0433216973928161e+00 +0.0000000000000000e+00 -5.6999996705530158e+00 +5.8890820837716195e-04 +0.0000000000000000e+00 +9.9999982659354569e-01
-5.7999999999999954e+00 +9.0432622899024793e+00 +0.0000000000000000e+00 -5.7999996529063198e+00 +5.9924160849106670e-04 +0.0000000000000000e+00 +9.9999982045473090e-01
-5.8999999999999950e+00 +9.0432018490691064e+00 +0.0000000000000000e+00 -5.8999996346404018e+00 +6.0957506897602618e-04 +0.0000000000000000e+00 +9.9999981420910011e-01
-5.9999999999999947e+00 +9.0431403748866952e+00 +0.0000000000000000e+00 -5.9999996157445796e+00 +6.1990858911434006e-04 +0.0000000000000000e+00 +9.9999980785665188e-01
-6.0999999999999943e+00 +9.0430778673493197e+00 +0.0000000000000000e+00 -6.0999995962081712e+00 +6.3024216812479137e-04 +0.0000000000000000e+00 +9.9999980139738476e-01
-6.1999999999999940e+00 +9.0430143264511358e+00 +0.0000000000000000e+00 -6.1999995760204953e+00 +6.4057580516263329e-04 +0.0000000000000000e+00 +9.9999979483129764e-01
-6.2999999999999936e+00 +9.0429497521863844e+00 +0.0000000000000000e+00 -6.2999995551708698e+00 +6.5090949931957567e-04 +0.0000000000000000e+00 +9.9999978815838919e-01
-6.3999999999999932e+00 +9.0428841445494008e+00 +0.0000000000000000e+00 -6.3999995336486126e+00 +6.6124324962377038e-04 +0.0000000000000000e+00 +9.9999978137865830e-01
-6.4999999999999929e+00 +9.0428175035346232e+00 +0.0000000000000000e+00 -6.4999995114430407e+00 +6.7157705503979675e-04 +0.0000000000000000e+00 +9.9999977449210398e-01
-6.5999999999999925e+00 +9.0427498291365929e+00 +0.0000000000000000e+00 -6.5999994885434727e+00 +6.8191091446864543e-04 +0.0000000000000000e+00 +9.9999976749872521e-01
-6.6999999999999922e+00 +9.0426811213499683e+00 +0.0000000000000000e+00 -6.6999994649392249e+00 +6.9224482674770259e-04 +0.0000000000000000e+00 +9.9999976039852112e-01
-6.7999999999999918e+00 +9.0426113801695234e+00 +0.0000000000000000e+00 -6.7999994406196160e+00 +7.0257879065073285e-04 +0.0000000000000000e+00 +9.9999975319149093e-01
-6.8999999999999915e+00 +9.0425406055901600e+00 +0.0000000000000000e+00 -6.8999994155739621e+00 +7.1291280488786210e-04 +0.0000000000000000e+00 +9.9999974587763396e-01
-6.9999999999999911e+00 +9.0424687976069134e+00 +0.0000000000000000e+00 -6.9999993897915811e+00 +7.2324686810555888e-04 +0.0000000000000000e+00 +9.9999973845694967e-01
-7.0999999999999908e+00 +9.0423959562149534e+00 +0.0000000000000000e+00 -7.0999993632617908e+00 +7.3358097888661625e-04 +0.0000000000000000e+00 +9.9999973092943750e-01
-7.1999999999999904e+00 +9.0423220814095995e+00 +0.0000000000000000e+00 -7.1999993359739074e+00 +7.4391513575013200e-04 +0.0000000000000000e+00 +9.9999972329509712e-01
-7.2999999999999901e+00 +9.0422471731863183e+00 +0.0000000000000000e+00 -7.2999993079172487e+00 +7.5424933715148904e-04 +0.0000000000000000e+00 +9.9999971555392830e-01
-7.3999999999999897e+00 +9.0421712315407383e+00 +0.0000000000000000e+00 -7.3999992790811318e+00 +7.6458358148233461e-04 +0.0000000000000000e+00 +9.9999970770593083e-01
-7.4999999999999893e+00 +9.0420942564686477e+00 +0.0000000000000000e+00 -7.4999992494548735e+00 +7.7491786707055920e-04 +0.0000000000000000e+00 +9.9999969975110470e-01
-7.5999999999999890e+00 +9.0420162479660071e+00 +0.0000000000000000e+00 -7.5999992190277919e+00 +7.8525219218679822e-04 +0.0000000000000000e+00 +9.9999969168944991e-01
-7.6999999999999886e+00 +9.0419372060289493e+00 +0.0000000000000000e+00 -7.6999991877892029e+00 +7.9558655511617529e-04 +0.0000000000000000e+00 +9.9999968352096669e-01
-7.7999999999999883e+00 +9.0418571306537778e+00 +0.0000000000000000e+00 -7.7999991557284245e+00 +8.0592095423006986e-04 +0.0000000000000000e+00 +9.9999967524565514e-01
-7.8999999999999879e+00 +9.0417760218369487e+00 +0.0000000000000000e+00 -7.8999991228347737e+00 +8.1625538799266024e-04 +0.0000000000000000e+00 +9.9999966686351538e-01
-7.9999999999999876e+00 +9.0416938795750728e+00 +0.0000000000000000e+00 -7.9999990890975674e+00 +8.2658985496094413e-04 +0.0000000000000000e+00 +9.9999965837454752e-01
-8.0999999999999872e+00 +9.0416107038648956e+00 +0.0000000000000000e+00 -8.0999990545061227e+00 +8.3692435378476013e-04 +0.0000000000000000e+00 +9.9999964977875178e-01
-8.1999999999999869e+00 +9.0415264947032963e+00 +0.0000000000000000e+00 -8.1999990190497574e+00 +8.4725888320680970e-04 +0.0000000000000000e+00 +9.9999964107612804e-01
-8.2999999999999865e+00 +9.0414412520872727e+00 +0.0000000000000000e+00 -8.2999989827177885e+00 +8.5759344206268033e-04 +0.0000000000000000e+00 +9.9999963226667654e-01
-8.3999999999999861e+00 +9.0413549760139382e+00 +0.0000000000000000e+00 -8.3999989454995330e+00 +8.6792802928086898e-04 +0.0000000000000000e+00 +9.9999962335039716e-01
-8.4999999999999858e+00 +9.0412676664805041e+00 +0.0000000000000000e+00 -8.4999989073843079e+00 +8.7826264388280633e-04 +0.0000000000000000e+00 +9.9999961432728990e-01
-8.5999999999999854e+00 +9.0411793234842790e+00 +0.0000000000000000e+00 -8.5999988683614301e+00 +8.8859728498288210e-04 +0.0000000000000000e+00 +9.9999960519735476e-01
-8.6999999999999851e+00 +9.0410899470226518e+00 +0.0000000000000000e+00 -8.6999988284202185e+00 +8.9893195178847090e-04 +0.0000000000000000e+00 +9.9999959596059151e-01
-8.7999999999999847e+00 +9.0409995370930876e+00 +0.0000000000000000e+00 -8.7999987875499883e+00 +9.0926664359995896e-04 +0.0000000000000000e+00 +9.9999958661700006e-01
-8.8999999999999844e+00 +9.0409080936931172e+00 +0.0000000000000000e+00 -8.8999987457400582e+00 +9.1960135981077138e-04 +0.0000000000000000e+00 +9.9999957716658017e-01
-8.9999999999999840e+00 +9.0408156168203284e+00 +0.0000000000000000e+00 -8.9999987029797435e+00 +9.2993609990740019e-04 +0.0000000000000000e+00 +9.9999956760933162e-01
-9.0999999999999837e+00 +9.0407221064723533e+00 +0.0000000000000000e+00 -9.0999986592583628e+00 +9.4027086346943343e-04 +0.0000000000000000e+00 +9.9999955794525397e-01
-9.1999999999999833e+00 +9.0406275626468631e+00 +0.0000000000000000e+00 -9.1999986145652333e+00 +9.5060565016958471e-04 +0.0000000000000000e+00 +9.9999954817434689e-01
-9.2999999999999829e+00 +9.0405319853415556e+00 +0.0000000000000000e+00 -9.2999985688896718e+00 +9.6094045977372351e-04 +0.0000000000000000e+00 +9.9999953829660981e-01
-9.3999999999999826e+00 +9.0404353745541499e+00 +0.0000000000000000e+00 -9.3999985222209954e+00 +9.7127529214090648e-04 +0.0000000000000000e+00 +9.9999952831204220e-01
-9.4999999999999822e+00 +9.0403377302823706e+00 +0.0000000000000000e+00 -9.4999984745485193e+00 +9.8161014722340898e-04 +0.0000000000000000e+00 +9.9999951822064337e-01
-9.5999999999999819e+00 +9.0402390525239458e+00 +0.0000000000000000e+00 -9.5999984258615623e+00 +9.9194502506176748e-04 +0.0000000000000000e+00 +9.9999950802241255e-01
-9.6999999999999815e+00 +9.0401393412765962e+00 +0.0000000000000000e+00 -9.6999983761494413e+00 +1.0022799257299029e-03 +0.0000000000000000e+00 +9.9999949771734908e-01
-9.7999999999999812e+00 +9.0400385965380359e+00 +0.0000000000000000e+00 -9.7999983254014715e+00 +1.0126148492802041e-03 +0.0000000000000000e+00 +9.9999948730545207e-01
-9.8999999999999808e+00 +9.0399368183059767e+00 +0.0000000000000000e+00 -9.8999982736069700e+00 +1.0229497957385011e-03 +0.0000000000000000e+00 +9.9999947678672085e-01
-9.9999999999999805e+00 +9.0398340065781255e+00 +0.0000000000000000e+00 -9.9999982207552538e+00 +1.0332847651040270e-03 +0.0000000000000000e+00 +9.9999946616115465e-01
-1.0099999999999980e+01 +9.0397301613521925e+00 +0.0000000000000000e+00 -1.0099998166835640e+01 +1.0436197573493791e-03 +0.0000000000000000e+00 +9.9999945542875279e-01
-1.0199999999999980e+01 +9.0396252826258934e+00 +0.0000000000000000e+00 -1.0199998111837443e+01 +1.0539547724204789e-03 +0.0000000000000000e+00 +9.9999944458951462e-01
-1.0299999999999979e+01 +9.0395193703969490e+00 +0.0000000000000000e+00 -1.0299998055749981e+01 +1.0642898102365306e-03 +0.0000000000000000e+00 +9.9999943364343957e-01
-1.0399999999999979e+01 +9.0394124246630909e+00 +0.0000000000000000e+00 -1.0399997998562570e+01 +1.0746248706899795e-03 +0.0000000000000000e+00 +9.9999942259052699e-01
-1.0499999999999979e+01 +9.0393044454220615e+00 +0.0000000000000000e+00 -1.0499997940264526e+01 +1.0849599536464677e-03 +0.0000000000000000e+00 +9.9999941143077631e-01
-1.0599999999999978e+01 +9.0391954326716171e+00 +0.0000000000000000e+00 -1.0599997880845164e+01 +1.0952950589447914e-03 +0.0000000000000000e+00 +9.9999940016418709e-01
-1.0699999999999978e+01 +9.0390853864095337e+00 +0.0000000000000000e+00 -1.0699997820293802e+01 +1.1056301863968537e-03 +0.0000000000000000e+00 +9.9999938879075878e-01
-1.0799999999999978e+01 +9.0389743066336070e+00 +0.0000000000000000e+00 -1.0799997758599755e+01 +1.1159653357876199e-03 +0.0000000000000000e+00 +9.9999937731049093e-01
-1.0899999999999977e+01 +9.0388621933416538e+00 +0.0000000000000000e+00 -1.0899997695752338e+01 +1.1263005068750686e-03 +0.0000000000000000e+00 +9.9999936572338310e-01
-1.0999999999999977e+01 +9.0387490465315175e+00 +0.0000000000000000e+00 -1.0999997631740870e+01 +1.1366356993901439e-03 +0.0000000000000000e+00 +9.9999935402943496e-01
-1.1099999999999977e+01 +9.0386348662010700e+00 +0.0000000000000000e+00 -1.1099997566554665e+01 +1.1469709130367057e-03 +0.0000000000000000e+00 +9.9999934222864617e-01
-1.1199999999999976e+01 +9.0385196523482154e+00 +0.0000000000000000e+00 -1.1199997500183038e+01 +1.1573061474914785e-03 +0.0000000000000000e+00 +9.9999933032101640e-01
-1.1299999999999976e+01 +9.0384034049708895e+00 +0.0000000000000000e+00 -1.1299997432615307e+01 +1.1676414024040004e-03 +0.0000000000000000e+00 +9.9999931830654554e-01
-1.1399999999999975e+01 +9.0382861240670653e+00 +0.0000000000000000e+00 -1.1399997363840786e+01 +1.1779766773965697e-03 +0.0000000000000000e+00 +9.9999930618523325e-01
-1.1499999999999975e+01 +9.0381678096347553e+00 +0.0000000000000000e+00 -1.1499997293848791e+01 +1.1883119720641913e-03 +0.0000000000000000e+00 +9.9999929395707943e-01
-1.1599999999999975e+01 +9.0380484616720125e+00 +0.0000000000000000e+00 -1.1599997222628639e+01 +1.1986472859762635e-03 +0.0000000000000000e+00 +9.9999928162208407e-01
-1.1699999999999974e+01 +9.0379280801769344e+00 +0.0000000000000000e+00 -1.1699997150169645e+01 +1.2089826186956901e-03 +0.0000000000000000e+00 +9.9999926918024695e-01
