# trajectory
# s[mm] rx[mm] ry[mm] rz[mm] px[rad] py[rad] pz[rad]
0.0000000000000000e+00 +9.1112000000000002e+00 +0.0000000000000000e+00 +0.0000000000000000e+00 +0.0000000000000000e+00 +0.0000000000000000e+00 +1.0000000000000000e+00
1.0000000000000001e-01 +9.1111994847725875e+00 +0.0000000000000000e+00 +9.9999999998230268e-02 -1.0304545456424392e-05 +0.0000000000000000e+00 +9.9999999994690814e-01
2.0000000000000001e-01 +9.1111979390915145e+00 +0.0000000000000000e+00 +1.9999999998584217e-01 -2.0609072712682838e-05 +0.0000000000000000e+00 +9.9999999978763299e-01
3.0000000000000004e-01 +9.1111953629587461e+00 +0.0000000000000000e+00 +2.9999999995221743e-01 -3.0913578913959814e-05 +0.0000000000000000e+00 +9.9999999952217522e-01
4.0000000000000002e-01 +9.1111917563765239e+00 +0.0000000000000000e+00 +3.9999999988673784e-01 -4.1218061339995160e-05 +0.0000000000000000e+00 +9.9999999915053561e-01
5.0000000000000000e-01 +9.1111871193473561e+00 +0.0000000000000000e+00 +4.9999999977878518e-01 -5.1522517405120978e-05 +0.0000000000000000e+00 +9.9999999867271505e-01
5.9999999999999998e-01 +9.1111814518740033e+00 +0.0000000000000000e+00 +5.9999999961774142e-01 -6.1826944665155725e-05 +0.0000000000000000e+00 +9.9999999808871443e-01
6.9999999999999996e-01 +9.1111747539594585e+00 +0.0000000000000000e+00 +6.9999999939298874e-01 -7.2131340892848080e-05 +0.0000000000000000e+00 +9.9999999739853485e-01
7.9999999999999993e-01 +9.1111670256069246e+00 +0.0000000000000000e+00 +7.9999999909390918e-01 -8.2435704153313640e-05 +0.0000000000000000e+00 +9.9999999660217731e-01
8.9999999999999991e-01 +9.1111582668197819e+00 +0.0000000000000000e+00 +8.9999999870988501e-01 -9.2740032810915385e-05 +0.0000000000000000e+00 +9.9999999569964315e-01
9.9999999999999989e-01 +9.1111484776015601e+00 +0.0000000000000000e+00 +9.9999999823029861e-01 -1.0304432552928536e-04 +0.0000000000000000e+00 +9.9999999469093348e-01
1.0999999999999999e+00 +9.1111376579559078e+00 +0.0000000000000000e+00 +1.0999999976445325e+00 -1.1334858127134272e-04 +0.0000000000000000e+00 +9.9999999357604952e-01
1.2000000000000000e+00 +9.1111258078865625e+00 +0.0000000000000000e+00 +1.1999999969419695e+00 -1.2365279929930819e-04 +0.0000000000000000e+00 +9.9999999235499260e-01
1.3000000000000000e+00 +9.1111129273973201e+00 +0.0000000000000000e+00 +1.2999999961119921e+00 -1.3395697917471482e-04 +0.0000000000000000e+00 +9.9999999102776382e-01
1.4000000000000001e+00 +9.1110990164920054e+00 +0.0000000000000000e+00 +1.3999999951439832e+00 -1.4426112075841520e-04 +0.0000000000000000e+00 +9.9999998959436442e-01
1.5000000000000002e+00 +9.1110840751744409e+00 +0.0000000000000000e+00 +1.4999999940273259e+00 -1.5456522421058495e-04 +0.0000000000000000e+00 +9.9999998805479562e-01
1.6000000000000003e+00 +9.1110681034484191e+00 +0.0000000000000000e+00 +1.5999999927514033e+00 -1.6486928999072265e-04 +0.0000000000000000e+00 +9.9999998640905852e-01
1.7000000000000004e+00 +9.1110511013176723e+00 +0.0000000000000000e+00 +1.6999999913055985e+00 -1.7517331885764614e-04 +0.0000000000000000e+00 +9.9999998465715412e-01
1.8000000000000005e+00 +9.1110330687858418e+00 +0.0000000000000000e+00 +1.7999999896792951e+00 -1.8547731186948510e-04 +0.0000000000000000e+00 +9.9999998279908331e-01
1.9000000000000006e+00 +9.1110140058564486e+00 +0.0000000000000000e+00 +1.8999999878618763e+00 -1.9578127038367017e-04 +0.0000000000000000e+00 +9.9999998083484698e-01
2.0000000000000004e+00 +9.1109939125328605e+00 +0.0000000000000000e+00 +1.9999999858427255e+00 -2.0608519605691823e-04 +0.0000000000000000e+00 +9.9999997876444580e-01
2.1000000000000005e+00 +9.1109727888182679e+00 +0.0000000000000000e+00 +2.0999999836112266e+00 -2.1638909084521429e-04 +0.0000000000000000e+00 +9.9999997658788042e-01
2.2000000000000006e+00 +9.1109506347156479e+00 +0.0000000000000000e+00 +2.1999999811567630e+00 -2.2669295700378944e-04 +0.0000000000000000e+00 +9.9999997430515131e-01
2.3000000000000007e+00 +9.1109274502277380e+00 +0.0000000000000000e+00 +2.2999999784687182e+00 -2.3699679708709550e-04 +0.0000000000000000e+00 +9.9999997191625867e-01
2.4000000000000008e+00 +9.1109032353570054e+00 +0.0000000000000000e+00 +2.3999999755364758e+00 -2.4730061394877582e-04 +0.0000000000000000e+00 +9.9999996942120273e-01
2.5000000000000009e+00 +9.1108779901056174e+00 +0.0000000000000000e+00 +2.4999999723494200e+00 -2.5760441074163258e-04 +0.0000000000000000e+00 +9.9999996681998327e-01
2.6000000000000010e+00 +9.1108517144754106e+00 +0.0000000000000000e+00 +2.5999999688969337e+00 -2.6790819090380603e-04 +0.0000000000000000e+00 +9.9999996411260006e-01
2.7000000000000011e+00 +9.1108244084678720e+00 +0.0000000000000000e+00 +2.6999999651684012e+00 -2.7821195800711200e-04 +0.0000000000000000e+00 +9.9999996129905255e-01
2.8000000000000012e+00 +9.1107960720841277e+00 +0.0000000000000000e+00 +2.7999999611532056e+00 -2.8851571560539269e-04 +0.0000000000000000e+00 +9.9999995837934019e-01
2.9000000000000012e+00 +9.1107667053249504e+00 +0.0000000000000000e+00 +2.8999999568407304e+00 -2.9881946722071717e-04 +0.0000000000000000e+00 +9.9999995535346209e-01
3.0000000000000013e+00 +9.1107363081907664e+00 +0.0000000000000000e+00 +2.9999999522203593e+00 -3.0912321634336620e-04 +0.0000000000000000e+00 +9.9999995222141747e-01
3.1000000000000014e+00 +9.1107048806816504e+00 +0.0000000000000000e+00 +3.0999999472814750e+00 -3.1942696643181602e-04 +0.0000000000000000e+00 +9.9999994898320532e-01
3.2000000000000015e+00 +9.1106724227973341e+00 +0.0000000000000000e+00 +3.1999999420134611e+00 -3.2973072091272137e-04 +0.0000000000000000e+00 +9.9999994563882444e-01
3.3000000000000016e+00 +9.1106389345372083e+00 +0.0000000000000000e+00 +3.2999999364057007e+00 -3.4003448318089771e-04 +0.0000000000000000e+00 +9.9999994218827348e-01
3.4000000000000017e+00 +9.1106044159003261e+00 +0.0000000000000000e+00 +3.3999999304475765e+00 -3.5033825659930285e-04 +0.0000000000000000e+00 +9.9999993863155112e-01
3.5000000000000018e+00 +9.1105688668854050e+00 +0.0000000000000000e+00 +3.4999999241284718e+00 -3.6064204449901753e-04 +0.0000000000000000e+00 +9.9999993496865580e-01
3.6000000000000019e+00 +9.1105322874908321e+00 +0.0000000000000000e+00 +3.5999999174377688e+00 -3.7094585017922538e-04 +0.0000000000000000e+00 +9.9999993119958575e-01
3.7000000000000020e+00 +9.1104946777146676e+00 +0.0000000000000000e+00 +3.6999999103648498e+00 -3.8124967690719193e-04 +0.0000000000000000e+00 +9.9999992732433929e-01
3.8000000000000020e+00 +9.1104560375546413e+00 +0.0000000000000000e+00 +3.7999999028990974e+00 -3.9155352791824303e-04 +0.0000000000000000e+00 +9.9999992334291443e-01
3.9000000000000021e+00 +9.1104163670081668e+00 +0.0000000000000000e+00 +3.8999998950298935e+00 -4.0185740641574235e-04 +0.0000000000000000e+00 +9.9999991925530918e-01
4.0000000000000018e+00 +9.1103756660723363e+00 +0.0000000000000000e+00 +3.9999998867466200e+00 -4.1216131557106822e-04 +0.0000000000000000e+00 +9.9999991506152131e-01
4.1000000000000014e+00 +9.1103339347439256e+00 +0.0000000000000000e+00 +4.0999998780386582e+00 -4.2246525852358943e-04 +0.0000000000000000e+00 +9.9999991076154859e-01
4.2000000000000011e+00 +9.1102911730194016e+00 +0.0000000000000000e+00 +4.1999998688953903e+00 -4.3276923838064059e-04 +0.0000000000000000e+00 +9.9999990635538871e-01
4.3000000000000007e+00 +9.1102473808949185e+00 +0.0000000000000000e+00 +4.2999998593061965e+00 -4.4307325821749626e-04 +0.0000000000000000e+00 +9.9999990184303900e-01
4.4000000000000004e+00 +9.1102025583663249e+00 +0.0000000000000000e+00 +4.3999998492604586e+00 -4.5337732107734476e-04 +0.0000000000000000e+00 +9.9999989722449700e-01
4.5000000000000000e+00 +9.1101567054291692e+00 +0.0000000000000000e+00 +4.4999998387475566e+00 -4.6368142997126087e-04 +0.0000000000000000e+00 +9.9999989249975985e-01
4.5999999999999996e+00 +9.1101098220786980e+00 +0.0000000000000000e+00 +4.5999998277568706e+00 -4.7398558787286845e-04 +0.0000000000000000e+00 +9.9999988766882486e-01
4.6999999999999993e+00 +9.1100619083098646e+00 +0.0000000000000000e+00 +4.6999998162777814e+00 -4.8428979765991284e-04 +0.0000000000000000e+00 +9.9999988273168894e-01
4.7999999999999989e+00 +9.1100129641173453e+00 +0.0000000000000000e+00 +4.7999998042996683e+00 -4.9459406205585568e-04 +0.0000000000000000e+00 +9.9999987768834930e-01
4.8999999999999986e+00 +9.1099629894955481e+00 +0.0000000000000000e+00 +4.8999997918119114e+00 -5.0489838362457865e-04 +0.0000000000000000e+00 +9.9999987253880285e-01
4.9999999999999982e+00 +9.1099119844386340e+00 +0.0000000000000000e+00 +4.9999997788038888e+00 -5.1520276477039846e-04 +0.0000000000000000e+00 +9.9999986728304668e-01
5.0999999999999979e+00 +9.1098599489405334e+00 +0.0000000000000000e+00 +5.0999997652649798e+00 -5.2550720773808361e-04 +0.0000000000000000e+00 +9.9999986192107770e-01
5.1999999999999975e+00 +9.1098068829949561e+00 +0.0000000000000000e+00 +5.1999997511845635e+00 -5.3581171461287264e-04 +0.0000000000000000e+00 +9.9999985645289291e-01
5.2999999999999972e+00 +9.1097527865954149e+00 +0.0000000000000000e+00 +5.2999997365520182e+00 -5.4611628732049338e-04 +0.0000000000000000e+00 +9.9999985087848919e-01
5.3999999999999968e+00 +9.1096976597352377e+00 +0.0000000000000000e+00 +5.3999997213567212e+00 -5.5642092762718455e-04 +0.0000000000000000e+00 +9.9999984519786367e-01
5.4999999999999964e+00 +9.1096415024075821e+00 +0.0000000000000000e+00 +5.4999997055880501e+00 -5.6672563713971774e-04 +0.0000000000000000e+00 +9.9999983941101322e-01
5.5999999999999961e+00 +9.1095843146054545e+00 +0.0000000000000000e+00 +5.5999996892353829e+00 -5.7703041730542196e-04 +0.0000000000000000e+00 +9.9999983351793487e-01
5.6999999999999957e+00 +9.1095260963217228e+00 +0.0000000000000000e+00 +5.6999996722880963e+00 -5.8733526941220893e-04 +0.0000000000000000e+00 +9.9999982751862571e-01
5.7999999999999954e+00 +9.1094668475491360e+00 +0.0000000000000000e+00 +5.7999996547355668e+00 -5.9764019458859988e-04 +0.0000000000000000e+00 +9.9999982141308286e-01
5.8999999999999950e+00 +9.1094065682803365e+00 +0.0000000000000000e+00 +5.8999996365671716e+00 -6.0794519380375422e-04 +0.0000000000000000e+00 +9.9999981520130343e-01
5.9999999999999947e+00 +9.1093452585078794e+00 +0.0000000000000000e+00 +5.9999996177722865e+00 -6.1825026786749943e-04 +0.0000000000000000e+00 +9.9999980888328477e-01
6.0999999999999943e+00 +9.1092829182242454e+00 +0.0000000000000000e+00 +6.0999995983402870e+00 -6.2855541743036245e-04 +0.0000000000000000e+00 +9.9999980245902398e-01
6.1999999999999940e+00 +9.1092195474218602e+00 +0.0000000000000000e+00 +6.1999995782605497e+00 -6.3886064298360255e-04 +0.0000000000000000e+00 +9.9999979592851851e-01
6.2999999999999936e+00 +9.1091551460931051e+00 +0.0000000000000000e+00 +6.2999995575224492e+00 -6.4916594485924569e-04 +0.0000000000000000e+00 +9.9999978929176569e-01
6.3999999999999932e+00 +9.1090897142303380e+00 +0.0000000000000000e+00 +6.3999995361153612e+00 -6.5947132323012031e-04 +0.0000000000000000e+00 +9.9999978254876321e-01
6.4999999999999929e+00 +9.1090232518259082e+00 +0.0000000000000000e+00 +6.4999995140286604e+00 -6.6977677810989462e-04 +0.0000000000000000e+00 +9.9999977569950849e-01
6.5999999999999925e+00 +9.1089557588721703e+00 +0.0000000000000000e+00 +6.5999994912517215e+00 -6.8008230935931295e-04 +0.0000000000000000e+00 +9.9999976874399943e-01
6.6999999999999922e+00 +9.1088872353614985e+00 +0.0000000000000000e+00 +6.6999994677739183e+00 -6.9038791675440361e-04 +0.0000000000000000e+00 +9.9999976168223370e-01
6.7999999999999918e+00 +9.1088176812862898e+00 +0.0000000000000000e+00 +6.7999994435846256e+00 -7.0069360005466249e-04 +0.0000000000000000e+00 +9.9999975451420919e-01
6.8999999999999915e+00 +9.1087470966389663e+00 +0.0000000000000000e+00 +6.8999994186732181e+00 -7.1099935900924565e-04 +0.0000000000000000e+00 +9.9999974723992369e-01
6.9999999999999911e+00 +9.1086754814119750e+00 +0.0000000000000000e+00 +6.9999993930290687e+00 -7.2130519335696325e-04 +0.0000000000000000e+00 +9.9999973985937507e-01
7.0999999999999908e+00 +9.1086028355977913e+00 +0.0000000000000000e+00 +7.0999993666415513e+00 -7.3161110282627306e-04 +0.0000000000000000e+00 +9.9999973237256123e-01
7.1999999999999904e+00 +9.1085291591889153e+00 +0.0000000000000000e+00 +7.1999993395000388e+00 -7.4191708713527375e-04 +0.0000000000000000e+00 +9.9999972477947996e-01
7.2999999999999901e+00 +9.1084544521778792e+00 +0.0000000000000000e+00 +7.2999993115939050e+00 -7.5222314599169757e-04 +0.0000000000000000e+00 +9.9999971708012925e-01
7.3999999999999897e+00 +9.1083787145572419e+00 +0.0000000000000000e+00 +7.3999992829125221e+00 -7.6252927909290326e-04 +0.0000000000000000e+00 +9.9999970927450699e-01
7.4999999999999893e+00 +9.1083019463195960e+00 +0.0000000000000000e+00 +7.4999992534452637e+00 -7.7283548612586811e-04 +0.0000000000000000e+00 +9.9999970136261107e-01
7.5999999999999890e+00 +9.1082241474575643e+00 +0.0000000000000000e+00 +7.5999992231815021e+00 -7.8314176676718002e-04 +0.0000000000000000e+00 +9.9999969334443950e-01
7.6999999999999886e+00 +9.1081453179638014e+00 +0.0000000000000000e+00 +7.6999991921106092e+00 -7.9344812068302909e-04 +0.0000000000000000e+00 +9.9999968521999028e-01
7.7999999999999883e+00 +9.1080654578309979e+00 +0.0000000000000000e+00 +7.7999991602219572e+00 -8.0375454752919912e-04 +0.0000000000000000e+00 +9.9999967698926140e-01
7.8999999999999879e+00 +9.1079845670518775e+00 +0.0000000000000000e+00 +7.8999991275049188e+00 -8.1406104695105864e-04 +0.0000000000000000e+00 +9.9999966865225087e-01
7.9999999999999876e+00 +9.1079026456192018e+00 +0.0000000000000000e+00 +7.9999990939488645e+00 -8.2436761858355157e-04 +0.0000000000000000e+00 +9.9999966020895681e-01
8.0999999999999872e+00 +9.1078196935257676e+00 +0.0000000000000000e+00 +8.0999990595431672e+00 -8.3467426205118770e-04 +0.0000000000000000e+00 +9.9999965165937732e-01
8.1999999999999869e+00 +9.1077357107644108e+00 +0.0000000000000000e+00 +8.1999990242771972e+00 -8.4498097696803301e-04 +0.0000000000000000e+00 +9.9999964300351041e-01
8.2999999999999865e+00 +9.1076506973280065e+00 +0.0000000000000000e+00 +8.2999989881403256e+00 -8.5528776293769906e-04 +0.0000000000000000e+00 +9.9999963424135430e-01
8.3999999999999861e+00 +9.1075646532094687e+00 +0.0000000000000000e+00 +8.3999989511219244e+00 -8.6559461955333303e-04 +0.0000000000000000e+00 +9.9999962537290699e-01
8.4999999999999858e+00 +9.1074775784017543e+00 +0.0000000000000000e+00 +8.4999989132113640e+00 -8.7590154639760652e-04 +0.0000000000000000e+00 +9.9999961639816681e-01
8.5999999999999854e+00 +9.1073894728978626e+00 +0.0000000000000000e+00 +8.5999988743980147e+00 -8.8620854304280938e-04 +0.0000000000000000e+00 +9.9999960731713189e-01
8.6999999999999851e+00 +9.1073003366908338e+00 +0.0000000000000000e+00 +8.6999988346712467e+00 -8.9651560905199088e-04 +0.0000000000000000e+00 +9.9999959812980044e-01
8.7999999999999847e+00 +9.1072101697737544e+00 +0.0000000000000000e+00 +8.7999987940204303e+00 -9.0682274398010750e-04 +0.0000000000000000e+00 +9.9999958883617079e-01
8.8999999999999844e+00 +9.1071189721397552e+00 +0.0000000000000000e+00 +8.8999987524349375e+00 -9.1712994737412764e-04 +0.0000000000000000e+00 +9.9999957943624118e-01
8.9999999999999840e+00 +9.1070267437820132e+00 +0.0000000000000000e+00 +8.9999987099041352e+00 -9.2743721877303227e-04 +0.0000000000000000e+00 +9.9999956993000993e-01
9.0999999999999837e+00 +9.1069334846937497e+00 +0.0000000000000000e+00 +9.0999986664173953e+00 -9.3774455770781495e-04 +0.0000000000000000e+00 +9.9999956031747539e-01
9.1999999999999833e+00 +9.1068391948682361e+00 +0.0000000000000000e+00 +9.1999986219640864e+00 -9.4805196370148254e-04 +0.0000000000000000e+00 +9.9999955059863588e-01
9.2999999999999829e+00 +9.1067438742987896e+00 +0.0000000000000000e+00 +9.2999985765335786e+00 -9.5835943626905549e-04 +0.0000000000000000e+00 +9.9999954077348985e-01
9.3999999999999826e+00 +9.1066475229787791e+00 +0.0000000000000000e+00 +9.3999985301152407e+00 -9.6866697491756852e-04 +0.0000000000000000e+00 +9.9999953084203563e-01
9.4999999999999822e+00 +9.1065501409016196e+00 +0.0000000000000000e+00 +9.4999984826984427e+00 -9.7897457914607124e-04 +0.0000000000000000e+00 +9.9999952080427168e-01
9.5999999999999819e+00 +9.1064517280607795e+00 +0.0000000000000000e+00 +9.5999984342725515e+00 -9.8928224844562840e-04 +0.0000000000000000e+00 +9.9999951066019654e-01
9.6999999999999815e+00 +9.1063522844497786e+00 +0.0000000000000000e+00 +9.6999983848269373e+00 -9.9958998229932082e-04 +0.0000000000000000e+00 +9.9999950040980867e-01
9.7999999999999812e+00 +9.1062518100621865e+00 +0.0000000000000000e+00 +9.7999983343509687e+00 -1.0098977801822459e-03 +0.0000000000000000e+00 +9.9999949005310662e-01
9.8999999999999808e+00 +9.1061503048916261e+00 +0.0000000000000000e+00 +9.8999982828340141e+00 -1.0202056415615185e-03 +0.0000000000000000e+00 +9.9999947959008895e-01
9.9999999999999805e+00 +9.1060477689317754e+00 +0.0000000000000000e+00 +9.9999982302654420e+00 -1.0305135658962715e-03 +0.0000000000000000e+00 +9.9999946902075421e-01
1.0099999999999980e+01 +9.1059442021763672e+00 +0.0000000000000000e+00 +1.0099998176634621e+01 -1.0408215526376569e-03 +0.0000000000000000e+00 +9.9999945834510096e-01
1.0199999999999980e+01 +9.1058396046191863e+00 +0.0000000000000000e+00 +1.0199998121930918e+01 -1.0511296012288460e-03 +0.0000000000000000e+00 +9.9999944756312797e-01
1.0299999999999979e+01 +9.1057339762540774e+00 +0.0000000000000000e+00 +1.0299998066143703e+01 -1.0614377111050309e-03 +0.0000000000000000e+00 +9.9999943667483393e-01
1.0399999999999979e+01 +9.1056273170749407e+00 +0.0000000000000000e+00 +1.0399998009262340e+01 -1.0717458816934249e-03 +0.0000000000000000e+00 +9.9999942568021749e-01
1.0499999999999979e+01 +9.1055196270757346e+00 +0.0000000000000000e+00 +1.0499997951276201e+01 -1.0820541124132641e-03 +0.0000000000000000e+00 +9.9999941457927743e-01
1.0599999999999978e+01 +9.1054109062504747e+00 +0.0000000000000000e+00 +1.0599997892174652e+01 -1.0923624026776162e-03 +0.0000000000000000e+00 +9.9999940337201254e-01
1.0699999999999978e+01 +9.1053011545932350e+00 +0.0000000000000000e+00 +1.0699997831947060e+01 -1.1026707519132838e-03 +0.0000000000000000e+00 +9.9999939205842159e-01
1.0799999999999978e+01 +9.1051903720981446e+00 +0.0000000000000000e+00 +1.0799997770582793e+01 -1.1129791595807070e-03 +0.0000000000000000e+00 +9.9999938063850335e-01
1.0899999999999977e+01 +9.1050785587593879e+00 +0.0000000000000000e+00 +1.0899997708071217e+01 -1.1232876251757761e-03 +0.0000000000000000e+00 +9.9999936911225651e-01
1.0999999999999977e+01 +9.1049657145711951e+00 +0.0000000000000000e+00 +1.0999997644401700e+01 -1.1335961482298359e-03 +0.0000000000000000e+00 +9.9999935747967994e-01
1.1099999999999977e+01 +9.1048518395278411e+00 +0.0000000000000000e+00 +1.1099997579563610e+01 -1.1439047283096882e-03 +0.0000000000000000e+00 +9.9999934574077221e-01
1.1199999999999976e+01 +9.1047369336236450e+00 +0.0000000000000000e+00 +1.1199997513546311e+01 -1.1542133650175961e-03 +0.0000000000000000e+00 +9.9999933389553208e-01
1.1299999999999976e+01 +9.1046209968529617e+00 +0.0000000000000000e+00 +1.1299997446339171e+01 -1.1645220579912872e-03 +0.0000000000000000e+00 +9.9999932194395824e-01
1.1399999999999975e+01 +9.1045040292101813e+00 +0.0000000000000000e+00 +1.1399997377931557e+01 -1.1748308069039579e-03 +0.0000000000000000e+00 +9.9999930988604935e-01
1.1499999999999975e+01 +9.1043860306897262e+00 +0.0000000000000000e+00 +1.1499997308312835e+01 -1.1851396114642765e-03 +0.0000000000000000e+00 +9.9999929772180396e-01
1.1599999999999975e+01 +9.1042670012860434e+00 +0.0000000000000000e+00 +1.1599997237472373e+01 -1.1954484714163877e-03 +0.0000000000000000e+00 +9.9999928545122074e-01
1.1699999999999974e+01 +9.1041469409936049e+00 +0.0000000000000000e+00 +1.1699997165399534e+01 -1.2057573865399166e-03 +0.0000000000000000e+00 +9.9999927307429815e-01
1.1799999999999974e+01 +9.1040258498069022e+00 +0.0000000000000000e+00 +1.1799997092083686e+01 -1.2160663566499726e-03 +0.0000000000000000e+00 +9.9999926059103472e-01
