# trajectory
# s[mm] rx[mm] ry[mm] rz[mm] px[rad] py[rad] pz[rad]
0.0000000000000000e+00 +9.1013000000000002e+00 +0.0000000000000000e+00 +0.0000000000000000e+00 +0.0000000000000000e+00 +0.0000000000000000e+00 +1.0000000000000000e+00
1.0000000000000001e-01 +9.1012994840217498e+00 +0.0000000000000000e+00 +9.9999999998225120e-02 -1.0319572369351739e-05 +0.0000000000000000e+00 +9.9999999994675326e-01
2.0000000000000001e-01 +9.1012979360840429e+00 +0.0000000000000000e+00 +1.9999999998580087e-01 -2.0639189212493089e-05 +0.0000000000000000e+00 +9.9999999978701193e-01
3.0000000000000004e-01 +9.1012953561824084e+00 +0.0000000000000000e+00 +2.9999999995207766e-01 -3.0958850998835166e-05 +0.0000000000000000e+00 +9.9999999952077478e-01
4.0000000000000002e-01 +9.1012917443123307e+00 +0.0000000000000000e+00 +3.9999999988640589e-01 -4.1278558165077316e-05 +0.0000000000000000e+00 +9.9999999914804028e-01
5.0000000000000000e-01 +9.1012871004692499e+00 +0.0000000000000000e+00 +4.9999999977813575e-01 -5.1598311115201089e-05 +0.0000000000000000e+00 +9.9999999866880707e-01
5.9999999999999998e-01 +9.1012814246485689e+00 +0.0000000000000000e+00 +5.9999999961661732e-01 -6.1918110220254160e-05 +0.0000000000000000e+00 +9.9999999808307372e-01
6.9999999999999996e-01 +9.1012747168456567e+00 +0.0000000000000000e+00 +6.9999999939120050e-01 -7.2237955816045472e-05 +0.0000000000000000e+00 +9.9999999739083878e-01
7.9999999999999993e-01 +9.1012669770558468e+00 +0.0000000000000000e+00 +7.9999999909123498e-01 -8.2557848200841489e-05 +0.0000000000000000e+00 +9.9999999659210070e-01
8.9999999999999991e-01 +9.1012582052744477e+00 +0.0000000000000000e+00 +8.9999999870607050e-01 -9.2877787635151462e-05 +0.0000000000000000e+00 +9.9999999568685816e-01
9.9999999999999989e-01 +9.1012484014967434e+00 +0.0000000000000000e+00 +9.9999999822505647e-01 -1.0319777434172169e-04 +0.0000000000000000e+00 +9.9999999467510958e-01
1.0999999999999999e+00 +9.1012375657179980e+00 +0.0000000000000000e+00 +1.0999999976375423e+00 -1.1351780850553003e-04 +0.0000000000000000e+00 +9.9999999355685343e-01
1.2000000000000000e+00 +9.1012256979334563e+00 +0.0000000000000000e+00 +1.1999999969328770e+00 -1.2383789027378057e-04 +0.0000000000000000e+00 +9.9999999233208836e-01
1.3000000000000000e+00 +9.1012127981383522e+00 +0.0000000000000000e+00 +1.2999999961004096e+00 -1.3415801975589863e-04 +0.0000000000000000e+00 +9.9999999100081272e-01
1.4000000000000001e+00 +9.1011988663279109e+00 +0.0000000000000000e+00 +1.3999999951294890e+00 -1.4447819702352577e-04 +0.0000000000000000e+00 +9.9999998956302516e-01
1.5000000000000002e+00 +9.1011839024973522e+00 +0.0000000000000000e+00 +1.4999999940094642e+00 -1.5479842211051523e-04 +0.0000000000000000e+00 +9.9999998801872414e-01
1.6000000000000003e+00 +9.1011679066418942e+00 +0.0000000000000000e+00 +1.5999999927296833e+00 -1.6511869501292740e-04 +0.0000000000000000e+00 +9.9999998636790810e-01
1.7000000000000004e+00 +9.1011508787567568e+00 +0.0000000000000000e+00 +1.6999999912794952e+00 -1.7543901568902563e-04 +0.0000000000000000e+00 +9.9999998461057571e-01
1.8000000000000005e+00 +9.1011328188371667e+00 +0.0000000000000000e+00 +1.7999999896482479e+00 -1.8575938405927215e-04 +0.0000000000000000e+00 +9.9999998274672541e-01
1.9000000000000006e+00 +9.1011137268783600e+00 +0.0000000000000000e+00 +1.8999999878252896e+00 -1.9607980000632425e-04 +0.0000000000000000e+00 +9.9999998077635577e-01
2.0000000000000004e+00 +9.1010936028755847e+00 +0.0000000000000000e+00 +1.9999999857999682e+00 -2.0640026337503072e-04 +0.0000000000000000e+00 +9.9999997869946533e-01
2.1000000000000005e+00 +9.1010724468241104e+00 +0.0000000000000000e+00 +2.0999999835616316e+00 -2.1672077397242833e-04 +0.0000000000000000e+00 +9.9999997651605266e-01
2.2000000000000006e+00 +9.1010502587192246e+00 +0.0000000000000000e+00 +2.1999999810996278e+00 -2.2704133156773874e-04 +0.0000000000000000e+00 +9.9999997422611642e-01
2.3000000000000007e+00 +9.1010270385562393e+00 +0.0000000000000000e+00 +2.2999999784033043e+00 -2.3736193589236546e-04 +0.0000000000000000e+00 +9.9999997182965517e-01
2.4000000000000008e+00 +9.1010027863304988e+00 +0.0000000000000000e+00 +2.3999999754620083e+00 -2.4768258663989101e-04 +0.0000000000000000e+00 +9.9999996932666757e-01
2.5000000000000009e+00 +9.1009775020373755e+00 +0.0000000000000000e+00 +2.4999999722650870e+00 -2.5800328346607454e-04 +0.0000000000000000e+00 +9.9999996671715219e-01
2.6000000000000010e+00 +9.1009511856722813e+00 +0.0000000000000000e+00 +2.5999999688018876e+00 -2.6832402599197687e-04 +0.0000000000000000e+00 +9.9999996400110780e-01
2.7000000000000011e+00 +9.1009238372306669e+00 +0.0000000000000000e+00 +2.6999999650617572e+00 -2.7864481383836246e-04 +0.0000000000000000e+00 +9.9999996117853307e-01
2.8000000000000012e+00 +9.1008954567080149e+00 +0.0000000000000000e+00 +2.7999999610340431e+00 -2.8896564666009843e-04 +0.0000000000000000e+00 +9.9999995824942667e-01
2.9000000000000012e+00 +9.1008660440998455e+00 +0.0000000000000000e+00 +2.8999999567080916e+00 -2.9928652414927504e-04 +0.0000000000000000e+00 +9.9999995521378726e-01
3.0000000000000013e+00 +9.1008355994017052e+00 +0.0000000000000000e+00 +2.9999999520732494e+00 -3.0960744603519830e-04 +0.0000000000000000e+00 +9.9999995207161352e-01
3.1000000000000014e+00 +9.1008041226091656e+00 +0.0000000000000000e+00 +3.0999999471188633e+00 -3.1992841208438211e-04 +0.0000000000000000e+00 +9.9999994882290422e-01
3.2000000000000015e+00 +9.1007716137178214e+00 +0.0000000000000000e+00 +3.1999999418342790e+00 -3.3024942210054035e-04 +0.0000000000000000e+00 +9.9999994546765802e-01
3.3000000000000016e+00 +9.1007380727232849e+00 +0.0000000000000000e+00 +3.2999999362088435e+00 -3.4057047592457856e-04 +0.0000000000000000e+00 +9.9999994200587372e-01
3.4000000000000017e+00 +9.1007034996211811e+00 +0.0000000000000000e+00 +3.3999999302319024e+00 -3.5089157343458528e-04 +0.0000000000000000e+00 +9.9999993843754986e-01
3.5000000000000018e+00 +9.1006678944071453e+00 +0.0000000000000000e+00 +3.4999999238928021e+00 -3.6121271454582330e-04 +0.0000000000000000e+00 +9.9999993476268523e-01
3.6000000000000019e+00 +9.1006312570768202e+00 +0.0000000000000000e+00 +3.5999999171808881e+00 -3.7153389921072065e-04 +0.0000000000000000e+00 +9.9999993098127837e-01
3.7000000000000020e+00 +9.1005935876258519e+00 +0.0000000000000000e+00 +3.6999999100855061e+00 -3.8185512741886106e-04 +0.0000000000000000e+00 +9.9999992709332808e-01
3.8000000000000020e+00 +9.1005548860498848e+00 +0.0000000000000000e+00 +3.7999999025960021e+00 -3.9217639919697446e-04 +0.0000000000000000e+00 +9.9999992309883290e-01
3.9000000000000021e+00 +9.1005151523445580e+00 +0.0000000000000000e+00 +3.8999998947017214e+00 -4.0249771460892702e-04 +0.0000000000000000e+00 +9.9999991899779150e-01
4.0000000000000018e+00 +9.1004743865055051e+00 +0.0000000000000000e+00 +3.9999998863920090e+00 -4.1281907375571099e-04 +0.0000000000000000e+00 +9.9999991479020245e-01
4.1000000000000014e+00 +9.1004325885283457e+00 +0.0000000000000000e+00 +4.0999998776562103e+00 -4.2314047677543431e-04 +0.0000000000000000e+00 +9.9999991047606440e-01
4.2000000000000011e+00 +9.1003897584086832e+00 +0.0000000000000000e+00 +4.1999998684836699e+00 -4.3346192384330974e-04 +0.0000000000000000e+00 +9.9999990605537581e-01
4.3000000000000007e+00 +9.1003458961421018e+00 +0.0000000000000000e+00 +4.2999998588637336e+00 -4.4378341517164414e-04 +0.0000000000000000e+00 +9.9999990152813534e-01
4.4000000000000004e+00 +9.1003010017241639e+00 +0.0000000000000000e+00 +4.3999998487857450e+00 -4.5410495100982697e-04 +0.0000000000000000e+00 +9.9999989689434143e-01
4.5000000000000000e+00 +9.1002550751504057e+00 +0.0000000000000000e+00 +4.4999998382390496e+00 -4.6442653164431900e-04 +0.0000000000000000e+00 +9.9999989215399254e-01
4.5999999999999996e+00 +9.1002081164163311e+00 +0.0000000000000000e+00 +4.5999998272129918e+00 -4.7474815739559920e-04 +0.0000000000000000e+00 +9.9999988730708722e-01
4.6999999999999993e+00 +9.1001601255174123e+00 +0.0000000000000000e+00 +4.6999998156969154e+00 -4.8506982858470213e-04 +0.0000000000000000e+00 +9.9999988235362380e-01
4.7999999999999989e+00 +9.1001111024490910e+00 +0.0000000000000000e+00 +4.7999998036801648e+00 -4.9539154549976437e-04 +0.0000000000000000e+00 +9.9999987729360085e-01
4.8999999999999986e+00 +9.1000610472067809e+00 +0.0000000000000000e+00 +4.8999997911520836e+00 -5.0571330839298864e-04 +0.0000000000000000e+00 +9.9999987212701669e-01
4.9999999999999982e+00 +9.1000099597858721e+00 +0.0000000000000000e+00 +4.9999997781020156e+00 -5.1603511748065007e-04 +0.0000000000000000e+00 +9.9999986685386988e-01
5.0999999999999979e+00 +9.0999578401817374e+00 +0.0000000000000000e+00 +5.0999997645193051e+00 -5.2635697294310310e-04 +0.0000000000000000e+00 +9.9999986147415887e-01
5.1999999999999975e+00 +9.0999046883897314e+00 +0.0000000000000000e+00 +5.1999997503932951e+00 -5.3667887492478905e-04 +0.0000000000000000e+00 +9.9999985598788221e-01
5.2999999999999972e+00 +9.0998505044051967e+00 +0.0000000000000000e+00 +5.2999997357133291e+00 -5.4700082353424412e-04 +0.0000000000000000e+00 +9.9999985039503836e-01
5.3999999999999968e+00 +9.0997952882234667e+00 +0.0000000000000000e+00 +5.3999997204687507e+00 -5.5732281884410869e-04 +0.0000000000000000e+00 +9.9999984469562575e-01
5.4999999999999964e+00 +9.0997390398398696e+00 +0.0000000000000000e+00 +5.4999997046489018e+00 -5.6764486089113644e-04 +0.0000000000000000e+00 +9.9999983888964294e-01
5.5999999999999961e+00 +9.0996817592497301e+00 +0.0000000000000000e+00 +5.5999996882431269e+00 -5.7796694967620482e-04 +0.0000000000000000e+00 +9.9999983297708861e-01
5.6999999999999957e+00 +9.0996234464483763e+00 +0.0000000000000000e+00 +5.6999996712407679e+00 -5.8828908516432587e-04 +0.0000000000000000e+00 +9.9999982695796119e-01
5.7999999999999954e+00 +9.0995641014311417e+00 +0.0000000000000000e+00 +5.7999996536311667e+00 -5.9861126728465771e-04 +0.0000000000000000e+00 +9.9999982083225936e-01
5.8999999999999950e+00 +9.0995037241933687e+00 +0.0000000000000000e+00 +5.8999996354036668e+00 -6.0893349593051679e-04 +0.0000000000000000e+00 +9.9999981459998166e-01
5.9999999999999947e+00 +9.0994423147304104e+00 +0.0000000000000000e+00 +5.9999996165476102e+00 -6.1925577095939071e-04 +0.0000000000000000e+00 +9.9999980826112678e-01
6.0999999999999943e+00 +9.0993798730376376e+00 +0.0000000000000000e+00 +6.0999995970523395e+00 -6.2957809219295194e-04 +0.0000000000000000e+00 +9.9999980181569337e-01
6.1999999999999940e+00 +9.0993163991104389e+00 +0.0000000000000000e+00 +6.1999995769071967e+00 -6.3990045941707166e-04 +0.0000000000000000e+00 +9.9999979526368010e-01
6.2999999999999936e+00 +9.0992518929442294e+00 +0.0000000000000000e+00 +6.2999995561015236e+00 -6.5022287238183495e-04 +0.0000000000000000e+00 +9.9999978860508576e-01
6.3999999999999932e+00 +9.0991863545344476e+00 +0.0000000000000000e+00 +6.3999995346246612e+00 -6.6054533080155619e-04 +0.0000000000000000e+00 +9.9999978183990912e-01
6.4999999999999929e+00 +9.0991197838765636e+00 +0.0000000000000000e+00 +6.4999995124659522e+00 -6.7086783435479523e-04 +0.0000000000000000e+00 +9.9999977496814907e-01
6.5999999999999925e+00 +9.0990521809660834e+00 +0.0000000000000000e+00 +6.5999994896147385e+00 -6.8119038268582186e-04 +0.0000000000000000e+00 +9.9999976798980428e-01
6.6999999999999922e+00 +9.0989835457985464e+00 +0.0000000000000000e+00 +6.6999994660603610e+00 -6.9151297542055588e-04 +0.0000000000000000e+00 +9.9999976090487375e-01
6.7999999999999918e+00 +9.0989138783695314e+00 +0.0000000000000000e+00 +6.7999994417921608e+00 -7.0183561218250471e-04 +0.0000000000000000e+00 +9.9999975371335637e-01
6.8999999999999915e+00 +9.0988431786746542e+00 +0.0000000000000000e+00 +6.8999994167994796e+00 -7.1215829259422463e-04 +0.0000000000000000e+00 +9.9999974641525091e-01
6.9999999999999911e+00 +9.0987714467095699e+00 +0.0000000000000000e+00 +6.9999993910716585e+00 -7.2248101627733351e-04 +0.0000000000000000e+00 +9.9999973901055639e-01
7.0999999999999908e+00 +9.0986986824699692e+00 +0.0000000000000000e+00 +7.0999993645980384e+00 -7.3280378285252540e-04 +0.0000000000000000e+00 +9.9999973149927179e-01
7.1999999999999904e+00 +9.0986248859515815e+00 +0.0000000000000000e+00 +7.1999993373679603e+00 -7.4312659193958447e-04 +0.0000000000000000e+00 +9.9999972388139602e-01
7.2999999999999901e+00 +9.0985500571501756e+00 +0.0000000000000000e+00 +7.2999993093707651e+00 -7.5344944315739999e-04 +0.0000000000000000e+00 +9.9999971615692795e-01
7.3999999999999897e+00 +9.0984741960615576e+00 +0.0000000000000000e+00 +7.3999992805957930e+00 -7.6377233612398153e-04 +0.0000000000000000e+00 +9.9999970832586671e-01
7.4999999999999893e+00 +9.0983973026815725e+00 +0.0000000000000000e+00 +7.4999992510323850e+00 -7.7409527045647474e-04 +0.0000000000000000e+00 +9.9999970038821118e-01
7.5999999999999890e+00 +9.0983193770061010e+00 +0.0000000000000000e+00 +7.5999992206698819e+00 -7.8441824577117744e-04 +0.0000000000000000e+00 +9.9999969234396047e-01
7.6999999999999886e+00 +9.0982404190310646e+00 +0.0000000000000000e+00 +7.6999991894976239e+00 -7.9474126168355629e-04 +0.0000000000000000e+00 +9.9999968419311358e-01
7.7999999999999883e+00 +9.0981604287524238e+00 +0.0000000000000000e+00 +7.7999991575049510e+00 -8.0506431780826384e-04 +0.0000000000000000e+00 +9.9999967593566952e-01
7.8999999999999879e+00 +9.0980794061661765e+00 +0.0000000000000000e+00 +7.8999991246812042e+00 -8.1538741375915627e-04 +0.0000000000000000e+00 +9.9999966757162739e-01
7.9999999999999876e+00 +9.0979973512683578e+00 +0.0000000000000000e+00 +7.9999990910157237e+00 -8.2571054914931099e-04 +0.0000000000000000e+00 +9.9999965910098632e-01
8.0999999999999872e+00 +9.0979142640550439e+00 +0.0000000000000000e+00 +8.0999990564978486e+00 -8.3603372359104540e-04 +0.0000000000000000e+00 +9.9999965052374540e-01
8.1999999999999869e+00 +9.0978301445223497e+00 +0.0000000000000000e+00 +8.1999990211169198e+00 -8.4635693669593559e-04 +0.0000000000000000e+00 +9.9999964183990364e-01
8.2999999999999865e+00 +9.0977449926664278e+00 +0.0000000000000000e+00 +8.2999989848622757e+00 -8.5668018807483583e-04 +0.0000000000000000e+00 +9.9999963304946027e-01
8.3999999999999861e+00 +9.0976588084834713e+00 +0.0000000000000000e+00 +8.3999989477232582e+00 -8.6700347733789814e-04 +0.0000000000000000e+00 +9.9999962415241439e-01
8.4999999999999858e+00 +9.0975715919697109e+00 +0.0000000000000000e+00 +8.4999989096892055e+00 -8.7732680409459277e-04 +0.0000000000000000e+00 +9.9999961514876523e-01
8.5999999999999854e+00 +9.0974833431214162e+00 +0.0000000000000000e+00 +8.5999988707494577e+00 -8.8765016795365535e-04 +0.0000000000000000e+00 +9.9999960603851190e-01
8.6999999999999851e+00 +9.0973940619348959e+00 +0.0000000000000000e+00 +8.6999988308933549e+00 -8.9797356852229298e-04 +0.0000000000000000e+00 +9.9999959682165362e-01
8.7999999999999847e+00 +9.0973037484064996e+00 +0.0000000000000000e+00 +8.7999987901102354e+00 -9.0829700540536904e-04 +0.0000000000000000e+00 +9.9999958749818973e-01
8.8999999999999844e+00 +9.0972124025326160e+00 +0.0000000000000000e+00 +8.8999987483894394e+00 -9.1862047820531051e-04 +0.0000000000000000e+00 +9.9999957806811934e-01
8.9999999999999840e+00 +9.0971200243096746e+00 +0.0000000000000000e+00 +8.9999987057203050e+00 -9.2894398652208754e-04 +0.0000000000000000e+00 +9.9999956853144167e-01
9.0999999999999837e+00 +9.0970266137341422e+00 +0.0000000000000000e+00 +9.0999986620921725e+00 -9.3926752995319269e-04 +0.0000000000000000e+00 +9.9999955888815606e-01
9.1999999999999833e+00 +9.0969321708025266e+00 +0.0000000000000000e+00 +9.1999986174943817e+00 -9.4959110809361908e-04 +0.0000000000000000e+00 +9.9999954913826183e-01
9.2999999999999829e+00 +9.0968366955113797e+00 +0.0000000000000000e+00 +9.2999985719162712e+00 -9.5991472053583789e-04 +0.0000000000000000e+00 +9.9999953928175822e-01
9.3999999999999826e+00 +9.0967401878572893e+00 +0.0000000000000000e+00 +9.3999985253471792e+00 -9.7023836686977523e-04 +0.0000000000000000e+00 +9.9999952931864466e-01
9.4999999999999822e+00 +9.0966426478368891e+00 +0.0000000000000000e+00 +9.4999984777764457e+00 -9.8056204668278820e-04 +0.0000000000000000e+00 +9.9999951924892050e-01
9.5999999999999819e+00 +9.0965440754468503e+00 +0.0000000000000000e+00 +9.5999984291934091e+00 -9.9088575955964017e-04 +0.0000000000000000e+00 +9.9999950907258506e-01
9.6999999999999815e+00 +9.0964444706838883e+00 +0.0000000000000000e+00 +9.6999983795874094e+00 -1.0012095050824759e-03 +0.0000000000000000e+00 +9.9999949878963768e-01
9.7999999999999812e+00 +9.0963438335447595e+00 +0.0000000000000000e+00 +9.7999983289477832e+00 -1.0115332828307948e-03 +0.0000000000000000e+00 +9.9999948840007780e-01
9.8999999999999808e+00 +9.0962421640262630e+00 +0.0000000000000000e+00 +9.8999982772638706e+00 -1.0218570923814247e-03 +0.0000000000000000e+00 +9.9999947790390487e-01
9.9999999999999805e+00 +9.0961394621252385e+00 +0.0000000000000000e+00 +9.9999982245250099e+00 -1.0321809333084942e-03 +0.0000000000000000e+00 +9.9999946730111833e-01
1.0099999999999980e+01 +9.0960357278385704e+00 +0.0000000000000000e+00 +1.0099998170720539e+01 -1.0425048051834044e-03 +0.0000000000000000e+00 +9.9999945659171774e-01
1.0199999999999980e+01 +9.0959309611631856e+00 +0.0000000000000000e+00 +1.0199998115839799e+01 -1.0528287075747998e-03 +0.0000000000000000e+00 +9.9999944577570243e-01
1.0299999999999979e+01 +9.0958251620960535e+00 +0.0000000000000000e+00 +1.0299998059872125e+01 -1.0631526400485388e-03 +0.0000000000000000e+00 +9.9999943485307208e-01
1.0399999999999979e+01 +9.0957183306341882e+00 +0.0000000000000000e+00 +1.0399998002806859e+01 -1.0734766021676639e-03 +0.0000000000000000e+00 +9.9999942382382612e-01
1.0499999999999979e+01 +9.0956104667746462e+00 +0.0000000000000000e+00 +1.0499997944633337e+01 -1.0838005934923694e-03 +0.0000000000000000e+00 +9.9999941268796411e-01
1.0599999999999978e+01 +9.0955015705145303e+00 +0.0000000000000000e+00 +1.0599997885340898e+01 -1.0941246135789807e-03 +0.0000000000000000e+00 +9.9999940144548560e-01
1.0699999999999978e+01 +9.0953916418509877e+00 +0.0000000000000000e+00 +1.0699997824918880e+01 -1.1044486619690393e-03 +0.0000000000000000e+00 +9.9999939009639027e-01
1.0799999999999978e+01 +9.0952806807812099e+00 +0.0000000000000000e+00 +1.0799997763356622e+01 -1.1147727381784090e-03 +0.0000000000000000e+00 +9.9999937864067778e-01
1.0899999999999977e+01 +9.0951686873024418e+00 +0.0000000000000000e+00 +1.0899997700643462e+01 -1.1250968416962937e-03 +0.0000000000000000e+00 +9.9999936707834780e-01
1.0999999999999977e+01 +9.0950556614119780e+00 +0.0000000000000000e+00 +1.0999997636768738e+01 -1.1354209719852462e-03 +0.0000000000000000e+00 +9.9999935540940010e-01
1.1099999999999977e+01 +9.0949416031071699e+00 +0.0000000000000000e+00 +1.1099997571721788e+01 -1.1457451284811767e-03 +0.0000000000000000e+00 +9.9999934363383458e-01
1.1199999999999976e+01 +9.0948265123854277e+00 +0.0000000000000000e+00 +1.1199997505491950e+01 -1.1560693105933622e-03 +0.0000000000000000e+00 +9.9999933175165101e-01
1.1299999999999976e+01 +9.0947103892442183e+00 +0.0000000000000000e+00 +1.1299997438068564e+01 -1.1663935177044554e-03 +0.0000000000000000e+00 +9.9999931976284928e-01
1.1399999999999975e+01 +9.0945932336810742e+00 +0.0000000000000000e+00 +1.1399997369440966e+01 -1.1767177491704944e-03 +0.0000000000000000e+00 +9.9999930766742939e-01
1.1499999999999975e+01 +9.0944750456935939e+00 +0.0000000000000000e+00 +1.1499997299598496e+01 -1.1870420043209125e-03 +0.0000000000000000e+00 +9.9999929546539146e-01
1.1599999999999975e+01 +9.0943558252794432e+00 +0.0000000000000000e+00 +1.1599997228530491e+01 -1.1973662824585481e-03 +0.0000000000000000e+00 +9.9999928315673559e-01
1.1699999999999974e+01 +9.0942355724363590e+00 +0.0000000000000000e+00 +1.1699997156226289e+01 -1.2076905828596557e-03 +0.0000000000000000e+00 +9.9999927074146178e-01
1.1799999999999974e+01 +9.0941142871621530e+00 +0.0000000000000000e+00 +1.1799997082675228e+01 -1.2180149047739154e-03 +0.0000000000000000e+00 +9.9999925821957036e-01
