# trajectory
# s[mm] rx[mm] ry[mm] rz[mm] px[rad] py[rad] pz[rad]
0.0000000000000000e+00 +9.0449999999999999e+00 +0.0000000000000000e+00 +0.0000000000000000e+00 +0.0000000000000000e+00 +0.0000000000000000e+00 +1.0000000000000000e+00
-1.0000000000000001e-01 +9.0449994831827887e+00 +0.0000000000000000e+00 -9.9999999998219319e-02 +1.0336345523404309e-05 +0.0000000000000000e+00 +9.9999999994657995e-01
-2.0000000000000001e-01 +9.0449979327306398e+00 +0.0000000000000000e+00 -1.9999999998575463e-01 +2.0672698726481687e-05 +0.0000000000000000e+00 +9.9999999978631970e-01
-3.0000000000000004e-01 +9.0449953486427930e+00 +0.0000000000000000e+00 -2.9999999995192195e-01 +3.1009059438863195e-05 +0.0000000000000000e+00 +9.9999999951921903e-01
-4.0000000000000002e-01 +9.0449917309185057e+00 +0.0000000000000000e+00 -3.9999999988603713e-01 +4.1345427504316376e-05 +0.0000000000000000e+00 +9.9999999914527771e-01
-5.0000000000000000e-01 +9.0449870795570515e+00 +0.0000000000000000e+00 -4.9999999977741616e-01 +5.1681802780743813e-05 +0.0000000000000000e+00 +9.9999999866449552e-01
-5.9999999999999998e-01 +9.0449813945577144e+00 +0.0000000000000000e+00 -5.9999999961537487e-01 +6.2018185140181806e-05 +0.0000000000000000e+00 +9.9999999807687223e-01
-6.9999999999999996e-01 +9.0449746759197911e+00 +0.0000000000000000e+00 -6.9999999938922919e-01 +7.2354574468799128e-05 +0.0000000000000000e+00 +9.9999999738240763e-01
-7.9999999999999993e-01 +9.0449669236425905e+00 +0.0000000000000000e+00 -7.9999999908829500e-01 +8.2690970666895883e-05 +0.0000000000000000e+00 +9.9999999658110150e-01
-8.9999999999999991e-01 +9.0449581377254304e+00 +0.0000000000000000e+00 -8.9999999870188807e-01 +9.3027373648902443e-05 +0.0000000000000000e+00 +9.9999999567295372e-01
-9.9999999999999989e-01 +9.0449483181676360e+00 +0.0000000000000000e+00 -9.9999999821932428e-01 +1.0336378334337850e-04 +0.0000000000000000e+00 +9.9999999465796396e-01
-1.0999999999999999e+00 +9.0449374649685392e+00 +0.0000000000000000e+00 -1.0999999976299195e+00 +1.1370019969301219e-04 +0.0000000000000000e+00 +9.9999999353613211e-01
-1.2000000000000000e+00 +9.0449255781274776e+00 +0.0000000000000000e+00 -1.1999999969229893e+00 +1.2403662265461933e-04 +0.0000000000000000e+00 +9.9999999230745795e-01
-1.3000000000000000e+00 +9.0449126576437902e+00 +0.0000000000000000e+00 -1.2999999960878497e+00 +1.3437305219914276e-04 +0.0000000000000000e+00 +9.9999999097194125e-01
-1.4000000000000001e+00 +9.0448987035168198e+00 +0.0000000000000000e+00 -1.3999999951138162e+00 +1.4470948831165169e-04 +0.0000000000000000e+00 +9.9999998952958180e-01
-1.5000000000000002e+00 +9.0448837157459092e+00 +0.0000000000000000e+00 -1.4999999939902047e+00 +1.5504593099134131e-04 +0.0000000000000000e+00 +9.9999998798037948e-01
-1.6000000000000003e+00 +9.0448676943304012e+00 +0.0000000000000000e+00 -1.5999999927063306e+00 +1.6538238025153230e-04 +0.0000000000000000e+00 +9.9999998632433396e-01
-1.7000000000000004e+00 +9.0448506392696384e+00 +0.0000000000000000e+00 -1.6999999912515100e+00 +1.7571883611967054e-04 +0.0000000000000000e+00 +9.9999998456144512e-01
-1.8000000000000005e+00 +9.0448325505629565e+00 +0.0000000000000000e+00 -1.7999999896150582e+00 +1.8605529863732702e-04 +0.0000000000000000e+00 +9.9999998269171275e-01
-1.9000000000000006e+00 +9.0448134282096877e+00 +0.0000000000000000e+00 -1.8999999877862910e+00 +1.9639176786019752e-04 +0.0000000000000000e+00 +9.9999998071513652e-01
-2.0000000000000004e+00 +9.0447932722091586e+00 +0.0000000000000000e+00 -1.9999999857545239e+00 +2.0672824385810275e-04 +0.0000000000000000e+00 +9.9999997863171630e-01
-2.1000000000000005e+00 +9.0447720825606872e+00 +0.0000000000000000e+00 -2.0999999835090728e+00 +2.1706472671421804e-04 +0.0000000000000000e+00 +9.9999997644145189e-01
-2.2000000000000006e+00 +9.0447498592635842e+00 +0.0000000000000000e+00 -2.1999999810392530e+00 +2.2740121651659942e-04 +0.0000000000000000e+00 +9.9999997414434294e-01
-2.3000000000000007e+00 +9.0447266023171498e+00 +0.0000000000000000e+00 -2.2999999783343799e+00 +2.3773771334970999e-04 +0.0000000000000000e+00 +9.9999997174038935e-01
-2.4000000000000008e+00 +9.0447023117206768e+00 +0.0000000000000000e+00 -2.3999999753837691e+00 +2.4807421729364975e-04 +0.0000000000000000e+00 +9.9999996922959078e-01
-2.5000000000000009e+00 +9.0446769874734514e+00 +0.0000000000000000e+00 -2.4999999721767363e+00 +2.5841072842415594e-04 +0.0000000000000000e+00 +9.9999996661194701e-01
-2.6000000000000010e+00 +9.0446506295747504e+00 +0.0000000000000000e+00 -2.5999999687025968e+00 +2.6874724681260357e-04 +0.0000000000000000e+00 +9.9999996388745782e-01
-2.7000000000000011e+00 +9.0446232380238456e+00 +0.0000000000000000e+00 -2.6999999649506661e+00 +2.7908377252600574e-04 +0.0000000000000000e+00 +9.9999996105612299e-01
-2.8000000000000012e+00 +9.0445948128199998e+00 +0.0000000000000000e+00 -2.7999999609102595e+00 +2.8942030562701440e-04 +0.0000000000000000e+00 +9.9999995811794229e-01
-2.9000000000000012e+00 +9.0445653539624722e+00 +0.0000000000000000e+00 -2.8999999565706926e+00 +2.9975684617392101e-04 +0.0000000000000000e+00 +9.9999995507291539e-01
-3.0000000000000013e+00 +9.0445348614505150e+00 +0.0000000000000000e+00 -2.9999999519212808e+00 +3.1009339422065720e-04 +0.0000000000000000e+00 +9.9999995192104207e-01
-3.1000000000000014e+00 +9.0445033352833768e+00 +0.0000000000000000e+00 -3.0999999469513395e+00 +3.2042994981679580e-04 +0.0000000000000000e+00 +9.9999994866232211e-01
-3.2000000000000015e+00 +9.0444707754602991e+00 +0.0000000000000000e+00 -3.1999999416501836e+00 +3.3076651300755150e-04 +0.0000000000000000e+00 +9.9999994529675529e-01
-3.3000000000000016e+00 +9.0444371819805216e+00 +0.0000000000000000e+00 -3.2999999360071288e+00 +3.4110308383378219e-04 +0.0000000000000000e+00 +9.9999994182434127e-01
-3.4000000000000017e+00 +9.0444025548432769e+00 +0.0000000000000000e+00 -3.3999999300114903e+00 +3.5143966233198981e-04 +0.0000000000000000e+00 +9.9999993824507982e-01
-3.5000000000000018e+00 +9.0443668940477977e+00 +0.0000000000000000e+00 -3.4999999236525832e+00 +3.6177624853432161e-04 +0.0000000000000000e+00 +9.9999993455897074e-01
-3.6000000000000019e+00 +9.0443301995933130e+00 +0.0000000000000000e+00 -3.5999999169197228e+00 +3.7211284246857149e-04 +0.0000000000000000e+00 +9.9999993076601368e-01
-3.7000000000000020e+00 +9.0442924714790465e+00 +0.0000000000000000e+00 -3.6999999098022243e+00 +3.8244944415818119e-04 +0.0000000000000000e+00 +9.9999992686620853e-01
-3.8000000000000020e+00 +9.0442537097042219e+00 +0.0000000000000000e+00 -3.7999999022894029e+00 +3.9278605362224196e-04 +0.0000000000000000e+00 +9.9999992285955497e-01
-3.9000000000000021e+00 +9.0442139142680613e+00 +0.0000000000000000e+00 -3.8999998943705738e+00 +4.0312267087549590e-04 +0.0000000000000000e+00 +9.9999991874605276e-01
-4.0000000000000018e+00 +9.0441730851697866e+00 +0.0000000000000000e+00 -3.9999998860350519e+00 +4.1345929592833758e-04 +0.0000000000000000e+00 +9.9999991452570158e-01
-4.1000000000000014e+00 +9.0441312224086161e+00 +0.0000000000000000e+00 -4.0999998772721522e+00 +4.2379592878731808e-04 +0.0000000000000000e+00 +9.9999991019850132e-01
-4.2000000000000011e+00 +9.0440883259837683e+00 +0.0000000000000000e+00 -4.1999998680711901e+00 +4.3413256946067214e-04 +0.0000000000000000e+00 +9.9999990576445164e-01
-4.3000000000000007e+00 +9.0440443958944616e+00 +0.0000000000000000e+00 -4.2999998584214811e+00 +4.4446921796384539e-04 +0.0000000000000000e+00 +9.9999990122355231e-01
-4.4000000000000004e+00 +9.0439994321399126e+00 +0.0000000000000000e+00 -4.3999998483123397e+00 +4.5480587431999869e-04 +0.0000000000000000e+00 +9.9999989657580302e-01
-4.5000000000000000e+00 +9.0439534347193344e+00 +0.0000000000000000e+00 -4.4999998377330801e+00 +4.6514253856001005e-04 +0.0000000000000000e+00 +9.9999989182120363e-01
-4.5999999999999996e+00 +9.0439064036319365e+00 +0.0000000000000000e+00 -4.5999998266730184e+00 +4.7547921072247669e-04 +0.0000000000000000e+00 +9.9999988695975373e-01
-4.6999999999999993e+00 +9.0438583388769249e+00 +0.0000000000000000e+00 -4.6999998151214690e+00 +4.8581589085371746e-04 +0.0000000000000000e+00 +9.9999988199145318e-01
-4.7999999999999989e+00 +9.0438092404534984e+00 +0.0000000000000000e+00 -4.7999998030677471e+00 +4.9615257900777492e-04 +0.0000000000000000e+00 +9.9999987691630166e-01
-4.8999999999999986e+00 +9.0437591083608542e+00 +0.0000000000000000e+00 -4.8999997905011679e+00 +5.0648927524641761e-04 +0.0000000000000000e+00 +9.9999987173429883e-01
-4.9999999999999982e+00 +9.0437079425981786e+00 +0.0000000000000000e+00 -4.9999997774110456e+00 +5.1682597963914286e-04 +0.0000000000000000e+00 +9.9999986644544447e-01
-5.0999999999999979e+00 +9.0436557431646527e+00 +0.0000000000000000e+00 -5.0999997637866956e+00 +5.2716269226317904e-04 +0.0000000000000000e+00 +9.9999986104973826e-01
-5.1999999999999975e+00 +9.0436025100594488e+00 +0.0000000000000000e+00 -5.1999997496174322e+00 +5.3749941320348812e-04 +0.0000000000000000e+00 +9.9999985554717996e-01
-5.2999999999999972e+00 +9.0435482432817320e+00 +0.0000000000000000e+00 -5.2999997348925705e+00 +5.4783614255276853e-04 +0.0000000000000000e+00 +9.9999984993776914e-01
-5.3999999999999968e+00 +9.0434929428306550e+00 +0.0000000000000000e+00 -5.3999997196014249e+00 +5.5817288041145794e-04 +0.0000000000000000e+00 +9.9999984422150556e-01
-5.4999999999999964e+00 +9.0434366087053615e+00 +0.0000000000000000e+00 -5.4999997037333097e+00 +5.6850962688773598e-04 +0.0000000000000000e+00 +9.9999983839838891e-01
-5.5999999999999961e+00 +9.0433792409049847e+00 +0.0000000000000000e+00 -5.5999996872775402e+00 +5.7884638209752728e-04 +0.0000000000000000e+00 +9.9999983246841884e-01
-5.6999999999999957e+00 +9.0433208394286453e+00 +0.0000000000000000e+00 -5.6999996702234315e+00 +5.8918314616450450e-04 +0.0000000000000000e+00 +9.9999982643159502e-01
-5.7999999999999954e+00 +9.0432614042754516e+00 +0.0000000000000000e+00 -5.7999996525602979e+00 +5.9951991922009150e-04 +0.0000000000000000e+00 +9.9999982028791701e-01
-5.8999999999999950e+00 +9.0432009354444975e+00 +0.0000000000000000e+00 -5.8999996342774530e+00 +6.0985670140346632e-04 +0.0000000000000000e+00 +9.9999981403738447e-01
-5.9999999999999947e+00 +9.0431394329348613e+00 +0.0000000000000000e+00 -5.9999996153642128e+00 +6.2019349286156482e-04 +0.0000000000000000e+00 +9.9999980767999708e-01
-6.0999999999999943e+00 +9.0430768967456103e+00 +0.0000000000000000e+00 -6.0999995958098907e+00 +6.3053029374872198e-04 +0.0000000000000000e+00 +9.9999980121575449e-01
-6.1999999999999940e+00 +9.0430133268757924e+00 +0.0000000000000000e+00 -6.1999995756038020e+00 +6.4086710422269627e-04 +0.0000000000000000e+00 +9.9999979464465616e-01
-6.2999999999999936e+00 +9.0429487233244412e+00 +0.0000000000000000e+00 -6.2999995547352601e+00 +6.5120392444068843e-04 +0.0000000000000000e+00 +9.9999978796670175e-01
-6.3999999999999932e+00 +9.0428830860905745e+00 +0.0000000000000000e+00 -6.3999995331935802e+00 +6.6154075455897440e-04 +0.0000000000000000e+00 +9.9999978118189092e-01
-6.4999999999999929e+00 +9.0428164151731938e+00 +0.0000000000000000e+00 -6.4999995109680766e+00 +6.7187759473289941e-04 +0.0000000000000000e+00 +9.9999977429022324e-01
-6.5999999999999925e+00 +9.0427487105712867e+00 +0.0000000000000000e+00 -6.5999994880480628e+00 +6.8221444511687142e-04 +0.0000000000000000e+00 +9.9999976729169826e-01
-6.6999999999999922e+00 +9.0426799722838247e+00 +0.0000000000000000e+00 -6.6999994644228540e+00 +6.9255130586435491e-04 +0.0000000000000000e+00 +9.9999976018631553e-01
-6.7999999999999918e+00 +9.0426102003097633e+00 +0.0000000000000000e+00 -6.7999994400817636e+00 +7.0288817712786406e-04 +0.0000000000000000e+00 +9.9999975297407462e-01
-6.8999999999999915e+00 +9.0425393946480437e+00 +0.0000000000000000e+00 -6.8999994150141069e+00 +7.1322505905895527e-04 +0.0000000000000000e+00 +9.9999974565497507e-01
-6.9999999999999911e+00 +9.0424675552975913e+00 +0.0000000000000000e+00 -6.9999993892091972e+00 +7.2356195180822030e-04 +0.0000000000000000e+00 +9.9999973822901655e-01
-7.0999999999999908e+00 +9.0423946822573171e+00 +0.0000000000000000e+00 -7.0999993626563480e+00 +7.3389885552527820e-04 +0.0000000000000000e+00 +9.9999973069619852e-01
-7.1999999999999904e+00 +9.0423207755261163e+00 +0.0000000000000000e+00 -7.1999993353448746e+00 +7.4423577035876765e-04 +0.0000000000000000e+00 +9.9999972305652052e-01
-7.2999999999999901e+00 +9.0422458351028698e+00 +0.0000000000000000e+00 -7.2999993072640903e+00 +7.5457269645633847e-04 +0.0000000000000000e+00 +9.9999971530998222e-01
-7.3999999999999897e+00 +9.0421698609864443e+00 +0.0000000000000000e+00 -7.3999992784033086e+00 +7.6490963396464329e-04 +0.0000000000000000e+00 +9.9999970745658295e-01
-7.4999999999999893e+00 +9.0420928531756921e+00 +0.0000000000000000e+00 -7.4999992487518448e+00 +7.7524658302932886e-04 +0.0000000000000000e+00 +9.9999969949632239e-01
-7.5999999999999890e+00 +9.0420148116694499e+00 +0.0000000000000000e+00 -7.5999992182990113e+00 +7.8558354379502666e-04 +0.0000000000000000e+00 +9.9999969142920009e-01
-7.6999999999999886e+00 +9.0419357364665398e+00 +0.0000000000000000e+00 -7.6999991870341224e+00 +7.9592051640534392e-04 +0.0000000000000000e+00 +9.9999968325521549e-01
-7.7999999999999883e+00 +9.0418556275657700e+00 +0.0000000000000000e+00 -7.7999991549464918e+00 +8.0625750100285368e-04 +0.0000000000000000e+00 +9.9999967497436804e-01
-7.8999999999999879e+00 +9.0417744849659343e+00 +0.0000000000000000e+00 -7.8999991220254335e+00 +8.1659449772908507e-04 +0.0000000000000000e+00 +9.9999966658665740e-01
-7.9999999999999876e+00 +9.0416923086658141e+00 +0.0000000000000000e+00 -7.9999990882602612e+00 +8.2693150672451298e-04 +0.0000000000000000e+00 +9.9999965809208302e-01
-8.0999999999999872e+00 +9.0416090986641748e+00 +0.0000000000000000e+00 -8.0999990536402873e+00 +8.3726852812838234e-04 +0.0000000000000000e+00 +9.9999964949064435e-01
-8.1999999999999869e+00 +9.0415248549597695e+00 +0.0000000000000000e+00 -8.1999990181548270e+00 +8.4760556207687894e-04 +0.0000000000000000e+00 +9.9999964078234094e-01
-8.2999999999999865e+00 +9.0414395775513370e+00 +0.0000000000000000e+00 -8.2999989817931930e+00 +8.5794260870130843e-04 +0.0000000000000000e+00 +9.9999963196717223e-01
-8.3999999999999861e+00 +9.0413532664376035e+00 +0.0000000000000000e+00 -8.3999989445446985e+00 +8.6827966812793548e-04 +0.0000000000000000e+00 +9.9999962304513779e-01
-8.4999999999999858e+00 +9.0412659216172813e+00 +0.0000000000000000e+00 -8.4999989063986572e+00 +8.7861674047798799e-04 +0.0000000000000000e+00 +9.9999961401623705e-01
-8.5999999999999854e+00 +9.0411775430890735e+00 +0.0000000000000000e+00 -8.5999988673443823e+00 +8.8895382586766185e-04 +0.0000000000000000e+00 +9.9999960488046957e-01
-8.6999999999999851e+00 +9.0410881308516693e+00 +0.0000000000000000e+00 -8.6999988273711875e+00 +8.9929092440812607e-04 +0.0000000000000000e+00 +9.9999959563783480e-01
-8.7999999999999847e+00 +9.0409976849037488e+00 +0.0000000000000000e+00 -8.7999987864683860e+00 +9.0962803620552805e-04 +0.0000000000000000e+00 +9.9999958628833219e-01
-8.8999999999999844e+00 +9.0409062052439815e+00 +0.0000000000000000e+00 -8.8999987446252913e+00 +9.1996516136099848e-04 +0.0000000000000000e+00 +9.9999957683196128e-01
-8.9999999999999840e+00 +9.0408136918710280e+00 +0.0000000000000000e+00 -8.9999987018312169e+00 +9.3030229997065729e-04 +0.0000000000000000e+00 +9.9999956726872163e-01
-9.0999999999999837e+00 +9.0407201447835366e+00 +0.0000000000000000e+00 -9.0999986580754744e+00 +9.4063945212561923e-04 +0.0000000000000000e+00 +9.9999955759861259e-01
-9.1999999999999833e+00 +9.0406255639801483e+00 +0.0000000000000000e+00 -9.1999986133473772e+00 +9.5097661791199975e-04 +0.0000000000000000e+00 +9.9999954782163381e-01
-9.2999999999999829e+00 +9.0405299494594971e+00 +0.0000000000000000e+00 -9.2999985676362389e+00 +9.6131379741092103e-04 +0.0000000000000000e+00 +9.9999953793778462e-01
-9.3999999999999826e+00 +9.0404333012202063e+00 +0.0000000000000000e+00 -9.3999985209313728e+00 +9.7165099069851846e-04 +0.0000000000000000e+00 +9.9999952794706459e-01
-9.4999999999999822e+00 +9.0403356192608957e+00 +0.0000000000000000e+00 -9.4999984732220906e+00 +9.8198819784594670e-04 +0.0000000000000000e+00 +9.9999951784947327e-01
-9.5999999999999819e+00 +9.0402369035801744e+00 +0.0000000000000000e+00 -9.5999984244977057e+00 +9.9232541891938709e-04 +0.0000000000000000e+00 +9.9999950764501011e-01
-9.6999999999999815e+00 +9.0401371541766462e+00 +0.0000000000000000e+00 -9.6999983747475298e+00 +1.0026626539800534e-03 +0.0000000000000000e+00 +9.9999949733367466e-01
-9.7999999999999812e+00 +9.0400363710489096e+00 +0.0000000000000000e+00 -9.7999983239608781e+00 +1.0129999030842000e-03 +0.0000000000000000e+00 +9.9999948691546636e-01
-9.8999999999999808e+00 +9.0399345541955594e+00 +0.0000000000000000e+00 -9.8999982721270605e+00 +1.0233371662831281e-03 +0.0000000000000000e+00 +9.9999947639038478e-01
-9.9999999999999805e+00 +9.0398317036151816e+00 +0.0000000000000000e+00 -9.9999982192353922e+00 +1.0336744436231942e-03 +0.0000000000000000e+00 +9.9999946575842935e-01
-1.0099999999999980e+01 +9.0397278193063624e+00 +0.0000000000000000e+00 -1.0099998165275185e+01 +1.0440117351459088e-03 +0.0000000000000000e+00 +9.9999945501959975e-01
-1.0199999999999980e+01 +9.0396229012676788e+00 +0.0000000000000000e+00 -1.0199998110235750e+01 +1.0543490408889615e-03 +0.0000000000000000e+00 +9.9999944417389530e-01
-1.0299999999999979e+01 +9.0395169494977097e+00 +0.0000000000000000e+00 -1.0299998054106402e+01 +1.0646863608872372e-03 +0.0000000000000000e+00 +9.9999943322131568e-01
-1.0399999999999979e+01 +9.0394099639950252e+00 +0.0000000000000000e+00 -1.0399997996876451e+01 +1.0750236951729073e-03 +0.0000000000000000e+00 +9.9999942216186033e-01
-1.0499999999999979e+01 +9.0393019447581970e+00 +0.0000000000000000e+00 -1.0499997938535211e+01 +1.0853610437754257e-03 +0.0000000000000000e+00 +9.9999941099552869e-01
-1.0599999999999978e+01 +9.0391928917857918e+00 +0.0000000000000000e+00 -1.0599997879071994e+01 +1.0956984067215262e-03 +0.0000000000000000e+00 +9.9999939972232044e-01
-1.0699999999999978e+01 +9.0390828050763741e+00 +0.0000000000000000e+00 -1.0699997818476112e+01 +1.1060357840352196e-03 +0.0000000000000000e+00 +9.9999938834223501e-01
-1.0799999999999978e+01 +9.0389716846285051e+00 +0.0000000000000000e+00 -1.0799997756736877e+01 +1.1163731757377897e-03 +0.0000000000000000e+00 +9.9999937685527196e-01
-1.0899999999999977e+01 +9.0388595304407460e+00 +0.0000000000000000e+00 -1.0899997693843602e+01 +1.1267105818477910e-03 +0.0000000000000000e+00 +9.9999936526143085e-01
-1.0999999999999977e+01 +9.0387463425116543e+00 +0.0000000000000000e+00 -1.0999997629785600e+01 +1.1370480023810449e-03 +0.0000000000000000e+00 +9.9999935356071112e-01
-1.1099999999999977e+01 +9.0386321208397877e+00 +0.0000000000000000e+00 -1.1099997564552181e+01 +1.1473854373506356e-03 +0.0000000000000000e+00 +9.9999934175311234e-01
-1.1199999999999976e+01 +9.0385168654237020e+00 +0.0000000000000000e+00 -1.1199997498132658e+01 +1.1577228867669081e-03 +0.0000000000000000e+00 +9.9999932983863404e-01
-1.1299999999999976e+01 +9.0384005762619530e+00 +0.0000000000000000e+00 -1.1299997430516344e+01 +1.1680603506374629e-03 +0.0000000000000000e+00 +9.9999931781727580e-01
-1.1399999999999975e+01 +9.0382832533530930e+00 +0.0000000000000000e+00 -1.1399997361692551e+01 +1.1783978289671537e-03 +0.0000000000000000e+00 +9.9999930568903717e-01
-1.1499999999999975e+01 +9.0381648966956778e+00 +0.0000000000000000e+00 -1.1499997291650589e+01 +1.1887353217580829e-03 +0.0000000000000000e+00 +9.9999929345391769e-01
-1.1599999999999975e+01 +9.0380455062882596e+00 +0.0000000000000000e+00 -1.1599997220379771e+01 +1.1990728290095982e-03 +0.0000000000000000e+00 +9.9999928111191683e-01
-1.1699999999999974e+01 +9.0379250821293944e+00 +0.0000000000000000e+00 -1.1699997147869409e+01 +1.2094103507182886e-03 +0.0000000000000000e+00 +9.9999926866303424e-01
