# trajectory
# s[mm] rx[mm] ry[mm] rz[mm] px[rad] py[rad] pz[rad]
0.0000000000000000e+00 +9.0449999999999999e+00 +0.0000000000000000e+00 +0.0000000000000000e+00 +0.0000000000000000e+00 +0.0000000000000000e+00 +1.0000000000000000e+00
1.0000000000000001e-01 +9.0449994827995077e+00 +0.0000000000000000e+00 +9.9999999998216682e-02 -1.0344001267189478e-05 +0.0000000000000000e+00 +9.9999999994650079e-01
2.0000000000000001e-01 +9.0449979312014701e+00 +0.0000000000000000e+00 +1.9999999998573359e-01 -2.0687950853887028e-05 +0.0000000000000000e+00 +9.9999999978600429e-01
3.0000000000000004e-01 +9.0449953452110687e+00 +0.0000000000000000e+00 +2.9999999995185100e-01 -3.1031848475756344e-05 +0.0000000000000000e+00 +9.9999999951851215e-01
4.0000000000000002e-01 +9.0449917248335154e+00 +0.0000000000000000e+00 +3.9999999988586954e-01 -4.1375693848522829e-05 +0.0000000000000000e+00 +9.9999999914402593e-01
5.0000000000000000e-01 +9.0449870700740505e+00 +0.0000000000000000e+00 +4.9999999977708981e-01 -5.1719486687971259e-05 +0.0000000000000000e+00 +9.9999999866254730e-01
5.9999999999999998e-01 +9.0449813809379389e+00 +0.0000000000000000e+00 +5.9999999961481265e-01 -6.2063226709943765e-05 +0.0000000000000000e+00 +9.9999999807407791e-01
6.9999999999999996e-01 +9.0449746574304779e+00 +0.0000000000000000e+00 +6.9999999938833912e-01 -7.2406913630338089e-05 +0.0000000000000000e+00 +9.9999999737861944e-01
7.9999999999999993e-01 +9.0449668995569930e+00 +0.0000000000000000e+00 +7.9999999908697028e-01 -8.2750547165106171e-05 +0.0000000000000000e+00 +9.9999999657617344e-01
8.9999999999999991e-01 +9.0449581073228345e+00 +0.0000000000000000e+00 +8.9999999870000758e-01 -9.3094127030252935e-05 +0.0000000000000000e+00 +9.9999999566674169e-01
9.9999999999999989e-01 +9.0449482807333847e+00 +0.0000000000000000e+00 +9.9999999821675245e-01 -1.0343765294183551e-04 +0.0000000000000000e+00 +9.9999999465032596e-01
1.0999999999999999e+00 +9.0449374197940529e+00 +0.0000000000000000e+00 +1.0999999976265067e+00 -1.1378112461596264e-04 +0.0000000000000000e+00 +9.9999999352692781e-01
1.2000000000000000e+00 +9.0449255245102780e+00 +0.0000000000000000e+00 +1.1999999969185720e+00 -1.2412454176879441e-04 +0.0000000000000000e+00 +9.9999999229654901e-01
1.3000000000000000e+00 +9.0449125948875260e+00 +0.0000000000000000e+00 +1.2999999960822504e+00 -1.3446790411654231e-04 +0.0000000000000000e+00 +9.9999999095919134e-01
1.4000000000000001e+00 +9.0448986309312911e+00 +0.0000000000000000e+00 +1.3999999951068443e+00 -1.4481121137546952e-04 +0.0000000000000000e+00 +9.9999998951485647e-01
1.5000000000000002e+00 +9.0448836326470961e+00 +0.0000000000000000e+00 +1.4999999939816557e+00 -1.5515446326189153e-04 +0.0000000000000000e+00 +9.9999998796354617e-01
1.6000000000000003e+00 +9.0448676000404937e+00 +0.0000000000000000e+00 +1.5999999926959876e+00 -1.6549765949217711e-04 +0.0000000000000000e+00 +9.9999998630526221e-01
1.7000000000000004e+00 +9.0448505331170619e+00 +0.0000000000000000e+00 +1.6999999912391424e+00 -1.7584079978274944e-04 +0.0000000000000000e+00 +9.9999998454000638e-01
1.8000000000000005e+00 +9.0448324318824103e+00 +0.0000000000000000e+00 +1.7999999896004231e+00 -1.8618388385008760e-04 +0.0000000000000000e+00 +9.9999998266778045e-01
1.9000000000000006e+00 +9.0448132963421752e+00 +0.0000000000000000e+00 +1.8999999877691327e+00 -1.9652691141072850e-04 +0.0000000000000000e+00 +9.9999998068858631e-01
2.0000000000000004e+00 +9.0447931265020216e+00 +0.0000000000000000e+00 +1.9999999857345747e+00 -2.0686988218126878e-04 +0.0000000000000000e+00 +9.9999997860242562e-01
2.1000000000000005e+00 +9.0447719223676426e+00 +0.0000000000000000e+00 +2.0999999834860525e+00 -2.1721279587936292e-04 +0.0000000000000000e+00 +9.9999997640930027e-01
2.2000000000000006e+00 +9.0447496839447581e+00 +0.0000000000000000e+00 +2.1999999810128696e+00 -2.2755565223467740e-04 +0.0000000000000000e+00 +9.9999997410921215e-01
2.3000000000000007e+00 +9.0447264112391164e+00 +0.0000000000000000e+00 +2.2999999783043297e+00 -2.3789845099984460e-04 +0.0000000000000000e+00 +9.9999997170216304e-01
2.4000000000000008e+00 +9.0447021042564870e+00 +0.0000000000000000e+00 +2.3999999753497367e+00 -2.4824119195146065e-04 +0.0000000000000000e+00 +9.9999996918815481e-01
2.5000000000000009e+00 +9.0446767630026610e+00 +0.0000000000000000e+00 +2.4999999721383954e+00 -2.5858387489008795e-04 +0.0000000000000000e+00 +9.9999996656718926e-01
2.6000000000000010e+00 +9.0446503874834487e+00 +0.0000000000000000e+00 +2.5999999686596098e+00 -2.6892649964025772e-04 +0.0000000000000000e+00 +9.9999996383926826e-01
2.7000000000000011e+00 +9.0446229777046767e+00 +0.0000000000000000e+00 +2.6999999649026840e+00 -2.7926906605047294e-04 +0.0000000000000000e+00 +9.9999996100439359e-01
2.8000000000000012e+00 +9.0445945336721874e+00 +0.0000000000000000e+00 +2.7999999608569235e+00 -2.8961157399321131e-04 +0.0000000000000000e+00 +9.9999995806256725e-01
2.9000000000000012e+00 +9.0445650553918302e+00 +0.0000000000000000e+00 +2.8999999565116328e+00 -2.9995402336492838e-04 +0.0000000000000000e+00 +9.9999995501379091e-01
3.0000000000000013e+00 +9.0445345428694690e+00 +0.0000000000000000e+00 +2.9999999518561169e+00 -3.1029641408606107e-04 +0.0000000000000000e+00 +9.9999995185806656e-01
3.1000000000000014e+00 +9.0445029961109711e+00 +0.0000000000000000e+00 +3.0999999468796813e+00 -3.2063874610103115e-04 +0.0000000000000000e+00 +9.9999994859539598e-01
3.2000000000000015e+00 +9.0444704151222073e+00 +0.0000000000000000e+00 +3.1999999415716314e+00 -3.3098101937824905e-04 +0.0000000000000000e+00 +9.9999994522578095e-01
3.3000000000000016e+00 +9.0444367999090538e+00 +0.0000000000000000e+00 +3.2999999359212726e+00 -3.4132323391011782e-04 +0.0000000000000000e+00 +9.9999994174922335e-01
3.4000000000000017e+00 +9.0444021504773833e+00 +0.0000000000000000e+00 +3.3999999299179113e+00 -3.5166538971303726e-04 +0.0000000000000000e+00 +9.9999993816572497e-01
3.5000000000000018e+00 +9.0443664668330666e+00 +0.0000000000000000e+00 +3.4999999235508530e+00 -3.6200748682740821e-04 +0.0000000000000000e+00 +9.9999993447528768e-01
3.6000000000000019e+00 +9.0443297489819710e+00 +0.0000000000000000e+00 +3.5999999168094043e+00 -3.7234952531763722e-04 +0.0000000000000000e+00 +9.9999993067791315e-01
3.7000000000000020e+00 +9.0442919969299549e+00 +0.0000000000000000e+00 +3.6999999096828713e+00 -3.8269150527214107e-04 +0.0000000000000000e+00 +9.9999992677360328e-01
3.8000000000000020e+00 +9.0442532106828644e+00 +0.0000000000000000e+00 +3.7999999021605606e+00 -3.9303342680335182e-04 +0.0000000000000000e+00 +9.9999992276235983e-01
3.9000000000000021e+00 +9.0442133902465365e+00 +0.0000000000000000e+00 +3.8999998942317791e+00 -4.0337529004772177e-04 +0.0000000000000000e+00 +9.9999991864418447e-01
4.0000000000000018e+00 +9.0441725356267924e+00 +0.0000000000000000e+00 +3.9999998858858334e+00 -4.1371709516572878e-04 +0.0000000000000000e+00 +9.9999991441907898e-01
4.1000000000000014e+00 +9.0441306468294353e+00 +0.0000000000000000e+00 +4.0999998771120305e+00 -4.2405884234150297e-04 +0.0000000000000000e+00 +9.9999991008704514e-01
4.2000000000000011e+00 +9.0440877238602493e+00 +0.0000000000000000e+00 +4.1999998678996784e+00 -4.3440053177866319e-04 +0.0000000000000000e+00 +9.9999990564808461e-01
4.3000000000000007e+00 +9.0440437667249967e+00 +0.0000000000000000e+00 +4.2999998582380838e+00 -4.4474216369614662e-04 +0.0000000000000000e+00 +9.9999990110219905e-01
4.4000000000000004e+00 +9.0439987754294187e+00 +0.0000000000000000e+00 +4.3999998481165541e+00 -4.5508373832782266e-04 +0.0000000000000000e+00 +9.9999989644939025e-01
4.5000000000000000e+00 +9.0439527499792316e+00 +0.0000000000000000e+00 +4.4999998375243973e+00 -4.6542525592248459e-04 +0.0000000000000000e+00 +9.9999989168965975e-01
4.5999999999999996e+00 +9.0439056903801269e+00 +0.0000000000000000e+00 +4.5999998264509214e+00 -4.7576671674384090e-04 +0.0000000000000000e+00 +9.9999988682300922e-01
4.6999999999999993e+00 +9.0438575966377659e+00 +0.0000000000000000e+00 +4.6999998148854347e+00 -4.8610812107050590e-04 +0.0000000000000000e+00 +9.9999988184944033e-01
4.7999999999999989e+00 +9.0438084687577849e+00 +0.0000000000000000e+00 +4.7999998028172453e+00 -4.9644946919598994e-04 +0.0000000000000000e+00 +9.9999987676895463e-01
4.8999999999999986e+00 +9.0437583067457901e+00 +0.0000000000000000e+00 +4.8999997902356620e+00 -5.0679076142868867e-04 +0.0000000000000000e+00 +9.9999987158155379e-01
4.9999999999999982e+00 +9.0437071106073521e+00 +0.0000000000000000e+00 +4.9999997771299922e+00 -5.1713199809187195e-04 +0.0000000000000000e+00 +9.9999986628723936e-01
5.0999999999999979e+00 +9.0436548803480132e+00 +0.0000000000000000e+00 +5.0999997634895458e+00 -5.2747317952367239e-04 +0.0000000000000000e+00 +9.9999986088601278e-01
5.1999999999999975e+00 +9.0436016159732766e+00 +0.0000000000000000e+00 +5.1999997493036307e+00 -5.3781430607707282e-04 +0.0000000000000000e+00 +9.9999985537787561e-01
5.2999999999999972e+00 +9.0435473174886134e+00 +0.0000000000000000e+00 +5.2999997345615570e+00 -5.4815537811989351e-04 +0.0000000000000000e+00 +9.9999984976282941e-01
5.3999999999999968e+00 +9.0434919848994557e+00 +0.0000000000000000e+00 +5.3999997192526328e+00 -5.5849639603477855e-04 +0.0000000000000000e+00 +9.9999984404087561e-01
5.4999999999999964e+00 +9.0434356182111966e+00 +0.0000000000000000e+00 +5.4999997033661678e+00 -5.6883736021918205e-04 +0.0000000000000000e+00 +9.9999983821201566e-01
5.5999999999999961e+00 +9.0433782174291881e+00 +0.0000000000000000e+00 +5.5999996868914721e+00 -5.7917827108535324e-04 +0.0000000000000000e+00 +9.9999983227625100e-01
5.6999999999999957e+00 +9.0433197825587417e+00 +0.0000000000000000e+00 +5.6999996698178546e+00 -5.8951912906032139e-04 +0.0000000000000000e+00 +9.9999982623358308e-01
5.7999999999999954e+00 +9.0432603136051242e+00 +0.0000000000000000e+00 +5.7999996521346251e+00 -5.9985993458588004e-04 +0.0000000000000000e+00 +9.9999982008401322e-01
5.8999999999999950e+00 +9.0431998105735580e+00 +0.0000000000000000e+00 +5.8999996338310936e+00 -6.1020068811857046e-04 +0.0000000000000000e+00 +9.9999981382754277e-01
5.9999999999999947e+00 +9.0431382734692178e+00 +0.0000000000000000e+00 +5.9999996148965700e+00 -6.2054139012966453e-04 +0.0000000000000000e+00 +9.9999980746417305e-01
6.0999999999999943e+00 +9.0430757022972337e+00 +0.0000000000000000e+00 +6.0999995953203650e+00 -6.3088204110355614e-04 +0.0000000000000000e+00 +9.9999980099390529e-01
6.1999999999999940e+00 +9.0430120970626824e+00 +0.0000000000000000e+00 +6.1999995750917885e+00 -6.4122264152024285e-04 +0.0000000000000000e+00 +9.9999979441674081e-01
6.2999999999999936e+00 +9.0429474577705982e+00 +0.0000000000000000e+00 +6.2999995542001503e+00 -6.5156319183782283e-04 +0.0000000000000000e+00 +9.9999978773268094e-01
6.3999999999999932e+00 +9.0428817844259690e+00 +0.0000000000000000e+00 +6.3999995326347614e+00 -6.6190369249091393e-04 +0.0000000000000000e+00 +9.9999978094172692e-01
6.4999999999999929e+00 +9.0428150770337403e+00 +0.0000000000000000e+00 +6.4999995103849324e+00 -6.7224414389066469e-04 +0.0000000000000000e+00 +9.9999977404387996e-01
6.5999999999999925e+00 +9.0427473355988184e+00 +0.0000000000000000e+00 +6.5999994874399741e+00 -6.8258454642476608e-04 +0.0000000000000000e+00 +9.9999976703914140e-01
6.6999999999999922e+00 +9.0426785601260722e+00 +0.0000000000000000e+00 +6.6999994637891973e+00 -6.9292490045746427e-04 +0.0000000000000000e+00 +9.9999975992751233e-01
6.7999999999999918e+00 +9.0426087506203334e+00 +0.0000000000000000e+00 +6.7999994394219136e+00 -7.0326520632957312e-04 +0.0000000000000000e+00 +9.9999975270899422e-01
6.8999999999999915e+00 +9.0425379070864018e+00 +0.0000000000000000e+00 +6.8999994143274339e+00 -7.1360546435848794e-04 +0.0000000000000000e+00 +9.9999974538358827e-01
6.9999999999999911e+00 +9.0424660295290469e+00 +0.0000000000000000e+00 +6.9999993884950689e+00 -7.2394567483819968e-04 +0.0000000000000000e+00 +9.9999973795129571e-01
7.0999999999999908e+00 +9.0423931179530097e+00 +0.0000000000000000e+00 +7.0999993619141302e+00 -7.3428583803930960e-04 +0.0000000000000000e+00 +9.9999973041211776e-01
7.1999999999999904e+00 +9.0423191723630065e+00 +0.0000000000000000e+00 +7.1999993345739295e+00 -7.4462595420904452e-04 +0.0000000000000000e+00 +9.9999972276605575e-01
7.2999999999999901e+00 +9.0422441927637287e+00 +0.0000000000000000e+00 +7.2999993064637785e+00 -7.5496602357127268e-04 +0.0000000000000000e+00 +9.9999971501311102e-01
7.3999999999999897e+00 +9.0421681791598463e+00 +0.0000000000000000e+00 +7.3999992775729888e+00 -7.6530604632652030e-04 +0.0000000000000000e+00 +9.9999970715328490e-01
7.4999999999999893e+00 +9.0420911315560115e+00 +0.0000000000000000e+00 +7.4999992478908730e+00 -7.7564602265198885e-04 +0.0000000000000000e+00 +9.9999969918657861e-01
7.5999999999999890e+00 +9.0420130499568589e+00 +0.0000000000000000e+00 +7.5999992174067419e+00 -7.8598595270157226e-04 +0.0000000000000000e+00 +9.9999969111299347e-01
7.6999999999999886e+00 +9.0419339343670089e+00 +0.0000000000000000e+00 +7.6999991861099089e+00 -7.9632583660587547e-04 +0.0000000000000000e+00 +9.9999968293253083e-01
7.7999999999999883e+00 +9.0418537847910709e+00 +0.0000000000000000e+00 +7.7999991539896856e+00 -8.0666567447223319e-04 +0.0000000000000000e+00 +9.9999967464519202e-01
7.8999999999999879e+00 +9.0417726012336459e+00 +0.0000000000000000e+00 +7.8999991210353846e+00 -8.1700546638472922e-04 +0.0000000000000000e+00 +9.9999966625097836e-01
7.9999999999999876e+00 +9.0416903836993239e+00 +0.0000000000000000e+00 +7.9999990872363185e+00 -8.2734521240421667e-04 +0.0000000000000000e+00 +9.9999965774989130e-01
8.0999999999999872e+00 +9.0416071321926932e+00 +0.0000000000000000e+00 +8.0999990525818006e+00 -8.3768491257059559e-04 +0.0000000000000000e+00 +9.9999964914193218e-01
8.1999999999999869e+00 +9.0415228467183368e+00 +0.0000000000000000e+00 +8.1999990170611436e+00 -8.4802456692766146e-04 +0.0000000000000000e+00 +9.9999964042710243e-01
8.2999999999999865e+00 +9.0414375272808325e+00 +0.0000000000000000e+00 +8.2999989806636592e+00 -8.5836417554794025e-04 +0.0000000000000000e+00 +9.9999963160540339e-01
8.3999999999999861e+00 +9.0413511738847490e+00 +0.0000000000000000e+00 +8.3999989433786624e+00 -8.6870373853494161e-04 +0.0000000000000000e+00 +9.9999962267683629e-01
8.4999999999999858e+00 +9.0412637865346426e+00 +0.0000000000000000e+00 +8.4999989051954650e+00 -8.7904325602315432e-04 +0.0000000000000000e+00 +9.9999961364140255e-01
8.5999999999999854e+00 +9.0411753652350555e+00 +0.0000000000000000e+00 +8.5999988661033804e+00 -8.8938272817804128e-04 +0.0000000000000000e+00 +9.9999960449910341e-01
8.6999999999999851e+00 +9.0410859099905121e+00 +0.0000000000000000e+00 +8.6999988260917238e+00 -8.9972215519603434e-04 +0.0000000000000000e+00 +9.9999959524993998e-01
8.7999999999999847e+00 +9.0409954208055137e+00 +0.0000000000000000e+00 +8.7999987851498069e+00 -9.1006153730452909e-04 +0.0000000000000000e+00 +9.9999958589391358e-01
8.8999999999999844e+00 +9.0409038976845402e+00 +0.0000000000000000e+00 +8.8999987432669450e+00 -9.2040087476187907e-04 +0.0000000000000000e+00 +9.9999957643102533e-01
8.9999999999999840e+00 +9.0408113406320414e+00 +0.0000000000000000e+00 +8.9999987004324513e+00 -9.3074016785739009e-04 +0.0000000000000000e+00 +9.9999956686127633e-01
9.0999999999999837e+00 +9.0407177496524369e+00 +0.0000000000000000e+00 +9.0999986566356394e+00 -9.4107941691131433e-04 +0.0000000000000000e+00 +9.9999955718466771e-01
9.1999999999999833e+00 +9.0406231247501143e+00 +0.0000000000000000e+00 +9.1999986118658228e+00 -9.5141862227484373e-04 +0.0000000000000000e+00 +9.9999954740120034e-01
9.2999999999999829e+00 +9.0405274659294257e+00 +0.0000000000000000e+00 +9.2999985661123166e+00 -9.6175778433010405e-04 +0.0000000000000000e+00 +9.9999953751087534e-01
9.3999999999999826e+00 +9.0404307731946787e+00 +0.0000000000000000e+00 +9.3999985193644360e+00 -9.7209690349014781e-04 +0.0000000000000000e+00 +9.9999952751369359e-01
9.4999999999999822e+00 +9.0403330465501419e+00 +0.0000000000000000e+00 +9.4999984716114945e+00 -9.8243598019894787e-04 +0.0000000000000000e+00 +9.9999951740965609e-01
9.5999999999999819e+00 +9.0402342860000378e+00 +0.0000000000000000e+00 +9.5999984228428055e+00 -9.9277501493138967e-04 +0.0000000000000000e+00 +9.9999950719876352e-01
9.6999999999999815e+00 +9.0401344915485389e+00 +0.0000000000000000e+00 +9.6999983730476842e+00 -1.0031140081932647e-03 +0.0000000000000000e+00 +9.9999949688101675e-01
9.7999999999999812e+00 +9.0400336631997646e+00 +0.0000000000000000e+00 +9.7999983222154459e+00 -1.0134529605212623e-03 +0.0000000000000000e+00 +9.9999948645641656e-01
9.8999999999999808e+00 +9.0399318009577811e+00 +0.0000000000000000e+00 +9.8999982703354057e+00 -1.0237918724829626e-03 +0.0000000000000000e+00 +9.9999947592496363e-01
9.9999999999999805e+00 +9.0398289048265941e+00 +0.0000000000000000e+00 +9.9999982173968771e+00 -1.0341307446768281e-03 +0.0000000000000000e+00 +9.9999946528665851e-01
1.0099999999999980e+01 +9.0397249748101505e+00 +0.0000000000000000e+00 +1.0099998163389175e+01 -1.0444695777295911e-03 +0.0000000000000000e+00 +9.9999945454150185e-01
1.0199999999999980e+01 +9.0396200109123317e+00 +0.0000000000000000e+00 +1.0199998108301616e+01 -1.0548083722675950e-03 +0.0000000000000000e+00 +9.9999944368949423e-01
1.0299999999999979e+01 +9.0395140131369605e+00 +0.0000000000000000e+00 +1.0299998052123513e+01 -1.0651471288881356e-03 +0.0000000000000000e+00 +9.9999943273063607e-01
1.0399999999999979e+01 +9.0394069814877991e+00 +0.0000000000000000e+00 +1.0399997994844181e+01 -1.0754858481568515e-03 +0.0000000000000000e+00 +9.9999942166492806e-01
1.0499999999999979e+01 +9.0392989159685566e+00 +0.0000000000000000e+00 +1.0499997936452937e+01 -1.0858245306077175e-03 +0.0000000000000000e+00 +9.9999941049237073e-01
1.0599999999999978e+01 +9.0391898165828888e+00 +0.0000000000000000e+00 +1.0599997876939094e+01 -1.0961631767430393e-03 +0.0000000000000000e+00 +9.9999939921296466e-01
1.0699999999999978e+01 +9.0390796833344034e+00 +0.0000000000000000e+00 +1.0699997816291969e+01 -1.1065017870334475e-03 +0.0000000000000000e+00 +9.9999938782671038e-01
1.0799999999999978e+01 +9.0389685162266620e+00 +0.0000000000000000e+00 +1.0799997754500875e+01 -1.1168403619178913e-03 +0.0000000000000000e+00 +9.9999937633360858e-01
1.0899999999999977e+01 +9.0388563152631853e+00 +0.0000000000000000e+00 +1.0899997691555129e+01 -1.1271789018036330e-03 +0.0000000000000000e+00 +9.9999936473365991e-01
1.0999999999999977e+01 +9.0387430804474551e+00 +0.0000000000000000e+00 +1.0999997627444046e+01 -1.1375174070662407e-03 +0.0000000000000000e+00 +9.9999935302686505e-01
1.1099999999999977e+01 +9.0386288117829157e+00 +0.0000000000000000e+00 +1.1099997562156940e+01 -1.1478558780495826e-03 +0.0000000000000000e+00 +9.9999934121322465e-01
1.1199999999999976e+01 +9.0385135092729776e+00 +0.0000000000000000e+00 +1.1199997495683128e+01 -1.1581943150658200e-03 +0.0000000000000000e+00 +9.9999932929273938e-01
1.1299999999999976e+01 +9.0383971729210248e+00 +0.0000000000000000e+00 +1.1299997428011926e+01 -1.1685327183954006e-03 +0.0000000000000000e+00 +9.9999931726541003e-01
1.1399999999999975e+01 +9.0382798027304130e+00 +0.0000000000000000e+00 +1.1399997359132648e+01 -1.1788710882870521e-03 +0.0000000000000000e+00 +9.9999930513123725e-01
1.1499999999999975e+01 +9.0381613987044744e+00 +0.0000000000000000e+00 +1.1499997289034612e+01 -1.1892094249577746e-03 +0.0000000000000000e+00 +9.9999929289022182e-01
1.1599999999999975e+01 +9.0380419608465221e+00 +0.0000000000000000e+00 +1.1599997217707131e+01 -1.1995477285928339e-03 +0.0000000000000000e+00 +9.9999928054236464e-01
1.1699999999999974e+01 +9.0379214891598512e+00 +0.0000000000000000e+00 +1.1699997145139523e+01 -1.2098859993457539e-03 +0.0000000000000000e+00 +9.9999926808766648e-01
1.1799999999999974e+01 +9.0377999836477443e+00 +0.0000000000000000e+00 +1.1799997071321103e+01 -1.2202242373383092e-03 +0.0000000000000000e+00 +9.9999925552612823e-01
