# multipoles
# s[mm] polynom_b[n=0][T/m^n] polynom_b[n=1][T/m^n] polynom_b[n=2][T/m^n] polynom_b[n=3][T/m^n] polynom_b[n=4][T/m^n] polynom_b[n=5][T/m^n] polynom_b[n=6][T/m^n] 
+0.0000000000000000e+00 -1.0333569253128463e+00 +2.3144970382129721e+00 +3.2401790446698421e+01 -3.8163367446056219e+02 -1.7171467606676821e+05 +3.1088604065969554e+06 +6.8880055828021848e+08 
+1.0000000000000001e-01 -1.0333597420007683e+00 +2.3143963048034655e+00 +3.2525670117737754e+01 -3.7959824363656912e+02 -1.7323600336381205e+05 +3.1007973768016370e+06 +6.9347097834144783e+08 
+2.0000000000000001e-01 -1.0333624748299028e+00 +2.3142968458690478e+00 +3.2642366301610146e+01 -3.7771893105206641e+02 -1.7466938260683790e+05 +3.0936932585176388e+06 +6.9785496667744231e+08 
+3.0000000000000004e-01 -1.0333651156626271e+00 +2.3141986224672513e+00 +3.2751067913333344e+01 -3.7599880179270662e+02 -1.7600252902439731e+05 +3.0875773424015078e+06 +7.0190404415923893e+08 
+4.0000000000000002e-01 -1.0333676563613059e+00 +2.3141015957794226e+00 +3.2850963866178624e+01 -3.7444092429362593e+02 -1.7722315773978236e+05 +3.0824789373730463e+06 +7.0556973078788090e+08 
+5.0000000000000000e-01 -1.0333700887882358e+00 +2.3140057271262506e+00 +3.2941243064816099e+01 -3.7304837079873397e+02 -1.7831898364476339e+05 +3.0784273732640669e+06 +7.0880354510508716e+08 
+5.9999999999999998e-01 -1.0333724068635646e+00 +2.3139110462990162e+00 +3.3021300330301059e+01 -3.7182388316496298e+02 -1.7928074088843830e+05 +3.0754414255612805e+06 +7.1156834626461971e+08 
+6.9999999999999996e-01 -1.0333746127352432e+00 +2.3138178506703739e+00 +3.3091353223175602e+01 -3.7076901338995458e+02 -1.8011123254417771e+05 +3.0734994752488248e+06 +7.1387237114973426e+08 
+7.9999999999999993e-01 -1.0333767106074685e+00 +2.3137265031099359e+00 +3.3151824784258416e+01 -3.6988505329654214e+02 -1.8081627721537167e+05 +3.0725702820271435e+06 +7.1573520553214407e+08 
+8.9999999999999991e-01 -1.0333787046843625e+00 +2.3136373665902181e+00 +3.3203138043604717e+01 -3.6917329735174116e+02 -1.8140169322932637e+05 +3.0726226195881721e+06 +7.1717643358187103e+08 
+9.9999999999999989e-01 -1.0333805991700757e+00 +2.3135508041566308e+00 +3.3245716034119987e+01 -3.6863504179294677e+02 -1.8187329890617749e+05 +3.0736252705665473e+06 +7.1821563919237232e+08 
+1.0999999999999999e+00 -1.0333823982687507e+00 +2.3134671789195744e+00 +3.3279981785159869e+01 -3.6827158435159737e+02 -1.8223691242604388e+05 +3.0755470248445836e+06 +7.1887240534109652e+08 
+1.2000000000000000e+00 -1.0333841061845863e+00 +2.3133868540483573e+00 +3.3306358331488866e+01 -3.6808422406667290e+02 -1.8249835201007110e+05 +3.0783566784688174e+06 +7.1916631499985230e+08 
+1.3000000000000000e+00 -1.0333857271217228e+00 +2.3133101927563033e+00 +3.3325268698152740e+01 -3.6807426082649812e+02 -1.8266343562722785e+05 +3.0820230309527973e+06 +7.1911694974326944e+08 
+1.4000000000000001e+00 -1.0333872652843903e+00 +2.3132375582856382e+00 +3.3337135919102678e+01 -3.6824299489178577e+02 -1.8273798135329489e+05 +3.0865148824448283e+06 +7.1874389149171889e+08 
+1.5000000000000002e+00 -1.0333887248768221e+00 +2.3131693138998446e+00 +3.3342383026116345e+01 -3.6859172666505862e+02 -1.8272780716010070e+05 +3.0918010323848231e+06 +7.1806672152808619e+08 
+1.6000000000000003e+00 -1.0333901101032850e+00 +2.3131058228665977e+00 +3.3341433051337013e+01 -3.6912175616075461e+02 -1.8263873095860821e+05 +3.0978502763728648e+06 +7.1710502070757556e+08 
+1.7000000000000004e+00 -1.0333914251681107e+00 +2.3130474484503614e+00 +3.3334709033047652e+01 -3.6983438277278088e+02 -1.8247657072288042e+05 +3.1046314048049212e+06 +7.1587837010975969e+08 
+1.8000000000000005e+00 -1.0333926742756605e+00 +2.3129945539002912e+00 +3.3322634008093168e+01 -3.7073090488753559e+02 -1.8224714432712132e+05 +3.1121132005600738e+06 +7.1440635022783816e+08 
+1.9000000000000006e+00 -1.0333938616303615e+00 +2.3129475024328805e+00 +3.3305631019159243e+01 -3.7181261936787462e+02 -1.8195626970563029e+05 +3.1202644360004845e+06 +7.1270854181156576e+08 
+2.0000000000000004e+00 -1.0333949914367067e+00 +2.3129066572262609e+00 +3.3284123112089603e+01 -3.7308082135506243e+02 -1.8160976478535507e+05 +3.1290538717679363e+06 +7.1080452551999319e+08 
+2.1000000000000005e+00 -1.0333960678992911e+00 +2.3128723814036332e+00 +3.3258533341947185e+01 -3.7453680376307011e+02 -1.8121344761630837e+05 +3.1384502538111475e+06 +7.0871388260700738e+08 
+2.2000000000000006e+00 -1.0333970952227316e+00 +2.3128450380244194e+00 +3.3229284761278983e+01 -3.7618185700157795e+02 -1.8077313613492969e+05 +3.1484223117596987e+06 +7.0645619377335191e+08 
+2.3000000000000007e+00 -1.0333980776117522e+00 +2.3128249900680986e+00 +3.3196800431859415e+01 -3.7801726847950749e+02 -1.8029464840112455e+05 +3.1589387559917681e+06 +7.0405104035610783e+08 
+2.4000000000000008e+00 -1.0333990192712006e+00 +2.3128126004271401e+00 +3.3161503425266751e+01 -3.8004432237029101e+02 -1.7978380259981181e+05 +3.1699682762267115e+06 +7.0151800433055067e+08 
+2.5000000000000009e+00 -1.0333999244059673e+00 +2.3128082318921139e+00 +3.3123816813255672e+01 -3.8226429921174747e+02 -1.7924641686986733e+05 +3.1814795394703154e+06 +6.9887666756535602e+08 
+2.6000000000000010e+00 -1.0334007963241267e+00 +2.3128120212327854e+00 +3.3084083160290319e+01 -3.8467603688020688e+02 -1.7868736648799089e+05 +3.1934403572724760e+06 +6.9614471936109173e+08 
+2.7000000000000011e+00 -1.0334016347203732e+00 +2.3128231894479314e+00 +3.3042326374099282e+01 -3.8726709817876338e+02 -1.7810776282233422e+05 +3.2058003283356237e+06 +6.9333199767864037e+08 
+2.8000000000000012e+00 -1.0334024383777003e+00 +2.3128407257283419e+00 +3.2998491303489487e+01 -3.9002186354746220e+02 -1.7750777563313112e+05 +3.2185009196128929e+06 +6.9044630864555037e+08 
+2.9000000000000012e+00 -1.0334032060789884e+00 +2.3128636193454617e+00 +3.2952522787082877e+01 -3.9292471554311612e+02 -1.7688757445783453e+05 +3.2314836078698402e+06 +6.8749545720917535e+08 
+3.0000000000000013e+00 -1.0334039366069323e+00 +2.3128908596478230e+00 +3.2904365644407058e+01 -3.9596003877104971e+02 -1.7624732843417744e+05 +3.2446898793352060e+06 +6.8448724624987173e+08 
+3.1000000000000014e+00 -1.0334046287441441e+00 +2.3129214360847796e+00 +3.2853964691026604e+01 -3.9911222061009033e+02 -1.7558720660224120e+05 +3.2580612338708960e+06 +6.8142947805051196e+08 
+3.2000000000000015e+00 -1.0334052812730088e+00 +2.3129543381998565e+00 +3.2801264718997786e+01 -4.0236565102822073e+02 -1.7490737752252680e+05 +3.2715391837879862e+06 +6.7832995243935966e+08 
+3.3000000000000016e+00 -1.0334058929757772e+00 +2.3129885556420104e+00 +3.2746210510634889e+01 -4.0570472296215985e+02 -1.7420800954928625e+05 +3.2850652560683843e+06 +6.7519646811436582e+08 
+3.4000000000000017e+00 -1.0334064626344766e+00 +2.3130230781780838e+00 +3.2688746827596226e+01 -4.0911383268183943e+02 -1.7348927062240842e+05 +3.2985809943423965e+06 +6.7203682163773870e+08 
+3.5000000000000018e+00 -1.0334069890309228e+00 +2.3130568956884443e+00 +3.2628818412157585e+01 -4.1257737970413820e+02 -1.7275132829029390e+05 +3.3120279583750968e+06 +6.6885880753479934e+08 
+3.6000000000000019e+00 -1.0334074709467385e+00 +2.3130889981824763e+00 +3.2566369991588289e+01 -4.1607976725503585e+02 -1.7199434980279166e+05 +3.3253477266373853e+06 +6.6567021875013757e+08 
+3.7000000000000020e+00 -1.0334079071632889e+00 +2.3131183758067833e+00 +3.2501346269308875e+01 -4.1960540255899798e+02 -1.7121850193755556e+05 +3.3384818980089640e+06 +6.6247884579642475e+08 
+3.8000000000000020e+00 -1.0334082964616804e+00 +2.3131440188416574e+00 +3.2433691926545833e+01 -4.2313869673419606e+02 -1.7042395104147540e+05 +3.3513720910099824e+06 +6.5929247696937788e+08 
+3.9000000000000021e+00 -1.0334086376227674e+00 +2.3131649177219917e+00 +3.2363351622560650e+01 -4.2666406544959347e+02 -1.6961086303037140e+05 +3.3639599476298690e+06 +6.5611889832487154e+08 
+4.0000000000000018e+00 -1.0334089294271207e+00 +2.3131800630310071e+00 +3.2290269992448984e+01 -4.3016592875580619e+02 -1.6877940335318571e+05 +3.3761871322414628e+06 +6.5296589350995815e+08 
+4.1000000000000014e+00 -1.0334091706550377e+00 +2.3131884455172482e+00 +3.2214391648190833e+01 -4.3362871161288024e+02 -1.6792973701464085e+05 +3.3879953346320619e+06 +6.4984124387482381e+08 
+4.2000000000000011e+00 -1.0334093600864465e+00 +2.3131890560969040e+00 +3.2135661167525747e+01 -4.3703684397419130e+02 -1.6706202836071380e+05 +3.3993262703933246e+06 +6.4675272742630124e+08 
+4.3000000000000007e+00 -1.0334094965010576e+00 +2.3131808858600338e+00 +3.2054023114210516e+01 -4.4037476100051629e+02 -1.6617644147820844e+05 +3.4101216821186757e+06 +6.4370812076551008e+08 
+4.4000000000000004e+00 -1.0334095786781461e+00 +2.3131629260803210e+00 +3.1969422010542822e+01 -4.4362690337581228e+02 -1.6527313966170410e+05 +3.4203233412004039e+06 +6.4071519650615764e+08 
+4.5000000000000000e+00 -1.0334096053966910e+00 +2.3131341682094084e+00 +3.1881802354081419e+01 -4.4677771696064207e+02 -1.6435228570762591e+05 +3.4298730449904799e+06 +6.3778172456572020e+08 
+4.5999999999999996e+00 -1.0334095757219124e+00 +2.3130936699673321e+00 +3.1791088208806443e+01 -4.4980973973822495e+02 -1.6341316777921582e+05 +3.4386990800386434e+06 +6.3490918314032352e+08 
+4.6999999999999993e+00 -1.0334094898861244e+00 +2.3130408606382900e+00 +3.1697120511186679e+01 -4.5270224901114022e+02 -1.6245171217207250e+05 +3.4467102218014691e+06 +6.3207469378105259e+08 
+4.7999999999999989e+00 -1.0334093484203042e+00 +2.3129752887598367e+00 +3.1599718920175810e+01 -4.5543476661262690e+02 -1.6146302877085420e+05 +3.4538189294985463e+06 +6.2924939759850681e+08 
+4.8999999999999986e+00 -1.0334091518553041e+00 +2.3128965029336697e+00 +3.1498703085783099e+01 -4.5798681695635906e+02 -1.6044222745781258e+05 +3.4599376827952587e+06 +6.2640443610801256e+08 
+4.9999999999999982e+00 -1.0334089007218072e+00 +2.3128040518223472e+00 +3.1393892642470750e+01 -4.6033792686761296e+02 -1.5938441800317820e+05 +3.4649789795288271e+06 +6.2351095088459587e+08 
+5.0999999999999979e+00 -1.0334085955503305e+00 +2.3126974841494472e+00 +3.1285107211210722e+01 -4.6246762563590215e+02 -1.5828471012211134e+05 +3.4688553363516685e+06 +6.2054008388788903e+08 
+5.1999999999999975e+00 -1.0334082368712376e+00 +2.3125763486927906e+00 +3.1172166399673916e+01 -4.6435544483896240e+02 -1.5713821348018310e+05 +3.4714792879605438e+06 +6.1746297750050592e+08 
+5.2999999999999972e+00 -1.0334078252146930e+00 +2.3124401942884809e+00 +3.1054889797903233e+01 -4.6598091852327525e+02 -1.5594003762879604e+05 +3.4727633885191428e+06 +6.1425077427476490e+08 
+5.3999999999999968e+00 -1.0334073611107044e+00 +2.3122885698315900e+00 +3.0933096982577759e+01 -4.6732358324829988e+02 -1.5468529209238637e+05 +3.4726202121866178e+06 +6.1087461737383604e+08 
+5.4999999999999964e+00 -1.0334068450891098e+00 +2.3121210242705970e+00 +3.0806607516624307e+01 -4.6836297796886453e+02 -1.5336908637438927e+05 +3.4709623527373597e+06 +6.0730565063994062e+08 
+5.5999999999999961e+00 -1.0334062776795758e+00 +2.3119371066071737e+00 +3.0675240947974121e+01 -4.6907864407875684e+02 -1.5198652994018409e+05 +3.4677024241677397e+06 +6.0351501854023349e+08 
+5.6999999999999957e+00 -1.0334056594116023e+00 +2.3117363659003760e+00 +3.0538816811662983e+01 -4.6945012556142274e+02 -1.5053273227677034e+05 +3.4627530618411466e+06 +5.9947386651208150e+08 
+5.7999999999999954e+00 -1.0334049908144771e+00 +2.3115183512577020e+00 +3.0397154622393771e+01 -4.6945696877400405e+02 -1.4900280274531315e+05 +3.4560269215452634e+06 +5.9515334024781418e+08 
+5.8999999999999950e+00 -1.0334042724173302e+00 +2.3112826118411456e+00 +3.0250073883544918e+01 -4.6907872267167789e+02 -1.4739185078163794e+05 +3.4474366811443055e+06 +5.9052458673869574e+08 
+5.9999999999999947e+00 -1.0334035047491328e+00 +2.3110286968651499e+00 +3.0097394085516783e+01 -4.6829493877318811e+02 -1.4569498586302591e+05 +3.4368950406252602e+06 +5.8555875411864436e+08 
+6.0999999999999943e+00 -1.0334026883386138e+00 +2.3107561555920331e+00 +2.9938934695986703e+01 -4.6708517108558010e+02 -1.4390731733695118e+05 +3.4243147220358374e+06 +5.8022699089404035e+08 
+6.1999999999999940e+00 -1.0334018237143763e+00 +2.3104645373348602e+00 +2.9774515174881035e+01 -4.6542897622109427e+02 -1.4202395471702225e+05 +3.4096084704416874e+06 +5.7450044738767719e+08 
+6.2999999999999936e+00 -1.0334009114047813e+00 +2.3101533914536851e+00 +2.9603954959580861e+01 -4.6330591331503069e+02 -1.4004000741242149e+05 +3.3926890537241274e+06 +5.6835027448926651e+08 
+6.3999999999999932e+00 -1.0333999519380501e+00 +2.3098222673562114e+00 +2.9427073477547946e+01 -4.6069554411090093e+02 -1.3795058497511572e+05 +3.3734692634534300e+06 +5.6174762485850430e+08 
+6.4999999999999929e+00 -1.0333989458422150e+00 +2.3094707145160402e+00 +2.9243690144055627e+01 -4.5757743348439425e+02 -1.3575079709483156e+05 +3.3518619168347185e+06 +5.5466365289442861e+08 
+6.5999999999999925e+00 -1.0333978936832560e+00 +2.3090985910438118e+00 +2.9053708577815165e+01 -4.5393928288869699e+02 -1.3343748490906658e+05 +3.3278147254123869e+06 +5.4707798966233146e+08 
+6.6999999999999922e+00 -1.0333967963108472e+00 +2.3087068156251620e+00 +2.8857364842588101e+01 -4.4979721398417070e+02 -1.3101418019240638e+05 +3.3013904459845754e+06 +5.3900347794384086e+08 
+6.7999999999999918e+00 -1.0333956546811722e+00 +2.3082965297698532e+00 +2.8654978228164985e+01 -4.4517344418820227e+02 -1.2848605606754833e+05 +3.2726740519344858e+06 +5.3046125093491030e+08 
+6.8999999999999915e+00 -1.0333944697506054e+00 +2.3078688749327716e+00 +2.8446868032310043e+01 -4.4009018966324754e+02 -1.2585828566955381e+05 +3.2417505101774898e+06 +5.2147244190552610e+08 
+6.9999999999999911e+00 -1.0333932424757126e+00 +2.3074249925219026e+00 +2.8233353559535541e+01 -4.3456966576268269e+02 -1.2313604209919195e+05 +3.2087047875908120e+06 +5.1205818361771244e+08 
+7.0999999999999908e+00 -1.0333919738132196e+00 +2.3069660239023548e+00 +2.8014754115723765e+01 -4.2863408715523025e+02 -1.2032449830850327e+05 +3.1736218518538526e+06 +5.0223960775202954e+08 
+7.1999999999999904e+00 -1.0333906647201554e+00 +2.3064931103822004e+00 +2.7791389025565657e+01 -4.2230566741060852e+02 -1.1742882742596837e+05 +3.1365866691083247e+06 +4.9203784643930078e+08 
+7.2999999999999901e+00 -1.0333893161536738e+00 +2.3060073932182985e+00 +2.7563577609075764e+01 -4.1560661919753687e+02 -1.1445420229683147e+05 +3.0976842052836781e+06 +4.8147403003920591e+08 
+7.3999999999999897e+00 -1.0333879290712558e+00 +2.3055100136041480e+00 +2.7331639206684404e+01 -4.0855915393070717e+02 -1.1140579595690813e+05 +3.0569994241307420e+06 +4.7056928938981712e+08 
+7.4999999999999893e+00 -1.0333865044305546e+00 +2.3050021126741509e+00 +2.7095893158246685e+01 -4.0118548190619094e+02 -1.0828878121978018e+05 +3.0146172881296165e+06 +4.5934475380781245e+08 
+7.5999999999999890e+00 -1.0333850431895542e+00 +2.3044848314919584e+00 +2.6856658823328967e+01 -3.9350781196898481e+02 -1.0510833105897412e+05 +2.9706227566665914e+06 +4.4782155289852881e+08 
+7.6999999999999886e+00 -1.0333835463064789e+00 +2.3039593110538972e+00 +2.6614255567531362e+01 -3.8554835163072829e+02 -1.0186961833155599e+05 +2.9251007868461967e+06 +4.3602081519963491e+08 
+7.7999999999999883e+00 -1.0333820147398181e+00 +2.3034266922790687e+00 +2.6369002765958346e+01 -3.7732930678918541e+02 -9.8577815841362448e+04 +2.8781363319789637e+06 +4.2396366847688490e+08 
+7.8999999999999879e+00 -1.0333804494483727e+00 +2.3028881160087509e+00 +2.6121219808256658e+01 -3.6887288170917731e+02 -9.5238096427075041e+04 +2.8298143415521733e+06 +4.1167124012462544e+08 
+7.9999999999999876e+00 -1.0333788513912749e+00 +2.3023447230027059e+00 +2.5871226099145950e+01 -3.6020127894624534e+02 -9.1855632954763409e+04 +2.7802197609543228e+06 +3.9916465708385468e+08 
+8.0999999999999872e+00 -1.0333772215279526e+00 +2.3017976539330904e+00 +2.5619341054509725e+01 -3.5133669916334151e+02 -8.8435598245697023e+04 +2.7294375304902359e+06 +3.8646504550882393e+08 
+8.1999999999999869e+00 -1.0333755608181481e+00 +2.3012480493835317e+00 +2.5365884101836546e+01 -3.4230134111728870e+02 -8.4983165064687564e+04 +2.6775525854176674e+06 +3.7359353065593511e+08 
+8.2999999999999865e+00 -1.0333738702219970e+00 +2.3006970498430963e+00 +2.5111174690903979e+01 -3.3311740149986036e+02 -8.1503506328882999e+04 +2.6246498551644646e+06 +3.6057123789955121e+08 
+8.3999999999999861e+00 -1.0333721506999116e+00 +2.3001457957026696e+00 +2.4855532275302604e+01 -3.2380707484207409e+02 -7.8001794725711501e+04 +2.5708142628839649e+06 +3.4741929082900810e+08 
+8.4999999999999858e+00 -1.0333704032128115e+00 +2.2995954272831929e+00 +2.4599276347358433e+01 -3.1439255516032688e+02 -7.4483203510417385e+04 +2.5161307391474964e+06 +3.3415881565317553e+08 
+8.5999999999999854e+00 -1.0333686286222568e+00 +2.2990468975433158e+00 +2.4342690692681451e+01 -3.0489441025524769e+02 -7.0952309118061821e+04 +2.4606860287653035e+06 +3.2080870253304803e+08 
+8.6999999999999851e+00 -1.0333668270845613e+00 +2.2985004743479749e+00 +2.4085891656411860e+01 -2.9532740396704048e+02 -6.7410585308426904e+04 +2.4045726727262968e+06 +3.0737439750564212e+08 
+8.7999999999999847e+00 -1.0333649985008018e+00 +2.2979562757468908e+00 +2.3828946788514376e+01 -2.8570531527157340e+02 -6.3858536647375178e+04 +2.3478864715099642e+06 +2.9385680839615273e+08 
+8.8999999999999844e+00 -1.0333631427721703e+00 +2.2974144196417701e+00 +2.3571923658362799e+01 -2.7604191857203818e+02 -6.0296667926400267e+04 +2.2907231946414756e+06 +2.8025684335752237e+08 
+8.9999999999999840e+00 -1.0333612597999673e+00 +2.2968750237292599e+00 +2.3314889860011569e+01 -2.6635098146899827e+02 -5.6725484361132905e+04 +2.2331785660539931e+06 +2.6657541212128577e+08 
+9.0999999999999837e+00 -1.0333593494856046e+00 +2.2963382055054251e+00 +2.3057913012387754e+01 -2.5664626488635628e+02 -5.3145491593916086e+04 +2.1753482646703222e+06 +2.5281342599817732e+08 
+9.1999999999999833e+00 -1.0333574117306339e+00 +2.2958040822505486e+00 +2.2801060763642553e+01 -2.4694152255439289e+02 -4.9557195779603520e+04 +2.1173279210398397e+06 +2.3897179828655010e+08 
+9.2999999999999829e+00 -1.0333554464367356e+00 +2.2952727710281415e+00 +2.2544400789663321e+01 -2.3725050099785204e+02 -4.5961103550364067e+04 +2.0592131171765337e+06 +2.2505144407449967e+08 
+9.3999999999999826e+00 -1.0333534535057087e+00 +2.2947443886741179e+00 +2.2288000793632730e+01 -2.2758693914790274e+02 -4.2357722007658725e+04 +2.0010993839466111e+06 +2.1105328019065082e+08 
+9.4999999999999822e+00 -1.0333514328394839e+00 +2.2942190517991974e+00 +2.2031928507773106e+01 -2.1796456839653300e+02 -3.8747558759670923e+04 +1.9430822012058231e+06 +1.9697822538972488e+08 
+9.5999999999999819e+00 -1.0333493843401720e+00 +2.2936968767757095e+00 +2.1776251700620051e+01 -2.0839711216624764e+02 -3.5131122057647481e+04 +1.8852569950161115e+06 +1.8282720098159292e+08 
+9.6999999999999815e+00 -1.0333473079099911e+00 +2.2931779797338070e+00 +2.1521038166926591e+01 -1.9889828579997280e+02 -3.1508920595620351e+04 +1.8277191368680319e+06 +1.6860112984629753e+08 
+9.7999999999999812e+00 -1.0333452034513124e+00 +2.2926624765537560e+00 +2.1266355735048279e+01 -1.8948179625916441e+02 -2.7881463661272111e+04 +1.7705639415551913e+06 +1.5430093717373195e+08 
+9.8999999999999808e+00 -1.0333430708666469e+00 +2.2921504828631702e+00 +2.1012272265097295e+01 -1.8016134204036632e+02 -2.4249261091272812e+04 +1.7138866665454616e+06 +1.3992755021063685e+08 
+9.9999999999999805e+00 -1.0333409100586792e+00 +2.2916421140279195e+00 +2.0758855653276601e+01 -1.7095061286134211e+02 -2.0612823356233741e+04 +1.6577825098661545e+06 +1.2548189866675869e+08 
+1.0099999999999980e+01 -1.0333387209302187e+00 +2.2911374851462392e+00 +2.0506173826989979e+01 -1.6186328947299558e+02 -1.6972661468209088e+04 +1.6023466088259949e+06 +1.1096491426264577e+08 
