# field on trajectory
# s[mm] rx[mm] ry[mm] rz[mm] bx[T] by[T] bz[T]
0.0000000000000000e+00 +9.1013000000000002e+00 +0.0000000000000000e+00 +0.0000000000000000e+00 +1.1126926788092193e-02 -1.0329182203265874e+00 -5.9066040083747946e-02
-1.0000000000000001e-01 +9.1012994838523493e+00 +0.0000000000000000e+00 -9.9999999998223940e-02 +1.1127167558345313e-02 -1.0329208173242586e+00 -5.9067261632963365e-02
-2.0000000000000001e-01 +9.1012979354076666e+00 +0.0000000000000000e+00 -1.9999999998579152e-01 +1.1127404814311161e-02 -1.0329234016202986e+00 -5.9068469065304371e-02
-3.0000000000000004e-01 +9.1012953546633710e+00 +0.0000000000000000e+00 -2.9999999995204629e-01 +1.1127638412113880e-02 -1.0329259653786715e+00 -5.9069662063143770e-02
-4.0000000000000002e-01 +9.1012917416169010e+00 +0.0000000000000000e+00 -3.9999999988633178e-01 +1.1127868207881522e-02 -1.0329285007641340e+00 -5.9070840308942031e-02
-5.0000000000000000e-01 +9.1012870962657235e+00 +0.0000000000000000e+00 -4.9999999977799137e-01 +1.1128094057740510e-02 -1.0329309999420342e+00 -5.9072003485232810e-02
-5.9999999999999998e-01 +9.1012814186073427e+00 +0.0000000000000000e+00 -5.9999999961636830e-01 +1.1128315817810059e-02 -1.0329334550781071e+00 -5.9073151274608160e-02
-6.9999999999999996e-01 +9.1012747086393055e+00 +0.0000000000000000e+00 -6.9999999939080593e-01 +1.1128533344196681e-02 -1.0329358583382733e+00 -5.9074283359704077e-02
-7.9999999999999993e-01 +9.1012669663592121e+00 +0.0000000000000000e+00 -7.9999999909064734e-01 +1.1128746492988589e-02 -1.0329382018884357e+00 -5.9075399423185841e-02
-8.9999999999999991e-01 +9.1012581917647228e+00 +0.0000000000000000e+00 -8.9999999870523573e-01 +1.1128955120250189e-02 -1.0329404778942792e+00 -5.9076499147733448e-02
-9.9999999999999989e-01 +9.1012483848535624e+00 +0.0000000000000000e+00 -9.9999999822391417e-01 +1.1129159082016501e-02 -1.0329426785210662e+00 -5.9077582216026950e-02
-1.0999999999999999e+00 +9.1012375456235350e+00 +0.0000000000000000e+00 -1.0999999976360255e+00 +1.1129358234287642e-02 -1.0329447959334326e+00 -5.9078648310731882e-02
-1.2000000000000000e+00 +9.1012256740725253e+00 +0.0000000000000000e+00 -1.1999999969309127e+00 +1.1129552433023264e-02 -1.0329468222951910e+00 -5.9079697114484693e-02
-1.3000000000000000e+00 +9.1012127701985097e+00 +0.0000000000000000e+00 -1.2999999960979189e+00 +1.1129741534137009e-02 -1.0329487497691225e+00 -5.9080728309878129e-02
-1.4000000000000001e+00 +9.1011988339995646e+00 +0.0000000000000000e+00 -1.3999999951263866e+00 +1.1129925393490964e-02 -1.0329505705167774e+00 -5.9081741579446560e-02
-1.5000000000000002e+00 +9.1011838654738728e+00 +0.0000000000000000e+00 -1.4999999940056588e+00 +1.1130103866890121e-02 -1.0329522766982708e+00 -5.9082736605651463e-02
-1.6000000000000003e+00 +9.1011678646197307e+00 +0.0000000000000000e+00 -1.5999999927250781e+00 +1.1130276957126829e-02 -1.0329538625427426e+00 -5.9083713137592801e-02
-1.7000000000000004e+00 +9.1011508314355556e+00 +0.0000000000000000e+00 -1.6999999912739872e+00 +1.1130445255150832e-02 -1.0329553305606121e+00 -5.9084671191203079e-02
-1.8000000000000005e+00 +9.1011327659198802e+00 +0.0000000000000000e+00 -1.7999999896417287e+00 +1.1130609498963356e-02 -1.0329566853323304e+00 -5.9085610849114803e-02
-1.9000000000000006e+00 +9.1011136680713527e+00 +0.0000000000000000e+00 -1.8999999878176455e+00 +1.1130770426578880e-02 -1.0329579314378488e+00 -5.9086532193940923e-02
-2.0000000000000004e+00 +9.1010935378887314e+00 +0.0000000000000000e+00 -1.9999999857910802e+00 +1.1130928776031135e-02 -1.0329590734566267e+00 -5.9087435308274101e-02
-2.1000000000000005e+00 +9.1010723753708742e+00 +0.0000000000000000e+00 -2.0999999835513754e+00 +1.1131085285379153e-02 -1.0329601159676527e+00 -5.9088320274686114e-02
-2.2000000000000006e+00 +9.1010501805167419e+00 +0.0000000000000000e+00 -2.1999999810878736e+00 +1.1131240692713250e-02 -1.0329610635494564e+00 -5.9089187175727170e-02
-2.3000000000000007e+00 +9.1010269533253894e+00 +0.0000000000000000e+00 -2.2999999783899177e+00 +1.1131395736161081e-02 -1.0329619207801257e+00 -5.9090036093925338e-02
-2.4000000000000008e+00 +9.1010026937959623e+00 +0.0000000000000000e+00 -2.3999999754468497e+00 +1.1131551153893637e-02 -1.0329626922373196e+00 -5.9090867111785857e-02
-2.5000000000000009e+00 +9.1009774019276932e+00 +0.0000000000000000e+00 -2.4999999722480126e+00 +1.1131707684131289e-02 -1.0329633824982860e+00 -5.9091680311790545e-02
-2.6000000000000010e+00 +9.1009510777198930e+00 +0.0000000000000000e+00 -2.5999999687827491e+00 +1.1131866065149786e-02 -1.0329639961398744e+00 -5.9092475776397098e-02
-2.7000000000000011e+00 +9.1009237211719505e+00 +0.0000000000000000e+00 -2.6999999650404014e+00 +1.1132027035286292e-02 -1.0329645377385526e+00 -5.9093253588038547e-02
-2.8000000000000012e+00 +9.1008953322833275e+00 +0.0000000000000000e+00 -2.7999999610103123e+00 +1.1132191332945398e-02 -1.0329650118704208e+00 -5.9094013829122501e-02
-2.9000000000000012e+00 +9.1008659110535532e+00 +0.0000000000000000e+00 -2.8999999566818242e+00 +1.1132359696605146e-02 -1.0329654231112275e+00 -5.9094756582030630e-02
-3.0000000000000013e+00 +9.1008354574822192e+00 +0.0000000000000000e+00 -2.9999999520442802e+00 +1.1132532864823071e-02 -1.0329657760363857e+00 -5.9095481929117975e-02
-3.1000000000000014e+00 +9.1008039715689755e+00 +0.0000000000000000e+00 -3.0999999470870225e+00 +1.1132711576242179e-02 -1.0329660752209830e+00 -5.9096189952712284e-02
-3.2000000000000015e+00 +9.1007714533135253e+00 +0.0000000000000000e+00 -3.1999999417993936e+00 +1.1132896569597001e-02 -1.0329663252398049e+00 -5.9096880735113426e-02
-3.3000000000000016e+00 +9.1007379027156219e+00 +0.0000000000000000e+00 -3.2999999361707362e+00 +1.1133088583719617e-02 -1.0329665306673419e+00 -5.9097554358592735e-02
-3.4000000000000017e+00 +9.1007033197750644e+00 +0.0000000000000000e+00 -3.3999999301903929e+00 +1.1133288357545665e-02 -1.0329666960778099e+00 -5.9098210905392405e-02
-3.5000000000000018e+00 +9.1006677044916895e+00 +0.0000000000000000e+00 -3.4999999238477066e+00 +1.1133496630120357e-02 -1.0329668260451621e+00 -5.9098850457724818e-02
-3.6000000000000019e+00 +9.1006310568653728e+00 +0.0000000000000000e+00 -3.5999999171320196e+00 +1.1133713839424762e-02 -1.0329669247051645e+00 -5.9099473008222096e-02
-3.7000000000000020e+00 +9.1005933768960183e+00 +0.0000000000000000e+00 -3.6999999100326750e+00 +1.1133939218768912e-02 -1.0329669944415782e+00 -5.9100078191256601e-02
-3.8000000000000020e+00 +9.1005546645835587e+00 +0.0000000000000000e+00 -3.7999999025390152e+00 +1.1134171700207684e-02 -1.0329670371999939e+00 -5.9100665551536924e-02
-3.9000000000000021e+00 +9.1005149199279565e+00 +0.0000000000000000e+00 -3.8999998946403824e+00 +1.1134410215696392e-02 -1.0329670549257850e+00 -5.9101234633644716e-02
-4.0000000000000018e+00 +9.1004741429291975e+00 +0.0000000000000000e+00 -3.9999998863261199e+00 +1.1134653697082220e-02 -1.0329670495641279e+00 -5.9101784982028227e-02
-4.1000000000000014e+00 +9.1004323335872925e+00 +0.0000000000000000e+00 -4.0999998775855699e+00 +1.1134901076095679e-02 -1.0329670230600116e+00 -5.9102316140995634e-02
-4.2000000000000011e+00 +9.1003894919022716e+00 +0.0000000000000000e+00 -4.1999998684080753e+00 +1.1135151284342013e-02 -1.0329669773582555e+00 -5.9102827654708548e-02
-4.3000000000000007e+00 +9.1003456178741846e+00 +0.0000000000000000e+00 -4.2999998587829786e+00 +1.1135403253292672e-02 -1.0329669144035183e+00 -5.9103319067175489e-02
-4.4000000000000004e+00 +9.1003007115030989e+00 +0.0000000000000000e+00 -4.3999998486996237e+00 +1.1135655914276746e-02 -1.0329668361403190e+00 -5.9103789922245291e-02
-4.5000000000000000e+00 +9.1002547727890981e+00 +0.0000000000000000e+00 -4.4999998381473523e+00 +1.1135908198472388e-02 -1.0329667445130462e+00 -5.9104239763600623e-02
-4.5999999999999996e+00 +9.1002078017322781e+00 +0.0000000000000000e+00 -4.5999998271155071e+00 +1.1136159036898272e-02 -1.0329666414659744e+00 -5.9104668134751383e-02
-4.6999999999999993e+00 +9.1001597983327471e+00 +0.0000000000000000e+00 -4.6999998155934302e+00 +1.1136407360405035e-02 -1.0329665289432783e+00 -5.9105074579028166e-02
-4.7999999999999989e+00 +9.1001107625906208e+00 +0.0000000000000000e+00 -4.7999998035704650e+00 +1.1136652099666692e-02 -1.0329664088890467e+00 -5.9105458639575739e-02
-4.8999999999999986e+00 +9.1000606945060269e+00 +0.0000000000000000e+00 -4.8999997910359543e+00 +1.1136892185172114e-02 -1.0329662832472959e+00 -5.9105819859346508e-02
-4.9999999999999982e+00 +9.1000095940790935e+00 +0.0000000000000000e+00 -4.9999997779792409e+00 +1.1137126547216427e-02 -1.0329661539619859e+00 -5.9106157781093953e-02
-5.0999999999999979e+00 +9.0999574613099572e+00 +0.0000000000000000e+00 -5.0999997643896675e+00 +1.1137354115892463e-02 -1.0329660229770319e+00 -5.9106471947366027e-02
-5.1999999999999975e+00 +9.0999042961987531e+00 +0.0000000000000000e+00 -5.1999997502565769e+00 +1.1137573821082224e-02 -1.0329658922363232e+00 -5.9106761900498780e-02
-5.2999999999999972e+00 +9.0998500987456179e+00 +0.0000000000000000e+00 -5.2999997355693118e+00 +1.1137784592448286e-02 -1.0329657636837326e+00 -5.9107027182609663e-02
-5.3999999999999968e+00 +9.0997948689506849e+00 +0.0000000000000000e+00 -5.3999997203172150e+00 +1.1137985359425248e-02 -1.0329656392631315e+00 -5.9107267335591025e-02
-5.4999999999999964e+00 +9.0997386068140855e+00 +0.0000000000000000e+00 -5.4999997044896300e+00 +1.1138175051211169e-02 -1.0329655209184074e+00 -5.9107481901103577e-02
-5.5999999999999961e+00 +9.0996813123359424e+00 +0.0000000000000000e+00 -5.5999996880758989e+00 +1.1138353006042562e-02 -1.0329654106107149e+00 -5.9107670706160742e-02
-5.6999999999999957e+00 +9.0996229855163726e+00 +0.0000000000000000e+00 -5.6999996710653642e+00 +1.1138520199173222e-02 -1.0329653103704923e+00 -5.9107834720061085e-02
-5.7999999999999954e+00 +9.0995636263554829e+00 +0.0000000000000000e+00 -5.7999996534473688e+00 +1.1138678015228998e-02 -1.0329652222462840e+00 -5.9107975197886790e-02
-5.8999999999999950e+00 +9.0995032348533655e+00 +0.0000000000000000e+00 -5.8999996352112554e+00 +1.1138827838954389e-02 -1.0329651482876208e+00 -5.9108093394960086e-02
-5.9999999999999947e+00 +9.0994418110101023e+00 +0.0000000000000000e+00 -5.9999996163463667e+00 +1.1138971055220206e-02 -1.0329650905450776e+00 -5.9108190566857337e-02
-6.0999999999999943e+00 +9.0993793548257571e+00 +0.0000000000000000e+00 -6.0999995968420464e+00 +1.1139109049031233e-02 -1.0329650510703174e+00 -5.9108267969423249e-02
-6.1999999999999940e+00 +9.0993158663003761e+00 +0.0000000000000000e+00 -6.1999995766876363e+00 +1.1139243205533906e-02 -1.0329650319161536e+00 -5.9108326858785150e-02
-6.2999999999999936e+00 +9.0992513454339843e+00 +0.0000000000000000e+00 -6.2999995558724793e+00 +1.1139374910023951e-02 -1.0329650351365938e+00 -5.9108368491367018e-02
-6.3999999999999932e+00 +9.0991857922265851e+00 +0.0000000000000000e+00 -6.3999995343859180e+00 +1.1139505547954044e-02 -1.0329650627868978e+00 -5.9108394123903854e-02
-6.4999999999999929e+00 +9.0991192066781572e+00 +0.0000000000000000e+00 -6.4999995122172951e+00 +1.1139636504941508e-02 -1.0329651169236278e+00 -5.9108405013455718e-02
-6.5999999999999925e+00 +9.0990515887886545e+00 +0.0000000000000000e+00 -6.5999994893559535e+00 +1.1139769166775922e-02 -1.0329651996047011e+00 -5.9108402417422039e-02
-6.6999999999999922e+00 +9.0989829385580023e+00 +0.0000000000000000e+00 -6.6999994657912358e+00 +1.1139904919426806e-02 -1.0329653128894427e+00 -5.9108387593555717e-02
-6.7999999999999918e+00 +9.0989132559860924e+00 +0.0000000000000000e+00 -6.7999994415124849e+00 +1.1140045149051290e-02 -1.0329654588386368e+00 -5.9108361799977346e-02
-6.8999999999999915e+00 +9.0988425410727878e+00 +0.0000000000000000e+00 -6.8999994165090426e+00 +1.1140191242001739e-02 -1.0329656395145819e+00 -5.9108326295189417e-02
-6.9999999999999911e+00 +9.0987707938179145e+00 +0.0000000000000000e+00 -6.9999993907702525e+00 +1.1140344584833442e-02 -1.0329658569811389e+00 -5.9108282338090450e-02
-7.0999999999999908e+00 +9.0986980142212630e+00 +0.0000000000000000e+00 -7.0999993642854564e+00 +1.1140506564312251e-02 -1.0329661133037875e+00 -5.9108231187989274e-02
-7.1999999999999904e+00 +9.0986242022825845e+00 +0.0000000000000000e+00 -7.1999993370439972e+00 +1.1140678567422239e-02 -1.0329664105496774e+00 -5.9108174104619125e-02
-7.2999999999999901e+00 +9.0985493580015895e+00 +0.0000000000000000e+00 -7.2999993090352175e+00 +1.1140861981373358e-02 -1.0329667507876779e+00 -5.9108112348151824e-02
-7.3999999999999897e+00 +9.0984734813779458e+00 +0.0000000000000000e+00 -7.3999992802484593e+00 +1.1141058193609077e-02 -1.0329671360884356e+00 -5.9108047179212073e-02
-7.4999999999999893e+00 +9.0983965724112768e+00 +0.0000000000000000e+00 -7.4999992506730653e+00 +1.1141268591814074e-02 -1.0329675685244220e+00 -5.9107979858891491e-02
-7.5999999999999890e+00 +9.0983186311011579e+00 +0.0000000000000000e+00 -7.5999992202983773e+00 +1.1141494099702942e-02 -1.0329680501459151e+00 -5.9107911257531995e-02
-7.6999999999999886e+00 +9.0982396574471167e+00 +0.0000000000000000e+00 -7.6999991891137380e+00 +1.1141733784267704e-02 -1.0329685829089776e+00 -5.9107840680753455e-02
-7.7999999999999883e+00 +9.0981596514486274e+00 +0.0000000000000000e+00 -7.7999991571084895e+00 +1.1141986248352276e-02 -1.0329691687479978e+00 -5.9107767042714379e-02
-7.8999999999999879e+00 +9.0980786131051143e+00 +0.0000000000000000e+00 -7.8999991242719743e+00 +1.1142250094878754e-02 -1.0329698095998696e+00 -5.9107689257286010e-02
-7.9999999999999876e+00 +9.0979965424159452e+00 +0.0000000000000000e+00 -7.9999990905935343e+00 +1.1142523926849033e-02 -1.0329705074040574e+00 -5.9107606238041142e-02
-8.0999999999999872e+00 +9.0979134393804308e+00 +0.0000000000000000e+00 -8.0999990560625115e+00 +1.1142806347346431e-02 -1.0329712641026649e+00 -5.9107516898243131e-02
-8.1999999999999869e+00 +9.0978293039978233e+00 +0.0000000000000000e+00 -8.1999990206682476e+00 +1.1143095959537330e-02 -1.0329720816405015e+00 -5.9107420150834734e-02
-8.2999999999999865e+00 +9.0977441362673144e+00 +0.0000000000000000e+00 -8.2999989844000854e+00 +1.1143391366672794e-02 -1.0329729619651495e+00 -5.9107314908426960e-02
-8.3999999999999861e+00 +9.0976579361880336e+00 +0.0000000000000000e+00 -8.3999989472473668e+00 +1.1143691172090192e-02 -1.0329739070270301e+00 -5.9107200083288056e-02
-8.4999999999999858e+00 +9.0975707037590468e+00 +0.0000000000000000e+00 -8.4999989091994319e+00 +1.1143993979214869e-02 -1.0329749187794737e+00 -5.9107074587332400e-02
-8.5999999999999854e+00 +9.0974824389793501e+00 +0.0000000000000000e+00 -8.5999988702456243e+00 +1.1144298391561738e-02 -1.0329759991787841e+00 -5.9106937332109408e-02
-8.6999999999999851e+00 +9.0973931418478742e+00 +0.0000000000000000e+00 -8.6999988303752840e+00 +1.1144603012736936e-02 -1.0329771501843066e+00 -5.9106787228792437e-02
-8.7999999999999847e+00 +9.0973028123634769e+00 +0.0000000000000000e+00 -8.7999987895777529e+00 +1.1144906446439465e-02 -1.0329783737584941e+00 -5.9106623188167742e-02
-8.8999999999999844e+00 +9.0972114505249451e+00 +0.0000000000000000e+00 -8.8999987478423730e+00 +1.1145207296462832e-02 -1.0329796718669779e+00 -5.9106444120623450e-02
-8.9999999999999840e+00 +9.0971190563309925e+00 +0.0000000000000000e+00 -8.9999987051584842e+00 +1.1145504166696659e-02 -1.0329810464786300e+00 -5.9106248936138327e-02
-9.0999999999999837e+00 +9.0970256297802532e+00 +0.0000000000000000e+00 -9.0999986615154285e+00 +1.1145795661128376e-02 -1.0329824995656338e+00 -5.9106036544270879e-02
-9.1999999999999833e+00 +9.0969311708712866e+00 +0.0000000000000000e+00 -9.1999986169025476e+00 +1.1146080383844839e-02 -1.0329840331035500e+00 -5.9105805854148243e-02
-9.2999999999999829e+00 +9.0968356796025684e+00 +0.0000000000000000e+00 -9.2999985713091817e+00 +1.1146356939033965e-02 -1.0329856490713829e+00 -5.9105555774455122e-02
-9.3999999999999826e+00 +9.0967391559724948e+00 +0.0000000000000000e+00 -9.3999985247246709e+00 +1.1146623930986402e-02 -1.0329873494516502e+00 -5.9105285213422752e-02
-9.4999999999999822e+00 +9.0966415999793746e+00 +0.0000000000000000e+00 -9.4999984771383570e+00 +1.1146879964097172e-02 -1.0329891362304473e+00 -5.9104993078817836e-02
-9.5999999999999819e+00 +9.0965430116214350e+00 +0.0000000000000000e+00 -9.5999984285395801e+00 +1.1147124034861351e-02 -1.0329910119724406e+00 -5.9104678693071046e-02
-9.6999999999999815e+00 +9.0964433908968090e+00 +0.0000000000000000e+00 -9.6999983789176802e+00 +1.1147356707820707e-02 -1.0329929815449945e+00 -5.9104343039063062e-02
-9.7999999999999812e+00 +9.0963427378035391e+00 +0.0000000000000000e+00 -9.7999983282619976e+00 +1.1147578939353231e-02 -1.0329950503919583e+00 -5.9103987515197041e-02
-9.8999999999999808e+00 +9.0962410523395700e+00 +0.0000000000000000e+00 -9.8999982765618721e+00 +1.1147791685609655e-02 -1.0329972239584919e+00 -5.9103613520308053e-02
-9.9999999999999805e+00 +9.0961383345027382e+00 +0.0000000000000000e+00 -9.9999982238066440e+00 +1.1147995902506595e-02 -1.0329995076910672e+00 -5.9103222453675240e-02
-1.0099999999999980e+01 +9.0960345842907717e+00 +0.0000000000000000e+00 -1.0099998169985653e+01 +1.1148192545719747e-02 -1.0330019070374734e+00 -5.9102815715034347e-02
-1.0199999999999980e+01 +9.0959298017012831e+00 +0.0000000000000000e+00 -1.0199998115088238e+01 +1.1148382570677006e-02 -1.0330044274468198e+00 -5.9102394704589944e-02
-1.0299999999999979e+01 +9.0958239867317641e+00 +0.0000000000000000e+00 -1.0299998059103739e+01 +1.1148566932551632e-02 -1.0330070743695374e+00 -5.9101960823027724e-02
-1.0399999999999979e+01 +9.0957171393795804e+00 +0.0000000000000000e+00 -1.0399998002021496e+01 +1.1148746586255410e-02 -1.0330098532573844e+00 -5.9101515471526887e-02
-1.0499999999999979e+01 +9.0956092596419662e+00 +0.0000000000000000e+00 -1.0499997943830847e+01 +1.1148922486431786e-02 -1.0330127695634466e+00 -5.9101060051772430e-02
-1.0599999999999978e+01 +9.0955003475160172e+00 +0.0000000000000000e+00 -1.0599997884521128e+01 +1.1149095587449042e-02 -1.0330158287421427e+00 -5.9100595965967395e-02
-1.0699999999999978e+01 +9.0953904029986887e+00 +0.0000000000000000e+00 -1.0699997824081681e+01 +1.1149266843393419e-02 -1.0330190362492262e+00 -5.9100124616845294e-02
-1.0799999999999978e+01 +9.0952794260867851e+00 +0.0000000000000000e+00 -1.0799997762501842e+01 +1.1149437208062291e-02 -1.0330223975417889e+00 -5.9099647407682268e-02
-1.0899999999999977e+01 +9.0951674167769578e+00 +0.0000000000000000e+00 -1.0899997699770951e+01 +1.1149607634957301e-02 -1.0330259180782626e+00 -5.9099165742309501e-02
-1.0999999999999977e+01 +9.0950543750657022e+00 +0.0000000000000000e+00 -1.0999997635878344e+01 +1.1149779077277513e-02 -1.0330296033184239e+00 -5.9098681025125395e-02
-1.1099999999999977e+01 +9.0949403009493448e+00 +0.0000000000000000e+00 -1.1099997570813359e+01 +1.1149952487912543e-02 -1.0330334587233951e+00 -5.9098194661107939e-02
-1.1199999999999976e+01 +9.0948251944240450e+00 +0.0000000000000000e+00 -1.1199997504565333e+01 +1.1150128819435726e-02 -1.0330374897556491e+00 -5.9097708055826932e-02
-1.1299999999999976e+01 +9.0947090554857866e+00 +0.0000000000000000e+00 -1.1299997437123601e+01 +1.1150309024097263e-02 -1.0330417018790103e+00 -5.9097222615456302e-02
-1.1399999999999975e+01 +9.0945918841303719e+00 +0.0000000000000000e+00 -1.1399997368477500e+01 +1.1150494053817338e-02 -1.0330461005586586e+00 -5.9096739746786343e-02
-1.1499999999999975e+01 +9.0944736803534152e+00 +0.0000000000000000e+00 -1.1499997298616368e+01 +1.1150684860179278e-02 -1.0330506912611321e+00 -5.9096260857235926e-02
-1.1599999999999975e+01 +9.0943544441503423e+00 +0.0000000000000000e+00 -1.1599997227529538e+01 +1.1150882060489892e-02 -1.0330554760563009e+00 -5.9095787033939473e-02
-1.1699999999999974e+01 +9.0942341755163856e+00 +0.0000000000000000e+00 -1.1699997155206347e+01 +1.1151084936071099e-02 -1.0330604434192279e+00 -5.9095318080512549e-02
