# field on trajectory
# s[mm] rx[mm] ry[mm] rz[mm] bx[T] by[T] bz[T]
0.0000000000000000e+00 +9.1076201166355002e+00 +0.0000000000000000e+00 +0.0000000000000000e+00 +1.0256124294428501e-02 -1.0311113528299036e+00 -5.8880952684755211e-02
1.0005104645227200e-01 +9.1076196006322601e+00 +0.0000000000000000e+00 +1.0005104645049701e-01 +1.0256020462900913e-02 -1.0311131265782794e+00 -5.8881245823205176e-02
2.0010209290454301e-01 +9.1076180526189905e+00 +0.0000000000000000e+00 +2.0010209289035000e-01 +1.0255910703458687e-02 -1.0311146293161706e+00 -5.8881531239010042e-02
3.0015313935681498e-01 +9.1076154725992300e+00 +0.0000000000000000e+00 +3.0015313930891202e-01 +1.0255794685434505e-02 -1.0311158361292887e+00 -5.8881810125185813e-02
4.0020418580908601e-01 +9.1076118605712200e+00 +0.0000000000000000e+00 +4.0020418569554000e-01 +1.0255672078100348e-02 -1.0311167221028632e+00 -5.8882083674819230e-02
5.0025523226135804e-01 +9.1076072165331805e+00 +0.0000000000000000e+00 +5.0025523203958799e-01 +1.0255542550668770e-02 -1.0311172623215736e+00 -5.8882353081064570e-02
6.0030627871362996e-01 +9.1076015404886608e+00 +0.0000000000000000e+00 +6.0030627833041095e-01 +1.0255405885060985e-02 -1.0311174379111636e+00 -5.8882619087364224e-02
7.0035732516590099e-01 +9.1075948324376501e+00 +0.0000000000000000e+00 +7.0035732455736299e-01 +1.0255262310770324e-02 -1.0311172539792313e+00 -5.8882880651828805e-02
8.0040837161817302e-01 +9.1075870923766207e+00 +0.0000000000000000e+00 +8.0040837070980198e-01 +1.0255112168289667e-02 -1.0311167215826051e+00 -5.8883136289668798e-02
9.0045941807044405e-01 +9.1075783203073204e+00 +0.0000000000000000e+00 +9.0045941677707997e-01 +1.0254955798058922e-02 -1.0311158517773651e+00 -5.8883384516129199e-02
1.0005104645227201e+00 +9.1075685162297706e+00 +0.0000000000000000e+00 +1.0005104627485499e+00 +1.0254793540466928e-02 -1.0311146556188064e+00 -5.8883623846482061e-02
1.1005615109749900e+00 +9.1075576801457405e+00 +0.0000000000000000e+00 +1.1005615086135800e+00 +1.0254625735852974e-02 -1.0311131441613917e+00 -5.8883852796017919e-02
1.2006125574272599e+00 +9.1075458120516792e+00 +0.0000000000000000e+00 +1.2006125543615100e+00 +1.0254452724508747e-02 -1.0311113284587139e+00 -5.8884069880038706e-02
1.3006636038795301e+00 +9.1075329119511395e+00 +0.0000000000000000e+00 +1.3006635999817000e+00 +1.0254274846679489e-02 -1.0311092195634264e+00 -5.8884273613847793e-02
1.4007146503318000e+00 +9.1075189798405596e+00 +0.0000000000000000e+00 +1.4007146454635000e+00 +1.0254092442566226e-02 -1.0311068285272238e+00 -5.8884462512743825e-02
1.5007656967840699e+00 +9.1075040157234994e+00 +0.0000000000000000e+00 +1.5007656907962801e+00 +1.0253905852326864e-02 -1.0311041664007683e+00 -5.8884635092010786e-02
1.6008167432363500e+00 +9.1074880195981898e+00 +0.0000000000000000e+00 +1.6008167359693799e+00 +1.0253715416078333e-02 -1.0311012442336656e+00 -5.8884789866911272e-02
1.7008677896886200e+00 +9.1074709914646199e+00 +0.0000000000000000e+00 +1.7008677809721600e+00 +1.0253521473897973e-02 -1.0310980730744062e+00 -5.8884925352677614e-02
1.8009188361408901e+00 +9.1074529313228005e+00 +0.0000000000000000e+00 +1.8009188257939699e+00 +1.0253324365825241e-02 -1.0310946639703207e+00 -5.8885040064503819e-02
1.9009698825931600e+00 +9.1074338391727103e+00 +0.0000000000000000e+00 +1.9009698704241800e+00 +1.0253124431863410e-02 -1.0310910279675338e+00 -5.8885132517537589e-02
2.0010209290454299e+00 +9.1074137150161505e+00 +0.0000000000000000e+00 +2.0010209148521301e+00 +1.0252922011981129e-02 -1.0310871761109117e+00 -5.8885201226871804e-02
2.1010719754977001e+00 +9.1073925588495506e+00 +0.0000000000000000e+00 +2.1010719590671898e+00 +1.0252717446114352e-02 -1.0310831194440351e+00 -5.8885244707537386e-02
2.2011230219499698e+00 +9.1073703706746993e+00 +0.0000000000000000e+00 +2.2011230030586999e+00 +1.0252511074167624e-02 -1.0310788690091242e+00 -5.8885261474493709e-02
2.3011740684022501e+00 +9.1073471504933696e+00 +0.0000000000000000e+00 +2.3011740468160200e+00 +1.0252303236015919e-02 -1.0310744358470070e+00 -5.8885250042621247e-02
2.4012251148545198e+00 +9.1073228983037797e+00 +0.0000000000000000e+00 +2.4012250903285000e+00 +1.0252094271506427e-02 -1.0310698309970792e+00 -5.8885208926713777e-02
2.5012761613067900e+00 +9.1072976141041497e+00 +0.0000000000000000e+00 +2.5012761335854998e+00 +1.0251884520460183e-02 -1.0310650654972551e+00 -5.8885136641470562e-02
2.6013272077590601e+00 +9.1072712978980501e+00 +0.0000000000000000e+00 +2.6013271765763899e+00 +1.0251674365606098e-02 -1.0310601531536299e+00 -5.8885032055742290e-02
2.7013782542113298e+00 +9.1072439496836903e+00 +0.0000000000000000e+00 +2.7013782192905000e+00 +1.0251464354989973e-02 -1.0310551184349179e+00 -5.8884895402158605e-02
2.8014293006636000e+00 +9.1072155694610704e+00 +0.0000000000000000e+00 +2.8014292617172001e+00 +1.0251255076561581e-02 -1.0310499883770607e+00 -5.8884727241542777e-02
2.9014803471158799e+00 +9.1071861572302009e+00 +0.0000000000000000e+00 +2.9014803038458301e+00 +1.0251047118434005e-02 -1.0310447900180628e+00 -5.8884528134773885e-02
3.0015313935681500e+00 +9.1071557129910694e+00 +0.0000000000000000e+00 +3.0015313456657702e+00 +1.0250841068900588e-02 -1.0310395503982608e+00 -5.8884298642794160e-02
3.1015824400204202e+00 +9.1071242367454595e+00 +0.0000000000000000e+00 +3.1015823871663502e+00 +1.0250637516451730e-02 -1.0310342965605799e+00 -5.8884039326615775e-02
3.2016334864726899e+00 +9.1070917284915893e+00 +0.0000000000000000e+00 +3.2016334283369399e+00 +1.0250437049791981e-02 -1.0310290555508121e+00 -5.8883750747328774e-02
3.3016845329249600e+00 +9.1070581882277004e+00 +0.0000000000000000e+00 +3.3016844691668901e+00 +1.0250240257856792e-02 -1.0310238544178734e+00 -5.8883433466107651e-02
3.4017355793772301e+00 +9.1070236159573206e+00 +0.0000000000000000e+00 +3.4017355096455599e+00 +1.0250047729829254e-02 -1.0310187202140539e+00 -5.8883088044218053e-02
3.5017866258295101e+00 +9.1069880116786806e+00 +0.0000000000000000e+00 +3.5017865497623002e+00 +1.0249860055157331e-02 -1.0310136799953100e+00 -5.8882715043025079e-02
3.6018376722817802e+00 +9.1069513753917892e+00 +0.0000000000000000e+00 +3.6018375895064700e+00 +1.0249677823570521e-02 -1.0310087608215088e+00 -5.8882315023999710e-02
3.7018887187340499e+00 +9.1069137070966395e+00 +0.0000000000000000e+00 +3.7018886288674100e+00 +1.0249501625096802e-02 -1.0310039897567000e+00 -5.8881888548726100e-02
3.8019397651863200e+00 +9.1068750067950095e+00 +0.0000000000000000e+00 +3.8019396678344899e+00 +1.0249332050079458e-02 -1.0309993938693740e+00 -5.8881436178908529e-02
3.9019908116385902e+00 +9.1068352744833394e+00 +0.0000000000000000e+00 +3.9019907063970600e+00 +1.0249169689194216e-02 -1.0309950002327422e+00 -5.8880958476379523e-02
4.0020418580908599e+00 +9.1067945101634198e+00 +0.0000000000000000e+00 +4.0020417445444796e+00 +1.0249015133465779e-02 -1.0309908359249804e+00 -5.8880456003105680e-02
4.1020929045431300e+00 +9.1067527138370199e+00 +0.0000000000000000e+00 +4.1020927822660997e+00 +1.0248868974284876e-02 -1.0309869280295025e+00 -5.8879929321195366e-02
4.2021439509954099e+00 +9.1067098855023705e+00 +0.0000000000000000e+00 +4.2021438195512797e+00 +1.0248731803425289e-02 -1.0309833036352327e+00 -5.8879378992906593e-02
4.3021949974476801e+00 +9.1066660251594502e+00 +0.0000000000000000e+00 +4.3021948563893604e+00 +1.0248604213060545e-02 -1.0309799898368592e+00 -5.8878805580653275e-02
4.4022460438999502e+00 +9.1066211328065094e+00 +0.0000000000000000e+00 +4.4022458927697201e+00 +1.0248486795780923e-02 -1.0309770137351046e+00 -5.8878209647012951e-02
4.5022970903522204e+00 +9.1065752084488594e+00 +0.0000000000000000e+00 +4.5022969286816901e+00 +1.0248380144608351e-02 -1.0309744024368745e+00 -5.8877591754735656e-02
4.6023481368044896e+00 +9.1065282520811692e+00 +0.0000000000000000e+00 +4.6023479641146396e+00 +1.0248284701151310e-02 -1.0309721742109552e+00 -5.8876952711240993e-02
4.7023991832567598e+00 +9.1064802637070095e+00 +0.0000000000000000e+00 +4.7023989990579196e+00 +1.0248200340163683e-02 -1.0309703143046536e+00 -5.8876294236908613e-02
4.8024502297090397e+00 +9.1064312433245895e+00 +0.0000000000000000e+00 +4.8024500335008904e+00 +1.0248126803817590e-02 -1.0309688002581807e+00 -5.8875618264970099e-02
4.9025012761613098e+00 +9.1063811909321402e+00 +0.0000000000000000e+00 +4.9025010674329002e+00 +1.0248063833944377e-02 -1.0309676096106173e+00 -5.8874926728430248e-02
5.0025523226135800e+00 +9.1063301065332105e+00 +0.0000000000000000e+00 +5.0025521008432996e+00 +1.0248011172009271e-02 -1.0309667198997474e+00 -5.8874221560052419e-02
5.1026033690658501e+00 +9.1062779901260207e+00 +0.0000000000000000e+00 +5.1026031337214599e+00 +1.0247968559086537e-02 -1.0309661086619175e+00 -5.8873504692345556e-02
5.2026544155181202e+00 +9.1062248417123506e+00 +0.0000000000000000e+00 +5.2026541660567203e+00 +1.0247935735834001e-02 -1.0309657534318601e+00 -5.8872778057549056e-02
5.3027054619703904e+00 +9.1061706612886404e+00 +0.0000000000000000e+00 +5.3027051978384501e+00 +1.0247912442468157e-02 -1.0309656317425533e+00 -5.8872043587619653e-02
5.4027565084226703e+00 +9.1061154488584606e+00 +0.0000000000000000e+00 +5.4027562290559903e+00 +1.0247898418738596e-02 -1.0309657211250343e+00 -5.8871303214215770e-02
5.5028075548749404e+00 +9.1060592044200206e+00 +0.0000000000000000e+00 +5.5028072596986997e+00 +1.0247893403903188e-02 -1.0309659991082685e+00 -5.8870558868684933e-02
5.6028586013272097e+00 +9.1060019279733204e+00 +0.0000000000000000e+00 +5.6028582897559396e+00 +1.0247897136702697e-02 -1.0309664432189727e+00 -5.8869812482048645e-02
5.7029096477794798e+00 +9.1059436195183707e+00 +0.0000000000000000e+00 +5.7029093192170599e+00 +1.0247909355335646e-02 -1.0309670309814614e+00 -5.8869065984988547e-02
5.8029606942317500e+00 +9.1058842790551608e+00 +0.0000000000000000e+00 +5.8029603480714202e+00 +1.0247929797433103e-02 -1.0309677399174875e+00 -5.8868321307832205e-02
5.9030117406840201e+00 +9.1058239065854707e+00 +0.0000000000000000e+00 +5.9030113763083696e+00 +1.0247958200033474e-02 -1.0309685475460777e+00 -5.8867580380538728e-02
6.0030627871363000e+00 +9.1057625021075204e+00 +0.0000000000000000e+00 +6.0030624039172604e+00 +1.0247994299557453e-02 -1.0309694313833875e+00 -5.8866845132685301e-02
6.1031138335885702e+00 +9.1057000656213205e+00 +0.0000000000000000e+00 +6.1031134308874604e+00 +1.0248037831782691e-02 -1.0309703689425274e+00 -5.8866117493452323e-02
6.2031648800408403e+00 +9.1056365971268605e+00 +0.0000000000000000e+00 +6.2031644572083096e+00 +1.0248088531818614e-02 -1.0309713377334102e+00 -5.8865399391609396e-02
6.3032159264931096e+00 +9.1055720966241402e+00 +0.0000000000000000e+00 +6.3032154828691800e+00 +1.0248146134081280e-02 -1.0309723152625916e+00 -5.8864692755501255e-02
6.4032669729453797e+00 +9.1055065641149504e+00 +0.0000000000000000e+00 +6.4032665078594100e+00 +1.0248210372268106e-02 -1.0309732790331054e+00 -5.8863999513033324e-02
6.5033180193976499e+00 +9.1054399995957205e+00 +0.0000000000000000e+00 +6.5033175321683601e+00 +1.0248280979329458e-02 -1.0309742065444465e+00 -5.8863321591648268e-02
6.6033690658499298e+00 +9.1053724030699996e+00 +0.0000000000000000e+00 +6.6033685557853898e+00 +1.0248357583099891e-02 -1.0309750790532213e+00 -5.8862660612590753e-02
6.7034201123021999e+00 +9.1053037745378091e+00 +0.0000000000000000e+00 +6.7034195786998501e+00 +1.0248439433127265e-02 -1.0309758914344718e+00 -5.8862017089599053e-02
6.8034711587544701e+00 +9.1052341139955892e+00 +0.0000000000000000e+00 +6.8034706009011003e+00 +1.0248525693740492e-02 -1.0309766416454085e+00 -5.8861391285957750e-02
6.9035222052067402e+00 +9.1051634214468908e+00 +0.0000000000000000e+00 +6.9035216223784897e+00 +1.0248615529683572e-02 -1.0309773276430305e+00 -5.8860783465144381e-02
7.0035732516590103e+00 +9.1050916968899305e+00 +0.0000000000000000e+00 +7.0035726431213803e+00 +1.0248708106135838e-02 -1.0309779473841421e+00 -5.8860193890842169e-02
7.1036242981112796e+00 +9.1050189403247099e+00 +0.0000000000000000e+00 +7.1036236631191203e+00 +1.0248802588731525e-02 -1.0309784988253228e+00 -5.8859622826950016e-02
7.2036753445635497e+00 +9.1049451517530091e+00 +0.0000000000000000e+00 +7.2036746823610702e+00 +1.0248898143579573e-02 -1.0309789799229165e+00 -5.8859070537593351e-02
7.3037263910158297e+00 +9.1048703311712806e+00 +0.0000000000000000e+00 +7.3037257008365799e+00 +1.0248993937283700e-02 -1.0309793886330336e+00 -5.8858537287136206e-02
7.4037774374680998e+00 +9.1047944785830701e+00 +0.0000000000000000e+00 +7.4037767185350001e+00 +1.0249089136961790e-02 -1.0309797229115132e+00 -5.8858023340190434e-02
7.5038284839203699e+00 +9.1047175939865994e+00 +0.0000000000000000e+00 +7.5038277354457001e+00 +1.0249182910266153e-02 -1.0309799807139362e+00 -5.8857528961628366e-02
7.6038795303726401e+00 +9.1046396773836609e+00 +0.0000000000000000e+00 +7.6038787515580202e+00 +1.0249274425403030e-02 -1.0309801599955941e+00 -5.8857054416592558e-02
7.7039305768249102e+00 +9.1045607287706805e+00 +0.0000000000000000e+00 +7.7039297668613296e+00 +1.0249362851152740e-02 -1.0309802587114985e+00 -5.8856599970507989e-02
7.8039816232771804e+00 +9.1044807481512198e+00 +0.0000000000000000e+00 +7.8039807813449800e+00 +1.0249447356889096e-02 -1.0309802748163379e+00 -5.8856165889091330e-02
7.9040326697294496e+00 +9.1043997355235007e+00 +0.0000000000000000e+00 +7.9040317949983097e+00 +1.0249527112599631e-02 -1.0309802062644944e+00 -5.8855752438363565e-02
8.0040837161817304e+00 +9.1043176908892995e+00 +0.0000000000000000e+00 +8.0040828078106898e+00 +1.0249601288905189e-02 -1.0309800510100140e+00 -5.8855359884659841e-02
8.1041347626340006e+00 +9.1042346142468507e+00 +0.0000000000000000e+00 +8.1041338197714801e+00 +1.0249669057079960e-02 -1.0309798070066056e+00 -5.8854988494641242e-02
8.2041858090862707e+00 +9.1041505055961398e+00 +0.0000000000000000e+00 +8.2041848308700196e+00 +1.0249729589071171e-02 -1.0309794722076213e+00 -5.8854638535305190e-02
8.3042368555385409e+00 +9.1040653649371706e+00 +0.0000000000000000e+00 +8.3042358410956805e+00 +1.0249782057519001e-02 -1.0309790445660463e+00 -5.8854310273996555e-02
8.4042879019908092e+00 +9.1039791922699393e+00 +0.0000000000000000e+00 +8.4042868504377992e+00 +1.0249825635776410e-02 -1.0309785220344847e+00 -5.8854003978418654e-02
8.5043389484430794e+00 +9.1038919875980202e+00 +0.0000000000000000e+00 +8.5043378588857408e+00 +1.0249859497947348e-02 -1.0309779025651722e+00 -5.8853719916620376e-02
8.6043899948953602e+00 +9.1038037509160592e+00 +0.0000000000000000e+00 +8.6043888664288701e+00 +1.0249883075686911e-02 -1.0309771845017757e+00 -5.8853458031924863e-02
8.7044410413476303e+00 +9.1037144822276108e+00 +0.0000000000000000e+00 +8.7044398730565202e+00 +1.0249896703185235e-02 -1.0309763675644139e+00 -5.8853217125733701e-02
8.8044920877999004e+00 +9.1036241815309200e+00 +0.0000000000000000e+00 +8.8044908787580596e+00 +1.0249900912400583e-02 -1.0309754517759815e+00 -5.8852995748686077e-02
8.9045431342521706e+00 +9.1035328488259601e+00 +0.0000000000000000e+00 +8.9045418835228496e+00 +1.0249896234967337e-02 -1.0309744371601299e+00 -5.8852792451286690e-02
9.0045941807044407e+00 +9.1034404841127508e+00 +0.0000000000000000e+00 +9.0045928873402303e+00 +1.0249883202184316e-02 -1.0309733237412939e+00 -5.8852605783901994e-02
9.1046452271567109e+00 +9.1033470873930593e+00 +0.0000000000000000e+00 +9.1046438901995597e+00 +1.0249862345002936e-02 -1.0309721115447079e+00 -5.8852434296755726e-02
9.2046962736089899e+00 +9.1032526586651095e+00 +0.0000000000000000e+00 +9.2046948920902096e+00 +1.0249834194015662e-02 -1.0309708005964393e+00 -5.8852276539925502e-02
9.3047473200612600e+00 +9.1031571979306793e+00 +0.0000000000000000e+00 +9.3047458930015097e+00 +1.0249799279443981e-02 -1.0309693909233935e+00 -5.8852131063337719e-02
9.4047983665135302e+00 +9.1030607051879997e+00 +0.0000000000000000e+00 +9.4047968929228301e+00 +1.0249758131126888e-02 -1.0309678825533510e+00 -5.8851996416764418e-02
9.5048494129658003e+00 +9.1029631804370599e+00 +0.0000000000000000e+00 +9.5048478918435304e+00 +1.0249711278508941e-02 -1.0309662755149787e+00 -5.8851871149818519e-02
9.6049004594180705e+00 +9.1028646236796291e+00 +0.0000000000000000e+00 +9.6048988897529508e+00 +1.0249659250628497e-02 -1.0309645698378485e+00 -5.8851753811949604e-02
9.7049515058703406e+00 +9.1027650349139595e+00 +0.0000000000000000e+00 +9.7049498866404598e+00 +1.0249602576106081e-02 -1.0309627655524718e+00 -5.8851642952440567e-02
9.8050025523226108e+00 +9.1026644141418007e+00 +0.0000000000000000e+00 +9.8050008824953991e+00 +1.0249541783132445e-02 -1.0309608626903053e+00 -5.8851537120402669e-02
9.9050535987748898e+00 +9.1025627613596107e+00 +0.0000000000000000e+00 +9.9050518773071392e+00 +1.0249477399457012e-02 -1.0309588612837910e+00 -5.8851434864772553e-02
1.0005104645227201e+01 +9.1024600765709298e+00 +0.0000000000000000e+00 +1.0005102871065001e+01 +1.0249409952375726e-02 -1.0309567613663513e+00 -5.8851334734306454e-02
1.0105155691679400e+01 +9.1023563597757793e+00 +0.0000000000000000e+00 +1.0105153863758400e+01 +1.0249339968719604e-02 -1.0309545629724326e+00 -5.8851235277577719e-02
1.0205206738131700e+01 +9.1022516109723703e+00 +0.0000000000000000e+00 +1.0205204855376600e+01 +1.0249267974842900e-02 -1.0309522661375232e+00 -5.8851135042972375e-02
1.0305257784584001e+01 +9.1021458301607101e+00 +0.0000000000000000e+00 +1.0305255845909100e+01 +1.0249194496611184e-02 -1.0309498708981673e+00 -5.8851032578684584e-02
1.0405308831036200e+01 +9.1020390173425607e+00 +0.0000000000000000e+00 +1.0405306835345099e+01 +1.0249120059389567e-02 -1.0309473772919859e+00 -5.8850926432712808e-02
1.0505359877488500e+01 +9.1019311725161600e+00 +0.0000000000000000e+00 +1.0505357823674100e+01 +1.0249045188039952e-02 -1.0309447853579070e+00 -5.8850815152912933e-02
1.0605410923940800e+01 +9.1018222956832808e+00 +0.0000000000000000e+00 +1.0605408810885301e+01 +1.0248970474664878e-02 -1.0309420966307832e+00 -5.8850697719048731e-02
1.0705461970393101e+01 +9.1017123868421397e+00 +0.0000000000000000e+00 +1.0705459796968199e+01 +1.0248896742004177e-02 -1.0309393177398847e+00 -5.8850574583311763e-02
1.0805513016845300e+01 +9.1016014459927401e+00 +0.0000000000000000e+00 +1.0805510781912000e+01 +1.0248824862005561e-02 -1.0309364563972059e+00 -5.8850446511111841e-02
1.0905564063297600e+01 +9.1014894731368603e+00 +0.0000000000000000e+00 +1.0905561765706199e+01 +1.0248755706718593e-02 -1.0309335203129417e+00 -5.8850314267635657e-02
1.1005615109749900e+01 +9.1013764682745109e+00 +0.0000000000000000e+00 +1.1005612748340100e+01 +1.0248690148298078e-02 -1.0309305171954457e+00 -5.8850178617842822e-02
1.1105666156202100e+01 +9.1012624314038906e+00 +0.0000000000000000e+00 +1.1105663729803000e+01 +1.0248629059007343e-02 -1.0309274547511873e+00 -5.8850040326461461e-02
1.1205717202654400e+01 +9.1011473625250208e+00 +0.0000000000000000e+00 +1.1205714710084401e+01 +1.0248573311221329e-02 -1.0309243406846929e+00 -5.8849900157983220e-02
1.1305768249106700e+01 +9.1010312616396707e+00 +0.0000000000000000e+00 +1.1305765689173500e+01 +1.0248523777429871e-02 -1.0309211826985027e+00 -5.8849758876659081e-02
1.1405819295559001e+01 +9.1009141287460693e+00 +0.0000000000000000e+00 +1.1405816667059700e+01 +1.0248481330241114e-02 -1.0309179884931323e+00 -5.8849617246495352e-02
1.1505870342011200e+01 +9.1007959638459806e+00 +0.0000000000000000e+00 +1.1505867643732399e+01 +1.0248446842384530e-02 -1.0309147657670108e+00 -5.8849476031248536e-02
1.1605921388463500e+01 +9.1006767669376405e+00 +0.0000000000000000e+00 +1.1605918619181001e+01 +1.0248421186714412e-02 -1.0309115222164500e+00 -5.8849335994421610e-02
1.1705972434915800e+01 +9.1005565380228095e+00 +0.0000000000000000e+00 +1.1705969593394700e+01 +1.0248405236212855e-02 -1.0309082655355801e+00 -5.8849197899258777e-02
1.1806023481367999e+01 +9.1004352770997308e+00 +0.0000000000000000e+00 +1.1806020566362900e+01 +1.0248399863993278e-02 -1.0309050034163207e+00 -5.8849062508741889e-02
