# field on trajectory
# s[mm] rx[mm] ry[mm] rz[mm] bx[T] by[T] bz[T]
0.0000000000000000e+00 +9.1076201166355002e+00 +0.0000000000000000e+00 +0.0000000000000000e+00 +1.1088389724683831e-02 -1.0322536380990617e+00 -5.9478247755292334e-02
1.0005104645227200e-01 +9.1076196006322601e+00 +0.0000000000000000e+00 +1.0005104645049701e-01 +1.1088258512442602e-02 -1.0322562089097578e+00 -5.9480859413277520e-02
2.0010209290454301e-01 +9.1076180526189905e+00 +0.0000000000000000e+00 +2.0010209289035000e-01 +1.1088123015488737e-02 -1.0322586850594606e+00 -5.9483451391840206e-02
3.0015313935681498e-01 +9.1076154725992300e+00 +0.0000000000000000e+00 +3.0015313930891202e-01 +1.1087983384869155e-02 -1.0322610631798785e+00 -5.9486023578188003e-02
4.0020418580908601e-01 +9.1076118605712200e+00 +0.0000000000000000e+00 +4.0020418569554000e-01 +1.1087839771586967e-02 -1.0322633399032892e+00 -5.9488575859494852e-02
5.0025523226135804e-01 +9.1076072165331805e+00 +0.0000000000000000e+00 +5.0025523203958799e-01 +1.1087692326593172e-02 -1.0322655118625654e+00 -5.9491108122893682e-02
6.0030627871362996e-01 +9.1076015404886608e+00 +0.0000000000000000e+00 +6.0030627833041095e-01 +1.1087541236524612e-02 -1.0322675770207148e+00 -5.9493620180067479e-02
7.0035732516590099e-01 +9.1075948324376501e+00 +0.0000000000000000e+00 +7.0035732455736299e-01 +1.1087386829859805e-02 -1.0322695386189047e+00 -5.9496111543341494e-02
8.0040837161817302e-01 +9.1075870923766207e+00 +0.0000000000000000e+00 +8.0040837070980198e-01 +1.1087229470253649e-02 -1.0322714012082952e+00 -5.9498581650736342e-02
9.0045941807044405e-01 +9.1075783203073204e+00 +0.0000000000000000e+00 +9.0045941677707997e-01 +1.1087069521346197e-02 -1.0322731693407285e+00 -5.9501029940221918e-02
1.0005104645227201e+00 +9.1075685162297706e+00 +0.0000000000000000e+00 +1.0005104627485499e+00 +1.1086907346772170e-02 -1.0322748475687651e+00 -5.9503455849715878e-02
1.1005615109749900e+00 +9.1075576801457405e+00 +0.0000000000000000e+00 +1.1005615086135800e+00 +1.1086743310170202e-02 -1.0322764404457021e+00 -5.9505858817080981e-02
1.2006125574272599e+00 +9.1075458120516792e+00 +0.0000000000000000e+00 +1.2006125543615100e+00 +1.1086577775192393e-02 -1.0322779525256125e+00 -5.9508238280123721e-02
1.3006636038795301e+00 +9.1075329119511395e+00 +0.0000000000000000e+00 +1.3006635999817000e+00 +1.1086411105513283e-02 -1.0322793883633414e+00 -5.9510593676590270e-02
1.4007146503318000e+00 +9.1075189798405596e+00 +0.0000000000000000e+00 +1.4007146454635000e+00 +1.1086243664839594e-02 -1.0322807525145608e+00 -5.9512924444166240e-02
1.5007656967840699e+00 +9.1075040157234994e+00 +0.0000000000000000e+00 +1.5007656907962801e+00 +1.1086075816919181e-02 -1.0322820495357636e+00 -5.9515230020472425e-02
1.6008167432363500e+00 +9.1074880195981898e+00 +0.0000000000000000e+00 +1.6008167359693799e+00 +1.1085907925550711e-02 -1.0322832839843141e+00 -5.9517509843064142e-02
1.7008677896886200e+00 +9.1074709914646199e+00 +0.0000000000000000e+00 +1.7008677809721600e+00 +1.1085740354592798e-02 -1.0322844604184565e+00 -5.9519763349428045e-02
1.8009188361408901e+00 +9.1074529313228005e+00 +0.0000000000000000e+00 +1.8009188257939699e+00 +1.1085573467973397e-02 -1.0322855833973421e+00 -5.9521989976979953e-02
1.9009698825931600e+00 +9.1074338391727103e+00 +0.0000000000000000e+00 +1.9009698704241800e+00 +1.1085407629699156e-02 -1.0322866574810552e+00 -5.9524189163062735e-02
2.0010209290454299e+00 +9.1074137150161505e+00 +0.0000000000000000e+00 +2.0010209148521301e+00 +1.1085243203864670e-02 -1.0322876872306304e+00 -5.9526360344943637e-02
2.1010719754977001e+00 +9.1073925588495506e+00 +0.0000000000000000e+00 +2.1010719590671898e+00 +1.1085080554662063e-02 -1.0322886772080946e+00 -5.9528502959813004e-02
2.2011230219499698e+00 +9.1073703706746993e+00 +0.0000000000000000e+00 +2.2011230030586999e+00 +1.1084920046389985e-02 -1.0322896319764669e+00 -5.9530616444780568e-02
2.3011740684022501e+00 +9.1073471504933696e+00 +0.0000000000000000e+00 +2.3011740468160200e+00 +1.1084762043463125e-02 -1.0322905560997933e+00 -5.9532700236873799e-02
2.4012251148545198e+00 +9.1073228983037797e+00 +0.0000000000000000e+00 +2.4012250903285000e+00 +1.1084606910421638e-02 -1.0322914541431791e+00 -5.9534753773036166e-02
2.5012761613067900e+00 +9.1072976141041497e+00 +0.0000000000000000e+00 +2.5012761335854998e+00 +1.1084455011940131e-02 -1.0322923306728038e+00 -5.9536776490124101e-02
2.6013272077590601e+00 +9.1072712978980501e+00 +0.0000000000000000e+00 +2.6013271765763899e+00 +1.1084306588023136e-02 -1.0322931895509659e+00 -5.9538767716742047e-02
2.7013782542113298e+00 +9.1072439496836903e+00 +0.0000000000000000e+00 +2.7013782192905000e+00 +1.1084161398245763e-02 -1.0322940319266456e+00 -5.9540726365020703e-02
2.8014293006636000e+00 +9.1072155694610704e+00 +0.0000000000000000e+00 +2.8014292617172001e+00 +1.1084019086538751e-02 -1.0322948582957627e+00 -5.9542651246878693e-02
2.9014803471158799e+00 +9.1071861572302009e+00 +0.0000000000000000e+00 +2.9014803038458301e+00 +1.1083879296783505e-02 -1.0322956691540293e+00 -5.9544541174227500e-02
3.0015313935681500e+00 +9.1071557129910694e+00 +0.0000000000000000e+00 +3.0015313456657702e+00 +1.1083741672803007e-02 -1.0322964649968602e+00 -5.9546394958976845e-02
3.1015824400204202e+00 +9.1071242367454595e+00 +0.0000000000000000e+00 +3.1015823871663502e+00 +1.1083605858352677e-02 -1.0322972463192781e+00 -5.9548211413039384e-02
3.2016334864726899e+00 +9.1070917284915893e+00 +0.0000000000000000e+00 +3.2016334283369399e+00 +1.1083471497111393e-02 -1.0322980136158348e+00 -5.9549989348336559e-02
3.3016845329249600e+00 +9.1070581882277004e+00 +0.0000000000000000e+00 +3.3016844691668901e+00 +1.1083338232672327e-02 -1.0322987673805106e+00 -5.9551727576803215e-02
3.4017355793772301e+00 +9.1070236159573206e+00 +0.0000000000000000e+00 +3.4017355096455599e+00 +1.1083205708533685e-02 -1.0322995081066160e+00 -5.9553424910392179e-02
3.5017866258295101e+00 +9.1069880116786806e+00 +0.0000000000000000e+00 +3.5017865497623002e+00 +1.1083073568089909e-02 -1.0323002362867184e+00 -5.9555080161080541e-02
3.6018376722817802e+00 +9.1069513753917892e+00 +0.0000000000000000e+00 +3.6018375895064700e+00 +1.1082941454622386e-02 -1.0323009524125411e+00 -5.9556692140873987e-02
3.7018887187340499e+00 +9.1069137070966395e+00 +0.0000000000000000e+00 +3.7018886288674100e+00 +1.1082809011290395e-02 -1.0323016569748746e+00 -5.9558259661812073e-02
3.8019397651863200e+00 +9.1068750067950095e+00 +0.0000000000000000e+00 +3.8019396678344899e+00 +1.1082675881121959e-02 -1.0323023504634794e+00 -5.9559781535973126e-02
3.9019908116385902e+00 +9.1068352744833394e+00 +0.0000000000000000e+00 +3.9019907063970600e+00 +1.1082541707004972e-02 -1.0323030333670136e+00 -5.9561256575480212e-02
4.0020418580908599e+00 +9.1067945101634198e+00 +0.0000000000000000e+00 +4.0020417445444796e+00 +1.1082406131677785e-02 -1.0323037061729192e+00 -5.9562683592505036e-02
4.1020929045431300e+00 +9.1067527138370199e+00 +0.0000000000000000e+00 +4.1020927822660997e+00 +1.1082268797720247e-02 -1.0323043693673399e+00 -5.9564061399273546e-02
4.2021439509954099e+00 +9.1067098855023705e+00 +0.0000000000000000e+00 +4.2021438195512797e+00 +1.1082129347544758e-02 -1.0323050234350410e+00 -5.9565388808071607e-02
4.3021949974476801e+00 +9.1066660251594502e+00 +0.0000000000000000e+00 +4.3021948563893604e+00 +1.1081987423386980e-02 -1.0323056688593042e+00 -5.9566664631249350e-02
4.4022460438999502e+00 +9.1066211328065094e+00 +0.0000000000000000e+00 +4.4022458927697201e+00 +1.1081842667296874e-02 -1.0323063061218469e+00 -5.9567887681226797e-02
4.5022970903522204e+00 +9.1065752084488594e+00 +0.0000000000000000e+00 +4.5022969286816901e+00 +1.1081694721131071e-02 -1.0323069357027232e+00 -5.9569056770499743e-02
4.6023481368044896e+00 +9.1065282520811692e+00 +0.0000000000000000e+00 +4.6023479641146396e+00 +1.1081543380225534e-02 -1.0323075591128501e+00 -5.9570170881128322e-02
4.7023991832567598e+00 +9.1064802637070095e+00 +0.0000000000000000e+00 +4.7023989990579196e+00 +1.1081389013663141e-02 -1.0323081817178912e+00 -5.9571229628070863e-02
4.8024502297090397e+00 +9.1064312433245895e+00 +0.0000000000000000e+00 +4.8024500335008904e+00 +1.1081232124536889e-02 -1.0323088097839894e+00 -5.9572232773983776e-02
4.9025012761613098e+00 +9.1063811909321402e+00 +0.0000000000000000e+00 +4.9025010674329002e+00 +1.1081073216074627e-02 -1.0323094495782905e+00 -5.9573180081539098e-02
5.0025523226135800e+00 +9.1063301065332105e+00 +0.0000000000000000e+00 +5.0025521008432996e+00 +1.1080912791648084e-02 -1.0323101073689929e+00 -5.9574071313425105e-02
5.1026033690658501e+00 +9.1062779901260207e+00 +0.0000000000000000e+00 +5.1026031337214599e+00 +1.1080751354782360e-02 -1.0323107894254302e+00 -5.9574906232348616e-02
5.2026544155181202e+00 +9.1062248417123506e+00 +0.0000000000000000e+00 +5.2026541660567203e+00 +1.1080589409164874e-02 -1.0323115020181117e+00 -5.9575684601035170e-02
5.3027054619703904e+00 +9.1061706612886404e+00 +0.0000000000000000e+00 +5.3027051978384501e+00 +1.1080427458654802e-02 -1.0323122514188017e+00 -5.9576406182231194e-02
5.4027565084226703e+00 +9.1061154488584606e+00 +0.0000000000000000e+00 +5.4027562290559903e+00 +1.1080266007291928e-02 -1.0323130439005541e+00 -5.9577070738703608e-02
5.5028075548749404e+00 +9.1060592044200206e+00 +0.0000000000000000e+00 +5.5028072596986997e+00 +1.1080105559306171e-02 -1.0323138857377996e+00 -5.9577678033242515e-02
5.6028586013272097e+00 +9.1060019279733204e+00 +0.0000000000000000e+00 +5.6028582897559396e+00 +1.1079946619126582e-02 -1.0323147832063875e+00 -5.9578227828661470e-02
5.7029096477794798e+00 +9.1059436195183707e+00 +0.0000000000000000e+00 +5.7029093192170599e+00 +1.1079789691390588e-02 -1.0323157425836544e+00 -5.9578719887798802e-02
5.8029606942317500e+00 +9.1058842790551608e+00 +0.0000000000000000e+00 +5.8029603480714202e+00 +1.1079635280953180e-02 -1.0323167701484797e+00 -5.9579153973518775e-02
5.9030117406840201e+00 +9.1058239065854707e+00 +0.0000000000000000e+00 +5.9030113763083696e+00 +1.1079483892896045e-02 -1.0323178721813455e+00 -5.9579529848712558e-02
6.0030627871363000e+00 +9.1057625021075204e+00 +0.0000000000000000e+00 +6.0030624039172604e+00 +1.1079336032536916e-02 -1.0323190549644061e+00 -5.9579847276299919e-02
6.1031138335885702e+00 +9.1057000656213205e+00 +0.0000000000000000e+00 +6.1031134308874604e+00 +1.1079192205438614e-02 -1.0323203247815369e+00 -5.9580106019229806e-02
6.2031648800408403e+00 +9.1056365971268605e+00 +0.0000000000000000e+00 +6.2031644572083096e+00 +1.1079052917418255e-02 -1.0323216879183985e+00 -5.9580305840481629e-02
6.3032159264931096e+00 +9.1055720966241402e+00 +0.0000000000000000e+00 +6.3032154828691800e+00 +1.1078918674556478e-02 -1.0323231506624984e+00 -5.9580446503066452e-02
6.4032669729453797e+00 +9.1055065641149504e+00 +0.0000000000000000e+00 +6.4032665078594100e+00 +1.1078789983206548e-02 -1.0323247193032425e+00 -5.9580527770027904e-02
6.5033180193976499e+00 +9.1054399995957205e+00 +0.0000000000000000e+00 +6.5033175321683601e+00 +1.1078667349997347e-02 -1.0323264001319445e+00 -5.9580549404441074e-02
6.6033690658499298e+00 +9.1053724030699996e+00 +0.0000000000000000e+00 +6.6033685557853898e+00 +1.1078551087300494e-02 -1.0323281972605418e+00 -5.9580511075587012e-02
6.7034201123021999e+00 +9.1053037745378091e+00 +0.0000000000000000e+00 +6.7034195786998501e+00 +1.1078440803000768e-02 -1.0323301069024371e+00 -5.9580412112938082e-02
6.8034711587544701e+00 +9.1052341139955892e+00 +0.0000000000000000e+00 +6.8034706009011003e+00 +1.1078335945312599e-02 -1.0323321234843910e+00 -5.9580251769023637e-02
6.9035222052067402e+00 +9.1051634214468908e+00 +0.0000000000000000e+00 +6.9035216223784897e+00 +1.1078235962186692e-02 -1.0323342414344050e+00 -5.9580029296326331e-02
7.0035732516590103e+00 +9.1050916968899305e+00 +0.0000000000000000e+00 +7.0035726431213803e+00 +1.1078140301298828e-02 -1.0323364551817775e+00 -5.9579743947281640e-02
7.1036242981112796e+00 +9.1050189403247099e+00 +0.0000000000000000e+00 +7.1036236631191203e+00 +1.1078048410038066e-02 -1.0323387591571134e+00 -5.9579394974275300e-02
7.2036753445635497e+00 +9.1049451517530091e+00 +0.0000000000000000e+00 +7.2036746823610702e+00 +1.1077959735495135e-02 -1.0323411477923519e+00 -5.9578981629641418e-02
7.3037263910158297e+00 +9.1048703311712806e+00 +0.0000000000000000e+00 +7.3037257008365799e+00 +1.1077873724451086e-02 -1.0323436155208074e+00 -5.9578503165661385e-02
7.4037774374680998e+00 +9.1047944785830701e+00 +0.0000000000000000e+00 +7.4037767185350001e+00 +1.1077789823365311e-02 -1.0323461567771706e+00 -5.9577958834560699e-02
7.5038284839203699e+00 +9.1047175939865994e+00 +0.0000000000000000e+00 +7.5038277354457001e+00 +1.1077707478364325e-02 -1.0323487659975614e+00 -5.9577347888508429e-02
7.6038795303726401e+00 +9.1046396773836609e+00 +0.0000000000000000e+00 +7.6038787515580202e+00 +1.1077626135229932e-02 -1.0323514376195377e+00 -5.9576669579614543e-02
7.7039305768249102e+00 +9.1045607287706805e+00 +0.0000000000000000e+00 +7.7039297668613296e+00 +1.1077545239387889e-02 -1.0323541660821396e+00 -5.9575923159928851e-02
7.8039816232771804e+00 +9.1044807481512198e+00 +0.0000000000000000e+00 +7.8039807813449800e+00 +1.1077464235895937e-02 -1.0323569458258905e+00 -5.9575107881438029e-02
7.9040326697294496e+00 +9.1043997355235007e+00 +0.0000000000000000e+00 +7.9040317949983097e+00 +1.1077382569432597e-02 -1.0323597712928518e+00 -5.9574222996064886e-02
8.0040837161817304e+00 +9.1043176908892995e+00 +0.0000000000000000e+00 +8.0040828078106898e+00 +1.1077299684285306e-02 -1.0323626369266294e+00 -5.9573267755665828e-02
8.1041347626340006e+00 +9.1042346142468507e+00 +0.0000000000000000e+00 +8.1041338197714801e+00 +1.1077215024339056e-02 -1.0323655371724152e+00 -5.9572241412029575e-02
8.2041858090862707e+00 +9.1041505055961398e+00 +0.0000000000000000e+00 +8.2041848308700196e+00 +1.1077128033064616e-02 -1.0323684664770054e+00 -5.9571143216874949e-02
8.3042368555385409e+00 +9.1040653649371706e+00 +0.0000000000000000e+00 +8.3042358410956805e+00 +1.1077038153507024e-02 -1.0323714192888285e+00 -5.9569972421849117e-02
8.4042879019908092e+00 +9.1039791922699393e+00 +0.0000000000000000e+00 +8.4042868504377992e+00 +1.1076944828273974e-02 -1.0323743900579754e+00 -5.9568728278525808e-02
8.5043389484430794e+00 +9.1038919875980202e+00 +0.0000000000000000e+00 +8.5043378588857408e+00 +1.1076847499539744e-02 -1.0323773732362369e+00 -5.9567410038430968e-02
8.6043899948953602e+00 +9.1038037509160592e+00 +0.0000000000000000e+00 +8.6043888664288701e+00 +1.1076745826690043e-02 -1.0323803635707072e+00 -5.9566017341314913e-02
8.7044410413476303e+00 +9.1037144822276108e+00 +0.0000000000000000e+00 +8.7044398730565202e+00 +1.1076640233611136e-02 -1.0323833568407126e+00 -5.9564551191060133e-02
8.8044920877999004e+00 +9.1036241815309200e+00 +0.0000000000000000e+00 +8.8044908787580596e+00 +1.1076531312272722e-02 -1.0323863490515446e+00 -5.9563012891089728e-02
8.9045431342521706e+00 +9.1035328488259601e+00 +0.0000000000000000e+00 +8.9045418835228496e+00 +1.1076419654961032e-02 -1.0323893362078875e+00 -5.9561403744993774e-02
9.0045941807044407e+00 +9.1034404841127508e+00 +0.0000000000000000e+00 +9.0045928873402303e+00 +1.1076305854289819e-02 -1.0323923143137792e+00 -5.9559725056534604e-02
9.1046452271567109e+00 +9.1033470873930593e+00 +0.0000000000000000e+00 +9.1046438901995597e+00 +1.1076190503211281e-02 -1.0323952793725719e+00 -5.9557978129651690e-02
9.2046962736089899e+00 +9.1032526586651095e+00 +0.0000000000000000e+00 +9.2046948920902096e+00 +1.1076074195027206e-02 -1.0323982273869006e+00 -5.9556164268467285e-02
9.3047473200612600e+00 +9.1031571979306793e+00 +0.0000000000000000e+00 +9.3047458930015097e+00 +1.1075957523399713e-02 -1.0324011543586307e+00 -5.9554284777290752e-02
9.4047983665135302e+00 +9.1030607051879997e+00 +0.0000000000000000e+00 +9.4047968929228301e+00 +1.1075841082362415e-02 -1.0324040562888317e+00 -5.9552340960624374e-02
9.5048494129658003e+00 +9.1029631804370599e+00 +0.0000000000000000e+00 +9.5048478918435304e+00 +1.1075725466331270e-02 -1.0324069291777269e+00 -5.9550334123167951e-02
9.6049004594180705e+00 +9.1028646236796291e+00 +0.0000000000000000e+00 +9.6048988897529508e+00 +1.1075611270115511e-02 -1.0324097690246554e+00 -5.9548265569823858e-02
9.7049515058703406e+00 +9.1027650349139595e+00 +0.0000000000000000e+00 +9.7049498866404598e+00 +1.1075499088928796e-02 -1.0324125718280390e+00 -5.9546136605702515e-02
9.8050025523226108e+00 +9.1026644141418007e+00 +0.0000000000000000e+00 +9.8050008824953991e+00 +1.1075389518399984e-02 -1.0324153335853352e+00 -5.9543948536127052e-02
9.9050535987748898e+00 +9.1025627613596107e+00 +0.0000000000000000e+00 +9.9050518773071392e+00 +1.1075283154584357e-02 -1.0324180502930100e+00 -5.9541702666639058e-02
1.0005104645227201e+01 +9.1024600765709298e+00 +0.0000000000000000e+00 +1.0005102871065001e+01 +1.1075180593974212e-02 -1.0324207179464746e+00 -5.9539400303002449e-02
1.0105155691679400e+01 +9.1023563597757793e+00 +0.0000000000000000e+00 +1.0105153863758400e+01 +1.1075082433510174e-02 -1.0324233325400682e+00 -5.9537042751209648e-02
1.0205206738131700e+01 +9.1022516109723703e+00 +0.0000000000000000e+00 +1.0205204855376600e+01 +1.1074989270592143e-02 -1.0324258900670154e+00 -5.9534631317486569e-02
1.0305257784584001e+01 +9.1021458301607101e+00 +0.0000000000000000e+00 +1.0305255845909100e+01 +1.1074901703090110e-02 -1.0324283865193780e+00 -5.9532167308297100e-02
1.0405308831036200e+01 +9.1020390173425607e+00 +0.0000000000000000e+00 +1.0405306835345099e+01 +1.1074820329355207e-02 -1.0324308178880177e+00 -5.9529652030348539e-02
1.0505359877488500e+01 +9.1019311725161600e+00 +0.0000000000000000e+00 +1.0505357823674100e+01 +1.1074745748202143e-02 -1.0324331801627209e+00 -5.9527086790586249e-02
1.0605410923940800e+01 +9.1018222956832808e+00 +0.0000000000000000e+00 +1.0605408810885301e+01 +1.1074678340938714e-02 -1.0324354705154484e+00 -5.9524472815511154e-02
1.0705461970393101e+01 +9.1017123868421397e+00 +0.0000000000000000e+00 +1.0705459796968199e+01 +1.1074617746092922e-02 -1.0324376901505889e+00 -5.9521811056795430e-02
1.0805513016845300e+01 +9.1016014459927401e+00 +0.0000000000000000e+00 +1.0805510781912000e+01 +1.1074563443758220e-02 -1.0324398411309381e+00 -5.9519102407658397e-02
1.0905564063297600e+01 +9.1014894731368603e+00 +0.0000000000000000e+00 +1.0905561765706199e+01 +1.1074514913658450e-02 -1.0324419255193589e+00 -5.9516347761388429e-02
1.1005615109749900e+01 +9.1013764682745109e+00 +0.0000000000000000e+00 +1.1005612748340100e+01 +1.1074471635138293e-02 -1.0324439453787797e+00 -5.9513548011343786e-02
1.1105666156202100e+01 +9.1012624314038906e+00 +0.0000000000000000e+00 +1.1105663729803000e+01 +1.1074433087153663e-02 -1.0324459027721904e+00 -5.9510704050953274e-02
1.1205717202654400e+01 +9.1011473625250208e+00 +0.0000000000000000e+00 +1.1205714710084401e+01 +1.1074398748261898e-02 -1.0324477997626249e+00 -5.9507816773716221e-02
1.1305768249106700e+01 +9.1010312616396707e+00 +0.0000000000000000e+00 +1.1305765689173500e+01 +1.1074368096612179e-02 -1.0324496384131583e+00 -5.9504887073203214e-02
1.1405819295559001e+01 +9.1009141287460693e+00 +0.0000000000000000e+00 +1.1405816667059700e+01 +1.1074340609936003e-02 -1.0324514207869078e+00 -5.9501915843056960e-02
1.1505870342011200e+01 +9.1007959638459806e+00 +0.0000000000000000e+00 +1.1505867643732399e+01 +1.1074315765537334e-02 -1.0324531489470110e+00 -5.9498903976992222e-02
1.1605921388463500e+01 +9.1006767669376405e+00 +0.0000000000000000e+00 +1.1605918619181001e+01 +1.1074293040283179e-02 -1.0324548249566368e+00 -5.9495852368796995e-02
1.1705972434915800e+01 +9.1005565380228095e+00 +0.0000000000000000e+00 +1.1705969593394700e+01 +1.1074271910593696e-02 -1.0324564508789598e+00 -5.9492761912332284e-02
1.1806023481367999e+01 +9.1004352770997308e+00 +0.0000000000000000e+00 +1.1806020566362900e+01 +1.1074251852432786e-02 -1.0324580287771707e+00 -5.9489633501533419e-02
