# multipoles
# s[mm] polynom_b[n=0][T/m^n] polynom_b[n=1][T/m^n] polynom_b[n=2][T/m^n] polynom_b[n=3][T/m^n] polynom_b[n=4][T/m^n] polynom_b[n=5][T/m^n] polynom_b[n=6][T/m^n] 
+0.0000000000000000e+00 -1.0343814527192308e+00 +2.2753441024355388e+00 +2.3497025825804709e+01 +7.5329410840502180e+02 -3.0807611034849884e+04 -4.0610914646256403e+06 +8.3329618702250570e+07 
+1.0000000000000001e-01 -1.0343820451560848e+00 +2.2751003842082120e+00 +2.3503377345176983e+01 +7.6169482575384393e+02 -3.0998348220049018e+04 -4.1111612203664961e+06 +8.4017363737511247e+07 
+2.0000000000000001e-01 -1.0343826138202437e+00 +2.2748677135848654e+00 +2.3506000535213765e+01 +7.6964590912782694e+02 -3.1120852632452115e+04 -4.1584061992905326e+06 +8.4405655663547575e+07 
+2.9999999999999999e-01 -1.0343831520715425e+00 +2.2746463097760699e+00 +2.3504419401466325e+01 +7.7713519032350393e+02 -3.1166473726864690e+04 -4.2027565917479163e+06 +8.4454700440127164e+07 
+4.0000000000000002e-01 -1.0343836532699440e+00 +2.2744363920181705e+00 +2.3498157967344834e+01 +7.8415050027574625e+02 -3.1126561287124856e+04 -4.2441425831848178e+06 +8.4124705481378198e+07 
+5.0000000000000000e-01 -1.0343841107755343e+00 +2.2742381795875546e+00 +2.3486740277508748e+01 +7.9067966864623293e+02 -3.0992465501640025e+04 -4.2824943517565792e+06 +8.3375880039948374e+07 
+5.9999999999999998e-01 -1.0343845194566019e+00 +2.2740517269253089e+00 +2.3469803473177596e+01 +7.9671831253035100e+02 -3.0757620405830265e+04 -4.3177914615399437e+06 +8.2178148671913996e+07 
+6.9999999999999996e-01 -1.0343848802122264e+00 +2.2738764224092916e+00 +2.3447437821986291e+01 +8.0229347241167648e+02 -3.0423838265057853e+04 -4.3502125403696401e+06 +8.0540577271531910e+07 
+8.0000000000000004e-01 -1.0343851954488752e+00 +2.2737114862324597e+00 +2.3419847090386522e+01 +8.0744011308189408e+02 -2.9995037261100610e+04 -4.3799863630822469e+06 +7.8482090084479839e+07 
+9.0000000000000002e-01 -1.0343854675731172e+00 +2.2735561386283814e+00 +2.3387235058626452e+01 +8.1219319799467189e+02 -2.9475135809406704e+04 -4.4073416965260329e+06 +7.6021612315280989e+07 
+1.0000000000000000e+00 -1.0343856989915423e+00 +2.2734095998630770e+00 +2.3349805508365261e+01 +8.1658768944039537e+02 -2.8868052324817374e+04 -4.4325073003764823e+06 +7.3178069020722002e+07 
+1.1000000000000001e+00 -1.0343858921107405e+00 +2.2732710902475302e+00 +2.3307762220557542e+01 +8.2065854819915103e+02 -2.8177705162702146e+04 -4.4557119250810239e+06 +6.9970384779479206e+07 
+1.2000000000000000e+00 -1.0343860493373349e+00 +2.2731398301303849e+00 +2.3261308978373020e+01 +8.2444073370234048e+02 -2.7408012683894620e+04 -4.4771843126296159e+06 +6.6417484034323141e+07 
+1.3000000000000000e+00 -1.0343861730778738e+00 +2.2730150398983855e+00 +2.3210649553380620e+01 +8.2796920402967703e+02 -2.6562892976895026e+04 -4.4971531965010297e+06 +6.2538289729866296e+07 
+1.3999999999999999e+00 -1.0343862657388663e+00 +2.2728959399831137e+00 +2.3155987707963249e+01 +8.3127891568261975e+02 -2.5646263897110613e+04 -4.5158473002212923e+06 +5.8351723484429471e+07 
+1.5000000000000000e+00 -1.0343863297267817e+00 +2.2727817508580443e+00 +2.3097527194988473e+01 +8.3440482364179252e+02 -2.4662043062908164e+04 -4.5334953375680987e+06 +5.3876705583604001e+07 
+1.6000000000000001e+00 -1.0343863674479481e+00 +2.2726716930363122e+00 +2.3035471744631945e+01 +8.3738188142838794e+02 -2.3614147590115259e+04 -4.5503260128556946e+06 +4.9132153676178291e+07 
+1.7000000000000000e+00 -1.0343863813086402e+00 +2.2725649870804796e+00 +2.2970025074377823e+01 +8.4024504079521455e+02 -2.2506494284788499e+04 -4.5665680190334190e+06 +4.4136983704644553e+07 
+1.8000000000000000e+00 -1.0343863737149264e+00 +2.2724608535950623e+00 +2.2901390867705366e+01 +8.4302925191860879e+02 -2.1342999225886222e+04 -4.5824500386800282e+06 +3.8910107888905652e+07 
+1.8999999999999999e+00 -1.0343863470727608e+00 +2.2723585132289457e+00 +2.2829772786729698e+01 +8.4576946332751561e+02 -2.0127578000494883e+04 -4.5982007435273277e+06 +3.3470435835783698e+07 
+2.0000000000000000e+00 -1.0343863037878995e+00 +2.2722571866826797e+00 +2.2755374459538512e+01 +8.4850062164128849e+02 -1.8864145463792793e+04 -4.6140487927599624e+06 +2.7836873400482714e+07 
+2.1000000000000001e+00 -1.0343862462659021e+00 +2.2721560947010508e+00 +2.2678399480373216e+01 +8.5125767180445234e+02 -1.7556615728402383e+04 -4.6302228343664948e+06 +2.2028322603879627e+07 
+2.2000000000000002e+00 -1.0343861769120912e+00 +2.2720544580749173e+00 +2.2599051402848691e+01 +8.5407555698750218e+02 -1.6208902034666573e+04 -4.6469515044062212e+06 +1.6063681014788833e+07 
+2.2999999999999998e+00 -1.0343860981315705e+00 +2.2719514976515258e+00 +2.2517533741134937e+01 +8.5698921827387085e+02 -1.4824916765375854e+04 -4.6644634250911754e+06 +9.9618418019582164e+06 
+2.3999999999999999e+00 -1.0343860123291513e+00 +2.2718464343216720e+00 +2.2434049961918213e+01 +8.6003359502351668e+02 -1.3408571290691116e+04 -4.6829872068144502e+06 +3.7416929943207391e+06 
+2.5000000000000000e+00 -1.0343859219093401e+00 +2.2717384890310801e+00 +2.2348803479571639e+01 +8.6324362449541502e+02 -1.1963775867067869e+04 -4.7027514457555851e+06 -2.5778830158564583e+06 
+2.6000000000000001e+00 -1.0343858291126113e+00 +2.2716271815914921e+00 +2.2262010998111133e+01 +8.6664237457902630e+02 -1.0494583502184918e+04 -4.7239070063311933e+06 -8.9777527729513496e+06 
+2.7000000000000002e+00 -1.0343857356255359e+00 +2.2715132213804732e+00 +2.2173947669153193e+01 +8.7020507238104960e+02 -9.0055433114453062e+03 -4.7462906831523599e+06 -1.5438742644811166e+07 
+2.7999999999999998e+00 -1.0343856430218135e+00 +2.2713976144173738e+00 +2.2084904583918913e+01 +8.7389485219166113e+02 -7.5013087101142819e+03 -4.7696596556981299e+06 -2.1941918220401667e+07 
+2.8999999999999999e+00 -1.0343855528752763e+00 +2.2712813666936227e+00 +2.1995172849288654e+01 +8.7767484887050387e+02 -5.9865334005090544e+03 -4.7937711057834821e+06 -2.8468343857211251e+07 
+3.0000000000000000e+00 -1.0343854667599801e+00 +2.2711654841811399e+00 +2.1905043605692281e+01 +8.8150819765127267e+02 -4.4658717360807659e+03 -4.8183822165163234e+06 -3.4999080879265055e+07 
+3.1000000000000001e+00 -1.0343853862502281e+00 +2.2710509728143609e+00 +2.1814808026251814e+01 +8.8535803469899690e+02 -2.9439786987430025e+03 -4.8432501756657297e+06 -4.1515187712064438e+07 
+3.2000000000000002e+00 -1.0343853129205556e+00 +2.2709388384966349e+00 +2.1724757316985801e+01 +8.8918749689283527e+02 -1.4255099186065727e+03 -4.8681321742942845e+06 -4.7997719745036632e+07 
+3.2999999999999998e+00 -1.0343852483458134e+00 +2.2708300870808595e+00 +2.1635182728466621e+01 +8.9295972243720189e+02 +8.4878103890286013e+01 -4.8927854104127130e+06 -5.4427728279933050e+07 
+3.3999999999999999e+00 -1.0343851941011397e+00 +2.2707257243796590e+00 +2.1546375552251870e+01 +8.9663785056629456e+02 +1.5825280579658349e+03 -4.9169670872770445e+06 -6.0786260799063198e+07 
+3.5000000000000000e+00 -1.0343851517620231e+00 +2.2706267561439462e+00 +2.1458627129163901e+01 +9.0018502216962645e+02 +3.0627816567243258e+03 -4.9404344170107096e+06 -6.7054360156299666e+07 
+3.6000000000000001e+00 -1.0343851229042835e+00 +2.2705341880719563e+00 +2.1372228848779155e+01 +9.0356437954577495e+02 +4.5209796462399472e+03 -4.9629446191965779e+06 -7.3213064625666127e+07 
+3.7000000000000002e+00 -1.0343851091041416e+00 +2.2704490257941572e+00 +2.1287472157694534e+01 +9.0673906685989971e+02 +5.9524616389766143e+03 -4.9842549235944320e+06 -7.9243407086469010e+07 
+3.7999999999999998e+00 -1.0343851119382088e+00 +2.2703722748712636e+00 +2.1204648558879590e+01 +9.0967223019578728e+02 +7.3525661179644585e+03 -5.0041225704160342e+06 -8.5126415023246124e+07 
+3.8999999999999999e+00 -1.0343851329835874e+00 +2.2703049407867986e+00 +2.1124049626892607e+01 +9.1232701780735044e+02 +8.7166301437145121e+03 -5.0223048118483685e+06 -9.0843109128249258e+07 
+4.0000000000000000e+00 -1.0343851738177712e+00 +2.2702480289463582e+00 +2.1045966991960238e+01 +9.1466658012554910e+02 +1.0039989651737631e+04 -5.0385589120990792e+06 -9.6374504705197319e+07 
+4.0999999999999996e+00 -1.0343852360187522e+00 +2.2702025446702141e+00 +2.0970692359498852e+01 +9.1665407000241680e+02 +1.1317979075097734e+04 -5.0526421487997966e+06 -1.0170160986292012e+08 
+4.2000000000000002e+00 -1.0343853211650698e+00 +2.2701694931799938e+00 +2.0898517511725142e+01 +9.1825264310091518e+02 +1.2545931304379697e+04 -5.0643118153596688e+06 -1.0680542529980250e+08 
+4.2999999999999998e+00 -1.0343854308357330e+00 +2.2701498796039119e+00 +2.0829734302163331e+01 +9.1942545775831866e+02 +1.3719177790481714e+04 -5.0733252201350238e+06 -1.1166694479550742e+08 
+4.4000000000000004e+00 -1.0343855666103681e+00 +2.2701447089705971e+00 +2.0764634672979152e+01 +9.2013567517615832e+02 +1.4833048205085908e+04 -5.0794396875936985e+06 -1.1626715357331295e+08 
+4.5000000000000000e+00 -1.0343857300691490e+00 +2.2701549861922765e+00 +2.0703510648855410e+01 +9.2034645991922105e+02 +1.5882870549451734e+04 -5.0824125616860278e+06 -1.2058702884050356e+08 
+4.5999999999999996e+00 -1.0343859230018777e+00 +2.2701812695514065e+00 +2.0646642840005384e+01 +9.2003206193768699e+02 +1.6864031147269223e+04 -5.0820663608507104e+06 -1.2460737830492163e+08 
+4.7000000000000002e+00 -1.0343861477473026e+00 +2.2702223391680492e+00 +2.0594250010045883e+01 +9.1921191555111875e+02 +1.7772356385222301e+04 -5.0784904933847524e+06 -1.2830876538746552e+08 
+4.7999999999999998e+00 -1.0343864067093675e+00 +2.2702765319344280e+00 +2.0546531451550972e+01 +9.1791699985287869e+02 +1.8603830017848377e+04 -5.0718430263938876e+06 -1.3167177158685216e+08 
+4.9000000000000004e+00 -1.0343867022916060e+00 +2.2703421847118586e+00 +2.0503686415321518e+01 +9.1617829487360223e+02 +1.9354436631754768e+04 -5.0622820324337445e+06 -1.3467698279816541e+08 
+5.0000000000000000e+00 -1.0343870368971171e+00 +2.2704176343207219e+00 +2.0465914111420290e+01 +9.1402678180228418e+02 +2.0020161641477898e+04 -5.0499655903026517e+06 -1.3730498938592875e+08 
+5.0999999999999996e+00 -1.0343874129285193e+00 +2.2705012175432846e+00 +2.0433413702685801e+01 +9.1149344289065959e+02 +2.0596991414676526e+04 -5.0350517844607756e+06 -1.3953638679949361e+08 
+5.2000000000000002e+00 -1.0343878327879625e+00 +2.2705912711229739e+00 +2.0406384305597815e+01 +9.0860926149350553e+02 +2.1080913257233642e+04 -5.0176987053136444e+06 -1.4135177551796740e+08 
+5.2999999999999998e+00 -1.0343882988770798e+00 +2.2706861317708009e+00 +2.0385024987517728e+01 +9.0540522188114699e+02 +2.1467915467078983e+04 -4.9980644480952686e+06 -1.4273176132417884e+08 
+5.4000000000000004e+00 -1.0343888135969541e+00 +2.2707841361478924e+00 +2.0369534759181533e+01 +9.0191230976196459e+02 +2.1753987488578030e+04 -4.9763071159751294e+06 -1.4365695608611822e+08 
+5.5000000000000000e+00 -1.0343893793481018e+00 +2.2708836208841583e+00 +2.0360112578103251e+01 +8.9816151174246465e+02 +2.1935119833277102e+04 -4.9525848168756403e+06 -1.4410797735089669e+08 
+5.5999999999999996e+00 -1.0343899985303846e+00 +2.2709829225614899e+00 +2.0356957332288506e+01 +8.9418381581637914e+02 +2.2007304410908127e+04 -4.9270556663728021e+06 -1.4406544999610823e+08 
+5.7000000000000002e+00 -1.0343906735430999e+00 +2.2710803777220527e+00 +2.0360267856918803e+01 +8.9001021115096796e+02 +2.1966534200619702e+04 -4.8998777864684835e+06 -1.4351000464265966e+08 
+5.7999999999999998e+00 -1.0343914067848385e+00 +2.2711743228672105e+00 +2.0370242913896114e+01 +8.8567168809595307e+02 +2.1808803648940735e+04 -4.8712093056192184e+06 -1.4242227958848795e+08 
+5.9000000000000004e+00 -1.0343922006535156e+00 +2.2712630944503109e+00 +2.0387081198433904e+01 +8.8119923843066579e+02 +2.1530108547470685e+04 -4.8412083602282535e+06 -1.4078292025133735e+08 
+6.0000000000000000e+00 -1.0343930575462876e+00 +2.2713450288860533e+00 +2.0410981328330323e+01 +8.7662385508637522e+02 +2.1126446235870695e+04 -4.8100330930504752e+06 -1.3857258014117777e+08 
+6.0999999999999996e+00 -1.0343939798596127e+00 +2.2714184625383913e+00 +2.0442141849730898e+01 +8.7197653248739948e+02 +2.0593815497685671e+04 -4.7778416551413918e+06 -1.3577192039589250e+08 
+6.2000000000000002e+00 -1.0343949699891191e+00 +2.2714817317316069e+00 +2.0480761226076059e+01 +8.6728826626452894e+02 +1.9928216772496977e+04 -4.7447922042286741e+06 -1.3236161080753450e+08 
+6.2999999999999998e+00 -1.0343960303296624e+00 +2.2715331727382728e+00 +2.0527037841428708e+01 +8.6259005360459514e+02 +1.9125652092793858e+04 -4.7110429068119163e+06 -1.2832232953866662e+08 
+6.4000000000000004e+00 -1.0343971632752378e+00 +2.2715711217859940e+00 +2.0581169990784851e+01 +8.5791289305089686e+02 +1.8182125275947765e+04 -4.6767519369517770e+06 -1.2363476406731631e+08 
+6.5000000000000000e+00 -1.0343983712189226e+00 +2.2715939150193156e+00 +2.0643355871633833e+01 +8.5328778608745858e+02 +1.7093642179930419e+04 -4.6420774847490145e+06 -1.1827961255657819e+08 
+6.5999999999999996e+00 -1.0343996549252676e+00 +2.2716002992797666e+00 +2.0713646048694521e+01 +8.4874111052512740e+02 +1.5859037830121713e+04 -4.6071603263460221e+06 -1.1225093085115233e+08 
+6.7000000000000002e+00 -1.0344010090831872e+00 +2.2715908092785715e+00 +2.0791527957638035e+01 +8.4427582119525709e+02 +1.4487633342392483e+04 -4.5720448764694771e+06 -1.0559167731367132e+08 
+6.7999999999999998e+00 -1.0344024269671153e+00 +2.2715664599418028e+00 +2.0876353701140033e+01 +8.3988798263042952e+02 +1.2991200293050257e+04 -4.5367458767846739e+06 -9.8356094732772499e+07 
+6.9000000000000004e+00 -1.0344039018518170e+00 +2.2715282663970635e+00 +2.0967475409776185e+01 +8.3557365249644397e+02 +1.1381509562845580e+04 -4.5012780226010391e+06 -9.0598421604368344e+07 
+7.0000000000000000e+00 -1.0344054270125080e+00 +2.2714772439755655e+00 +2.1064245259872283e+01 +8.3132888132539415e+02 +9.6703310132493552e+03 -4.4656559613905018e+06 -8.2372890554162517e+07 
+7.0999999999999996e+00 -1.0344069957247306e+00 +2.2714144082349872e+00 +2.1166015455853746e+01 +8.2714971180246437e+02 +7.8694338202970057e+03 -4.4298942884353222e+06 -7.3733729901819348e+07 
+7.2000000000000002e+00 -1.0344086012645481e+00 +2.2713407749530830e+00 +2.1272138252476651e+01 +8.2303217890042777e+02 +5.9905860405253188e+03 -4.3940075473863026e+06 -6.4735161521500751e+07 
+7.2999999999999998e+00 -1.0344102369083790e+00 +2.2712573601481458e+00 +2.1381965938114774e+01 +8.1897230927789349e+02 +4.0455549269179610e+03 -4.3580102266164431e+06 -5.5431402320441507e+07 
+7.4000000000000004e+00 -1.0344118959332271e+00 +2.2711651800760833e+00 +2.1494850856432052e+01 +8.1496612129043319e+02 +2.0461065053577640e+03 -4.3219167590559321e+06 -4.5876662156606890e+07 
+7.5000000000000000e+00 -1.0344135716164922e+00 +2.2710652512488170e+00 +2.1610145386494747e+01 +8.1100962444493257e+02 +4.0059557432398050e+00 -4.2857415188471088e+06 -3.6125145633660376e+07 
+7.5999999999999996e+00 -1.0344152572360987e+00 +2.2709585904352969e+00 +2.1727201956772273e+01 +8.0709881931728046e+02 -2.0689826722379735e+03 -4.2494988206570055e+06 -2.6231050666832294e+07 
+7.7000000000000002e+00 -1.0344169460705595e+00 +2.2708462146755379e+00 +2.1845373052956873e+01 +8.0322969710638733e+02 -4.1610966025354219e+03 -4.2132029168660883e+06 -1.6248567786651935e+07 
+7.7999999999999998e+00 -1.0344186313988364e+00 +2.2707291412801096e+00 +2.1964011199517195e+01 +7.9939823962400442e+02 -6.2605739951906380e+03 -4.1768679973749793e+06 -6.2318816780983182e+06 
+7.9000000000000004e+00 -1.0344203065005322e+00 +2.2706083878511145e+00 +2.2082468981982636e+01 +7.9560041862178639e+02 -8.3556543760167606e+03 -4.1405081854286147e+06 +3.7648309098266661e+06 
+8.0000000000000000e+00 -1.0344219646558357e+00 +2.2704849722803448e+00 +2.2200099041264309e+01 +7.9183219582932827e+02 -1.0434578530319295e+04 -4.1041375376818255e+06 +1.3687400692410842e+07 
+8.0999999999999996e+00 -1.0344235991454820e+00 +2.2703599127615868e+00 +2.2316254066294256e+01 +7.8808952255481984e+02 -1.2485588372220465e+04 -4.0677700416948507e+06 +2.3481665284773890e+07 
+8.1999999999999993e+00 -1.0344252032508858e+00 +2.2702342277955112e+00 +2.2430286812486155e+01 +7.8436833949088236e+02 -1.4496927302053053e+04 -4.0314196145503214e+06 +3.3093470947042357e+07 
+8.3000000000000007e+00 -1.0344267702540924e+00 +2.2701089362066189e+00 +2.2541550091382728e+01 +7.8066457618437130e+02 -1.6456840017571118e+04 -3.9951000996066337e+06 +4.2468671740713246e+07 
+8.4000000000000004e+00 -1.0344282934377889e+00 +2.2699850571395594e+00 +2.2649396774326785e+01 +7.7697415113589034e+02 -1.8353572580516353e+04 -3.9588252669412973e+06 +5.1553129862904690e+07 
+8.5000000000000000e+00 -1.0344297660856130e+00 +2.2698636102090832e+00 +2.2753179846106089e+01 +7.7329296603991600e+02 -2.0175373749637478e+04 -3.9226087783322954e+06 +6.0292722813487656e+07 
+8.5999999999999996e+00 -1.0344311826765251e+00 +2.2697457551521185e+00 +2.2852376129608615e+01 +7.6960833355213731e+02 -2.1912946588047293e+04 -3.8864094521447001e+06 +6.8645217130187646e+07 
+8.6999999999999993e+00 -1.0344325419236193e+00 +2.2696330472380857e+00 +2.2946868039241831e+01 +7.6587863917974778e+02 -2.3564419887805201e+04 -3.8499975068457164e+06 +7.6602858240736946e+07 
+8.8000000000000007e+00 -1.0344338434757607e+00 +2.2695271167520690e+00 +2.3036619689616789e+01 +7.6205566961733223e+02 -2.5129244435985747e+04 -3.8130992845992325e+06 +8.4163568307316929e+07 
+8.9000000000000004e+00 -1.0344350869822556e+00 +2.2694295939062519e+00 +2.3121595215045193e+01 +7.5809121474645815e+02 -2.6606870645506096e+04 -3.7754411567086503e+06 +9.1325264557903126e+07 
+9.0000000000000000e+00 -1.0344362720930331e+00 +2.2693421087764101e+00 +2.3201758800698425e+01 +7.5393707045439737e+02 -2.7996749303179859e+04 -3.7367495415797960e+06 +9.8085863216838226e+07 
+9.0999999999999996e+00 -1.0344373984585506e+00 +2.2692662913039299e+00 +2.3277074664963514e+01 +7.4954503863627883e+02 -2.9298331205816903e+04 -3.6967509051438365e+06 +1.0444327766785629e+08 
+9.1999999999999993e+00 -1.0344384657299535e+00 +2.2692037712793263e+00 +2.3347507082595587e+01 +7.4486692774033008e+02 -3.0511067595610457e+04 -3.6551717644171454e+06 +1.1039542047133593e+08 
+9.3000000000000007e+00 -1.0344394735589035e+00 +2.2691561783453955e+00 +2.3413020361338226e+01 +7.3985455276593325e+02 -3.1634409687091880e+04 -3.6117386879271585e+06 +1.1594020100767384e+08 
+9.4000000000000004e+00 -1.0344404215977696e+00 +2.2691251419876277e+00 +2.3473578864688150e+01 +7.3445973559615004e+02 -3.2667809089483628e+04 -3.5661782980441260e+06 +1.2107552742199303e+08 
+9.5000000000000000e+00 -1.0344413094995246e+00 +2.2691122915305919e+00 +2.3529146998533353e+01 +7.2863430517747202e+02 -3.3610717532474555e+04 -3.5182172724294569e+06 +1.2579930522963098e+08 
+9.5999999999999996e+00 -1.0344421369178332e+00 +2.2691192561285987e+00 +2.3579689221177649e+01 +7.2233009786111541e+02 -3.4462587041853869e+04 -3.4675823464248022e+06 +1.3010943807898712e+08 
+9.6999999999999993e+00 -1.0344429035069949e+00 +2.2691476647623925e+00 +2.3625170034950472e+01 +7.1549895757288368e+02 -3.5222869760256195e+04 -3.4140003144797226e+06 +1.3400382681188194e+08 
+9.8000000000000007e+00 -1.0344436089219917e+00 +2.2691991462397270e+00 +2.3665553993636767e+01 +7.0809273587004066e+02 -3.5891018070285078e+04 -3.3571980308553330e+06 +1.3748036996317691e+08 
+9.9000000000000004e+00 -1.0344442528185440e+00 +2.2692753291761596e+00 +2.3700805704033208e+01 +7.0006329254929892e+02 -3.6466484612394917e+04 -3.2969024135803594e+06 +1.4053696378261867e+08 
+1.0000000000000000e+01 -1.0344448348530384e+00 +2.2693778420008006e+00 +2.3730889821867876e+01 +6.9136249558953944e+02 -3.6948722181172110e+04 -3.2328404445580943e+06 +1.4317150163516369e+08 
+1.0100000000000000e+01 -1.0344453546826262e+00 +2.2695083129503368e+00 +2.3755771058909264e+01 +6.8194222135185748e+02 -3.7337183855085430e+04 -3.1647391710833721e+06 +1.4538187457158598e+08 
