# field on trajectory
# s[mm] rx[mm] ry[mm] rz[mm] bx[T] by[T] bz[T]
0.0000000000000000e+00 +9.1905000000000001e+00 +0.0000000000000000e+00 +0.0000000000000000e+00 +1.1145051461134241e-02 -1.0326993075842645e+00 -5.8844394208476015e-02
1.0000000000000001e-01 +9.1904994840072778e+00 +0.0000000000000000e+00 +9.9999999998225009e-02 +1.1144954006368758e-02 -1.0327009462633847e+00 -5.8844497291026136e-02
2.0000000000000001e-01 +9.1904979360279988e+00 +0.0000000000000000e+00 +1.9999999998580006e-01 +1.1144859382282961e-02 -1.0327026893614517e+00 -5.8844615049535157e-02
3.0000000000000004e-01 +9.1904953560604241e+00 +0.0000000000000000e+00 +2.9999999995207516e-01 +1.1144768429033660e-02 -1.0327045340308241e+00 -5.8844748208829838e-02
4.0000000000000002e-01 +9.1904917441027081e+00 +0.0000000000000000e+00 +3.9999999988640023e-01 +1.1144681986790394e-02 -1.0327064774229593e+00 -5.8844897493676156e-02
5.0000000000000000e-01 +9.1904871001529109e+00 +0.0000000000000000e+00 +4.9999999977812515e-01 +1.1144600895735629e-02 -1.0327085166883416e+00 -5.8845063628767458e-02
5.9999999999999998e-01 +9.1904814242089952e+00 +0.0000000000000000e+00 +5.9999999961659967e-01 +1.1144525775401209e-02 -1.0327106486509501e+00 -5.8845247187813171e-02
6.9999999999999996e-01 +9.1904747162688327e+00 +0.0000000000000000e+00 +6.9999999939117363e-01 +1.1144456362675132e-02 -1.0327128688319789e+00 -5.8845448140844366e-02
7.9999999999999993e-01 +9.1904669763302049e+00 +0.0000000000000000e+00 +7.9999999909119657e-01 +1.1144392173787369e-02 -1.0327151724265493e+00 -5.8845666306932380e-02
8.9999999999999991e-01 +9.1904582043908114e+00 +0.0000000000000000e+00 +8.9999999870601821e-01 +1.1144332724970545e-02 -1.0327175546293290e+00 -5.8845901505095354e-02
9.9999999999999989e-01 +9.1904484004482718e+00 +0.0000000000000000e+00 +9.9999999822498797e-01 +1.1144277532457374e-02 -1.0327200106346652e+00 -5.8846153554303421e-02
1.0999999999999999e+00 +9.1904375645001348e+00 +0.0000000000000000e+00 +1.0999999976374553e+00 +1.1144226112478072e-02 -1.0327225356367147e+00 -5.8846422273483440e-02
1.2000000000000000e+00 +9.1904256965438762e+00 +0.0000000000000000e+00 +1.1999999969327695e+00 +1.1144177981257827e-02 -1.0327251248295737e+00 -5.8846707481523985e-02
1.3000000000000000e+00 +9.1904127965769131e+00 +0.0000000000000000e+00 +1.2999999961002799e+00 +1.1144132655014197e-02 -1.0327277734074094e+00 -5.8847008997280320e-02
1.4000000000000001e+00 +9.1903988645965988e+00 +0.0000000000000000e+00 +1.3999999951293358e+00 +1.1144089649954574e-02 -1.0327304765645893e+00 -5.8847326639579235e-02
1.5000000000000002e+00 +9.1903839006002350e+00 +0.0000000000000000e+00 +1.4999999940092861e+00 +1.1144048482273586e-02 -1.0327332294958114e+00 -5.8847660227224000e-02
1.6000000000000003e+00 +9.1903679045850719e+00 +0.0000000000000000e+00 +1.5999999927294797e+00 +1.1144008668150560e-02 -1.0327360273962354e+00 -5.8848009578999272e-02
1.7000000000000004e+00 +9.1903508765483153e+00 +0.0000000000000000e+00 +1.6999999912792656e+00 +1.1143969723746946e-02 -1.0327388654616132e+00 -5.8848374513676097e-02
1.8000000000000005e+00 +9.1903328164871319e+00 +0.0000000000000000e+00 +1.7999999896479928e+00 +1.1143931165203730e-02 -1.0327417388884181e+00 -5.8848754850016713e-02
1.9000000000000006e+00 +9.1903137243986528e+00 +0.0000000000000000e+00 +1.8999999878250098e+00 +1.1143892508638897e-02 -1.0327446428739770e+00 -5.8849150406779550e-02
2.0000000000000004e+00 +9.1902936002799791e+00 +0.0000000000000000e+00 +1.9999999857996653e+00 +1.1143853270144855e-02 -1.0327475726165991e+00 -5.8849561002724135e-02
2.1000000000000005e+00 +9.1902724441281833e+00 +0.0000000000000000e+00 +2.0999999835613079e+00 +1.1143812965785852e-02 -1.0327505233157073e+00 -5.8849986456615995e-02
2.2000000000000006e+00 +9.1902502559403221e+00 +0.0000000000000000e+00 +2.1999999810992859e+00 +1.1143771111595431e-02 -1.0327534901719688e+00 -5.8850426587231608e-02
2.3000000000000007e+00 +9.1902270357134324e+00 +0.0000000000000000e+00 +2.2999999784029472e+00 +1.1143727223573850e-02 -1.0327564683874246e+00 -5.8850881213363293e-02
2.4000000000000008e+00 +9.1902027834445406e+00 +0.0000000000000000e+00 +2.3999999754616406e+00 +1.1143680817685530e-02 -1.0327594531656221e+00 -5.8851350153824263e-02
2.5000000000000009e+00 +9.1901774991306660e+00 +0.0000000000000000e+00 +2.4999999722647139e+00 +1.1143631409856464e-02 -1.0327624397117412e+00 -5.8851833227453257e-02
2.6000000000000010e+00 +9.1901511827688296e+00 +0.0000000000000000e+00 +2.5999999688015154e+00 +1.1143578638546125e-02 -1.0327654240395230e+00 -5.8852330220363694e-02
2.7000000000000011e+00 +9.1901238343560490e+00 +0.0000000000000000e+00 +2.6999999650613931e+00 +1.1143522632484710e-02 -1.0327684053913557e+00 -5.8852840787681264e-02
2.8000000000000012e+00 +9.1900954538893505e+00 +0.0000000000000000e+00 +2.7999999610336945e+00 +1.1143463642977200e-02 -1.0327713838172443e+00 -5.8853364551819734e-02
2.9000000000000012e+00 +9.1900660413657587e+00 +0.0000000000000000e+00 +2.8999999567077679e+00 +1.1143401921334463e-02 -1.0327743593679264e+00 -5.8853901135242657e-02
3.0000000000000013e+00 +9.1900355967823053e+00 +0.0000000000000000e+00 +2.9999999520729608e+00 +1.1143337718875265e-02 -1.0327773320948883e+00 -5.8854450160468717e-02
3.1000000000000014e+00 +9.1900041201360221e+00 +0.0000000000000000e+00 +3.0999999471186204e+00 +1.1143271286928212e-02 -1.0327803020503727e+00 -5.8855011250076902e-02
3.2000000000000015e+00 +9.1899716114239443e+00 +0.0000000000000000e+00 +3.1999999418340948e+00 +1.1143202876833768e-02 -1.0327832692873933e+00 -5.8855584026711955e-02
3.3000000000000016e+00 +9.1899380706431089e+00 +0.0000000000000000e+00 +3.2999999362087307e+00 +1.1143132739946221e-02 -1.0327862338597456e+00 -5.8856168113089552e-02
3.4000000000000017e+00 +9.1899034977905583e+00 +0.0000000000000000e+00 +3.3999999302318762e+00 +1.1143061127635676e-02 -1.0327891958220183e+00 -5.8856763132001645e-02
3.5000000000000018e+00 +9.1898678928633366e+00 +0.0000000000000000e+00 +3.4999999238928781e+00 +1.1142988291290028e-02 -1.0327921552296067e+00 -5.8857368706321744e-02
3.6000000000000019e+00 +9.1898312558584898e+00 +0.0000000000000000e+00 +3.5999999171810835e+00 +1.1142914482316956e-02 -1.0327951121387222e+00 -5.8857984459010207e-02
3.7000000000000020e+00 +9.1897935867730673e+00 +0.0000000000000000e+00 +3.6999999100858396e+00 +1.1142839952145898e-02 -1.0327980666064069e+00 -5.8858610013119567e-02
3.8000000000000020e+00 +9.1897548856041205e+00 +0.0000000000000000e+00 +3.7999999025964932e+00 +1.1142764952230039e-02 -1.0328010186905423e+00 -5.8859244991799779e-02
3.9000000000000021e+00 +9.1897151523487022e+00 +0.0000000000000000e+00 +3.8999998947023911e+00 +1.1142689734048302e-02 -1.0328039684498627e+00 -5.8859889018303559e-02
4.0000000000000018e+00 +9.1896743870038708e+00 +0.0000000000000000e+00 +3.9999998863928803e+00 +1.1142614549107329e-02 -1.0328069159439681e+00 -5.8860541715991720e-02
4.1000000000000014e+00 +9.1896325895666848e+00 +0.0000000000000000e+00 +4.0999998776573072e+00 +1.1142539648943456e-02 -1.0328098612333330e+00 -5.8861202708338299e-02
4.2000000000000011e+00 +9.1895897600342042e+00 +0.0000000000000000e+00 +4.1999998684850191e+00 +1.1142465285124699e-02 -1.0328128043793203e+00 -5.8861871618936093e-02
4.3000000000000007e+00 +9.1895458984034928e+00 +0.0000000000000000e+00 +4.2999998588653616e+00 +1.1142391709252771e-02 -1.0328157454441922e+00 -5.8862548071501805e-02
4.4000000000000004e+00 +9.1895010046716177e+00 +0.0000000000000000e+00 +4.3999998487876812e+00 +1.1142319172965027e-02 -1.0328186844911229e+00 -5.8863231689881362e-02
4.5000000000000000e+00 +9.1894550788356444e+00 +0.0000000000000000e+00 +4.4999998382413251e+00 +1.1142247927936475e-02 -1.0328216215842074e+00 -5.8863922098055292e-02
4.5999999999999996e+00 +9.1894081208926437e+00 +0.0000000000000000e+00 +4.5999998272156386e+00 +1.1142178182558880e-02 -1.0328245567540006e+00 -5.8864618995039128e-02
4.6999999999999993e+00 +9.1893601308396882e+00 +0.0000000000000000e+00 +4.6999998156999681e+00 +1.1142109971967332e-02 -1.0328274898934928e+00 -5.8865322379502247e-02
4.7999999999999989e+00 +9.1893111086738521e+00 +0.0000000000000000e+00 +4.7999998036836597e+00 +1.1142043288000425e-02 -1.0328304208604617e+00 -5.8866032324952876e-02
4.8999999999999986e+00 +9.1892610543922100e+00 +0.0000000000000000e+00 +4.8999997911560600e+00 +1.1141978122523105e-02 -1.0328333495117170e+00 -5.8866748904817953e-02
4.9999999999999982e+00 +9.1892099679918413e+00 +0.0000000000000000e+00 +4.9999997781065142e+00 +1.1141914467427724e-02 -1.0328362757030163e+00 -5.8867472192436383e-02
5.0999999999999979e+00 +9.1891578494698276e+00 +0.0000000000000000e+00 +5.0999997645243678e+00 +1.1141852314635022e-02 -1.0328391992889789e+00 -5.8868202261052688e-02
5.1999999999999975e+00 +9.1891046988232539e+00 +0.0000000000000000e+00 +5.1999997503989670e+00 +1.1141791656095173e-02 -1.0328421201230018e+00 -5.8868939183810344e-02
5.2999999999999972e+00 +9.1890505160492051e+00 +0.0000000000000000e+00 +5.2999997357196573e+00 +1.1141732483788786e-02 -1.0328450380571750e+00 -5.8869683033745145e-02
5.3999999999999968e+00 +9.1889953011447734e+00 +0.0000000000000000e+00 +5.3999997204757841e+00 +1.1141674789727943e-02 -1.0328479529421948e+00 -5.8870433883778876e-02
5.4999999999999964e+00 +9.1889390541070508e+00 +0.0000000000000000e+00 +5.4999997046566929e+00 +1.1141618565957186e-02 -1.0328508646272807e+00 -5.8871191806712506e-02
5.5999999999999961e+00 +9.1888817749331331e+00 +0.0000000000000000e+00 +5.5999996882517289e+00 +1.1141563804554562e-02 -1.0328537729600900e+00 -5.8871956875219823e-02
5.6999999999999957e+00 +9.1888234636201194e+00 +0.0000000000000000e+00 +5.6999996712502377e+00 +1.1141510497632632e-02 -1.0328566777866317e+00 -5.8872729161840755e-02
5.7999999999999954e+00 +9.1887641201651142e+00 +0.0000000000000000e+00 +5.7999996536415637e+00 +1.1141458637339471e-02 -1.0328595789511830e+00 -5.8873508738974921e-02
5.8999999999999950e+00 +9.1887037445652240e+00 +0.0000000000000000e+00 +5.8999996354150532e+00 +1.1141408215859698e-02 -1.0328624762962038e+00 -5.8874295678874949e-02
5.9999999999999947e+00 +9.1886423368175603e+00 +0.0000000000000000e+00 +5.9999996165600500e+00 +1.1141359225415495e-02 -1.0328653696622494e+00 -5.8875090053640049e-02
6.0999999999999943e+00 +9.1885798969192383e+00 +0.0000000000000000e+00 +6.0999995970658993e+00 +1.1141311658267594e-02 -1.0328682588878919e+00 -5.8875891935209354e-02
6.1999999999999940e+00 +9.1885164248673785e+00 +0.0000000000000000e+00 +6.1999995769219467e+00 +1.1141265506716336e-02 -1.0328711438096281e+00 -5.8876701395355495e-02
6.2999999999999936e+00 +9.1884519206591033e+00 +0.0000000000000000e+00 +6.2999995561175366e+00 +1.1141220763102623e-02 -1.0328740242617982e+00 -5.8877518505677864e-02
6.3999999999999932e+00 +9.1883863842915421e+00 +0.0000000000000000e+00 +6.3999995346420127e+00 +1.1141177419808993e-02 -1.0328769000765019e+00 -5.8878343337596270e-02
6.4999999999999929e+00 +9.1883198157618278e+00 +0.0000000000000000e+00 +6.4999995124847203e+00 +1.1141135469260578e-02 -1.0328797710835109e+00 -5.8879175962344203e-02
6.5999999999999925e+00 +9.1882522150670987e+00 +0.0000000000000000e+00 +6.5999994896350040e+00 +1.1141094869834962e-02 -1.0328826360947385e+00 -5.8880016476441727e-02
6.6999999999999922e+00 +9.1881835822044984e+00 +0.0000000000000000e+00 +6.6999994660822084e+00 +1.1141055443543135e-02 -1.0328854898584756e+00 -5.8880865078225708e-02
6.7999999999999918e+00 +9.1881139171711830e+00 +0.0000000000000000e+00 +6.7999994418156771e+00 +1.1141016978224940e-02 -1.0328883261069643e+00 -5.8881721991579761e-02
6.8999999999999915e+00 +9.1880432199643263e+00 +0.0000000000000000e+00 +6.8999994168247545e+00 +1.1140979261626443e-02 -1.0328911385720472e+00 -5.8882587440482304e-02
6.9999999999999911e+00 +9.1879714905811269e+00 +0.0000000000000000e+00 +6.9999993910987852e+00 +1.1140942081395887e-02 -1.0328939209851626e+00 -5.8883461649010968e-02
7.0999999999999908e+00 +9.1878987290188121e+00 +0.0000000000000000e+00 +7.0999993646271129e+00 +1.1140905225079732e-02 -1.0328966670773392e+00 -5.8884344841346914e-02
7.1999999999999904e+00 +9.1878249352746462e+00 +0.0000000000000000e+00 +7.1999993373990820e+00 +1.1140868480118679e-02 -1.0328993705791956e+00 -5.8885237241779347e-02
7.2999999999999901e+00 +9.1877501093459344e+00 +0.0000000000000000e+00 +7.2999993094040363e+00 +1.1140831633843645e-02 -1.0329020252209318e+00 -5.8886139074709756e-02
7.3999999999999897e+00 +9.1876742512300336e+00 +0.0000000000000000e+00 +7.3999992806313193e+00 +1.1140794473471813e-02 -1.0329046247323288e+00 -5.8887050564656394e-02
7.4999999999999893e+00 +9.1875973609243555e+00 +0.0000000000000000e+00 +7.4999992510702755e+00 +1.1140756786102629e-02 -1.0329071628427424e+00 -5.8887971936258526e-02
7.5999999999999890e+00 +9.1875194384263708e+00 +0.0000000000000000e+00 +7.5999992207102487e+00 +1.1140718358713822e-02 -1.0329096332811012e+00 -5.8888903414280970e-02
7.6999999999999886e+00 +9.1874404837336208e+00 +0.0000000000000000e+00 +7.6999991895405824e+00 +1.1140678978157414e-02 -1.0329120297758996e+00 -5.8889845223618273e-02
7.7999999999999883e+00 +9.1873604968437199e+00 +0.0000000000000000e+00 +7.7999991575506202e+00 +1.1140638431155758e-02 -1.0329143460551975e+00 -5.8890797589299208e-02
7.8999999999999879e+00 +9.1872794777543607e+00 +0.0000000000000000e+00 +7.8999991247297068e+00 +1.1140596504297528e-02 -1.0329165758466126e+00 -5.8891760736491092e-02
7.9999999999999876e+00 +9.1871974264633245e+00 +0.0000000000000000e+00 +7.9999990910671857e+00 +1.1140552984033767e-02 -1.0329187128773196e+00 -5.8892734890504082e-02
8.0999999999999872e+00 +9.1871143429684867e+00 +0.0000000000000000e+00 +8.0999990565524005e+00 +1.1140507656673890e-02 -1.0329207508740450e+00 -5.8893720276795652e-02
8.1999999999999869e+00 +9.1870302272678188e+00 +0.0000000000000000e+00 +8.1999990211746940e+00 +1.1140460308381719e-02 -1.0329226835630614e+00 -5.8894717120974827e-02
8.2999999999999865e+00 +9.1869450793593987e+00 +0.0000000000000000e+00 +8.2999989849234126e+00 +1.1140410725171497e-02 -1.0329245046701863e+00 -5.8895725648806532e-02
8.3999999999999861e+00 +9.1868588992414164e+00 +0.0000000000000000e+00 +8.3999989477878980e+00 +1.1140358692903914e-02 -1.0329262079207773e+00 -5.8896746086216013e-02
8.4999999999999858e+00 +9.1867716869121807e+00 +0.0000000000000000e+00 +8.4999989097574957e+00 +1.1140303997282145e-02 -1.0329277870397269e+00 -5.8897778659293097e-02
8.5999999999999854e+00 +9.1866834423701214e+00 +0.0000000000000000e+00 +8.5999988708215476e+00 +1.1140246519003087e-02 -1.0329292384916902e+00 -5.8898823465077799e-02
8.6999999999999851e+00 +9.1865941656137977e+00 +0.0000000000000000e+00 +8.6999988309693990e+00 +1.1140186519326613e-02 -1.0329305697028039e+00 -5.8899880083739545e-02
8.7999999999999847e+00 +9.1865038566418882e+00 +0.0000000000000000e+00 +8.7999987901903953e+00 +1.1140124354769758e-02 -1.0329317908410143e+00 -5.8900947965974497e-02
8.8999999999999844e+00 +9.1864125154531813e+00 +0.0000000000000000e+00 +8.8999987484738785e+00 +1.1140060381972889e-02 -1.0329329120758859e+00 -5.8902026562186648e-02
8.9999999999999840e+00 +9.1863201420465650e+00 +0.0000000000000000e+00 +8.9999987058091939e+00 +1.1139994957703923e-02 -1.0329339435786564e+00 -5.8903115322479091e-02
9.0999999999999837e+00 +9.1862267364210179e+00 +0.0000000000000000e+00 +9.0999986621856852e+00 +1.1139928438862585e-02 -1.0329348955222910e+00 -5.8904213696645252e-02
9.1999999999999833e+00 +9.1861322985755969e+00 +0.0000000000000000e+00 +9.1999986175926978e+00 +1.1139861182484639e-02 -1.0329357780815338e+00 -5.8905321134160138e-02
9.2999999999999829e+00 +9.1860368285094314e+00 +0.0000000000000000e+00 +9.2999985720195752e+00 +1.1139793545746124e-02 -1.0329366014329657e+00 -5.8906437084171481e-02
9.3999999999999826e+00 +9.1859403262217061e+00 +0.0000000000000000e+00 +9.3999985254556631e+00 +1.1139725885967568e-02 -1.0329373757550540e+00 -5.8907560995491132e-02
9.4999999999999822e+00 +9.1858427917116572e+00 +0.0000000000000000e+00 +9.4999984778903048e+00 +1.1139658560618271e-02 -1.0329381112282108e+00 -5.8908692316586221e-02
9.5999999999999819e+00 +9.1857442249785581e+00 +0.0000000000000000e+00 +9.5999984293128442e+00 +1.1139591927320494e-02 -1.0329388180348429e+00 -5.8909830495570373e-02
9.6999999999999815e+00 +9.1856446260217144e+00 +0.0000000000000000e+00 +9.6999983797126266e+00 +1.1139526343853699e-02 -1.0329395063594082e+00 -5.8910974980195062e-02
9.7999999999999812e+00 +9.1855439948404456e+00 +0.0000000000000000e+00 +9.7999983290789974e+00 +1.1139462168158802e-02 -1.0329401863884689e+00 -5.8912125217840693e-02
9.8999999999999808e+00 +9.1854423314340838e+00 +0.0000000000000000e+00 +9.8999982774012985e+00 +1.1139399758342376e-02 -1.0329408683107428e+00 -5.8913280655508077e-02
9.9999999999999805e+00 +9.1853396358019577e+00 +0.0000000000000000e+00 +9.9999982246688770e+00 +1.1139339472680887e-02 -1.0329415623171641e+00 -5.8914440739809441e-02
1.0099999999999980e+01 +9.1852359079433832e+00 +0.0000000000000000e+00 +1.0099998170871075e+01 +1.1139281669624935e-02 -1.0329422786009268e+00 -5.8915604916959893e-02
1.0199999999999980e+01 +9.1851311478576534e+00 +0.0000000000000000e+00 +1.0199998115997237e+01 +1.1139226707803448e-02 -1.0329430273575479e+00 -5.8916772632768545e-02
1.0299999999999979e+01 +9.1850253555440329e+00 +0.0000000000000000e+00 +1.0299998060036710e+01 +1.1139174946027942e-02 -1.0329438187849165e+00 -5.8917943332629820e-02
1.0399999999999979e+01 +9.1849185310017400e+00 +0.0000000000000000e+00 +1.0399998002978835e+01 +1.1139126743296708e-02 -1.0329446630833465e+00 -5.8919116461514758e-02
1.0499999999999979e+01 +9.1848106742299418e+00 +0.0000000000000000e+00 +1.0499997944812957e+01 +1.1139082458799066e-02 -1.0329455704556341e+00 -5.8920291463962146e-02
1.0599999999999978e+01 +9.1847017852277411e+00 +0.0000000000000000e+00 +1.0599997885528422e+01 +1.1139042313385245e-02 -1.0329465484421185e+00 -5.8921467749946159e-02
1.0699999999999978e+01 +9.1845918639941733e+00 +0.0000000000000000e+00 +1.0699997825114572e+01 +1.1139005973831641e-02 -1.0329475939234525e+00 -5.8922644592733900e-02
1.0799999999999978e+01 +9.1844809105282064e+00 +0.0000000000000000e+00 +1.0799997763560752e+01 +1.1138972968283601e-02 -1.0329487011130065e+00 -5.8923821231690550e-02
1.0899999999999977e+01 +9.1843689248287461e+00 +0.0000000000000000e+00 +1.0899997700856304e+01 +1.1138942824778795e-02 -1.0329498642217116e+00 -5.8924996906476526e-02
1.0999999999999977e+01 +9.1842559068946414e+00 +0.0000000000000000e+00 +1.0999997636990573e+01 +1.1138915071244307e-02 -1.0329510774580004e+00 -5.8926170857056134e-02
1.1099999999999977e+01 +9.1841418567246933e+00 +0.0000000000000000e+00 +1.1099997571952901e+01 +1.1138889235493736e-02 -1.0329523350277436e+00 -5.8927342323706153e-02
1.1199999999999976e+01 +9.1840267743176582e+00 +0.0000000000000000e+00 +1.1199997505732632e+01 +1.1138864845224300e-02 -1.0329536311341885e+00 -5.8928510547024457e-02
1.1299999999999976e+01 +9.1839106596722537e+00 +0.0000000000000000e+00 +1.1299997438319112e+01 +1.1138841428013902e-02 -1.0329549599778953e+00 -5.8929674767938617e-02
1.1399999999999975e+01 +9.1837935127871635e+00 +0.0000000000000000e+00 +1.1399997369701682e+01 +1.1138818511318264e-02 -1.0329563157566759e+00 -5.8930834227714460e-02
1.1499999999999975e+01 +9.1836753336610464e+00 +0.0000000000000000e+00 +1.1499997299869683e+01 +1.1138795622467999e-02 -1.0329576926655324e+00 -5.8931988167964772e-02
1.1599999999999975e+01 +9.1835561222925399e+00 +0.0000000000000000e+00 +1.1599997228812462e+01 +1.1138772288665739e-02 -1.0329590848965919e+00 -5.8933135830657853e-02
1.1699999999999974e+01 +9.1834358786802657e+00 +0.0000000000000000e+00 +1.1699997156519361e+01 +1.1138748036983209e-02 -1.0329604866390480e+00 -5.8934276458126121e-02
1.1799999999999974e+01 +9.1833146028228363e+00 +0.0000000000000000e+00 +1.1799997082979722e+01 +1.1138722394358347e-02 -1.0329618920790962e+00 -5.8935409293074781e-02
