# multipoles
# s[mm] polynom_b[n=0][T/m^n] polynom_b[n=1][T/m^n] polynom_b[n=2][T/m^n] polynom_b[n=3][T/m^n] polynom_b[n=4][T/m^n] polynom_b[n=5][T/m^n] polynom_b[n=6][T/m^n] 
+0.0000000000000000e+00 -1.0309106504856638e+00 +2.2727271963918421e+00 +1.7539015760564087e+01 +7.8092105265383088e+02 +4.1712205759098615e+04 -4.4478825742810257e+06 -1.3381517710627480e+08 
+1.0000000000000001e-01 -1.0309106965985866e+00 +2.2729280692336151e+00 +1.7578458317288838e+01 +7.7447382995717464e+02 +4.1261062934778878e+04 -4.4029052258159574e+06 -1.3216099950030197e+08 
+2.0000000000000001e-01 -1.0309107631443748e+00 +2.2731080497603635e+00 +1.7616842996499525e+01 +7.6837209182481217e+02 +4.0842982769336464e+04 -4.3594850633530952e+06 -1.3071530403026253e+08 
+2.9999999999999999e-01 -1.0309108583731830e+00 +2.2732685293590489e+00 +1.7654762025261185e+01 +7.6256649750970928e+02 +4.0449220978653233e+04 -4.3173626820716439e+06 -1.2944540573043329e+08 
+4.0000000000000002e-01 -1.0309109905349494e+00 +2.2734108993744790e+00 +1.7692807608539415e+01 +7.5700770745842613e+02 +4.0071033712016433e+04 -4.2762786833271552e+06 -1.2831862186036406e+08 
+5.0000000000000000e-01 -1.0309111678794651e+00 +2.2735365511002263e+00 +1.7731571939106985e+01 +7.5164638360076708e+02 +3.9699677386162359e+04 -4.2359736762835355e+06 -1.2730227121065277e+08 
+5.9999999999999998e-01 -1.0309113966818038e+00 +2.2736469851374821e+00 +1.7771521864874391e+01 +7.4643326369993360e+02 +3.9328278271509618e+04 -4.1961878701826110e+06 -1.2637051613722774e+08 
+6.9999999999999996e-01 -1.0309116753425973e+00 +2.2737441384298078e+00 +1.7812625619074467e+01 +7.4131948035936489e+02 +3.8957371696461560e+04 -4.1566613028894160e+06 -1.2552454819986288e+08 
+8.0000000000000004e-01 -1.0309120002997609e+00 +2.2738300566893708e+00 +1.7854727452834972e+01 +7.3625629071507922e+02 +3.8589328087655405e+04 -4.1171343403861728e+06 -1.2477223210819888e+08 
+9.0000000000000002e-01 -1.0309123679911505e+00 +2.2739067856007988e+00 +1.7897671613673641e+01 +7.3119495250172679e+02 +3.8226517991063418e+04 -4.0773473506628531e+06 -1.2412143343915442e+08 
+1.0000000000000000e+00 -1.0309127748546203e+00 +2.2739763708371155e+00 +1.7941302349074817e+01 +7.2608672354235341e+02 +3.7871312017538083e+04 -4.0370407006397746e+06 -1.2358001842129642e+08 
+1.1000000000000001e+00 -1.0309132173280675e+00 +2.2740408580564284e+00 +1.7985463915698826e+01 +7.2088286181144019e+02 +3.7526080656965656e+04 -3.9959547563764583e+06 -1.2315585301326261e+08 
+1.2000000000000000e+00 -1.0309136918494475e+00 +2.2741022929110253e+00 +1.8030000577824971e+01 +7.1553462510910481e+02 +3.7193194325633704e+04 -3.9538298810091456e+06 -1.2285680318834959e+08 
+1.3000000000000000e+00 -1.0309141948567766e+00 +2.2741627210577260e+00 +1.8074756609384913e+01 +7.0999327072953986e+02 +3.6875023322944777e+04 -3.9104064326888071e+06 -1.2269073470760743e+08 
+1.3999999999999999e+00 -1.0309147227882156e+00 +2.2742241881669907e+00 +1.8119576302209452e+01 +7.0421005514446722e+02 +3.6573937684696182e+04 -3.8654247625847422e+06 -1.2266551245702149e+08 
+1.5000000000000000e+00 -1.0309152720820733e+00 +2.2742887399165883e+00 +1.8164303965851829e+01 +6.9813623414240908e+02 +3.6292307188123763e+04 -3.8186252155600828e+06 -1.2278900047122803e+08 
+1.6000000000000001e+00 -1.0309158391768325e+00 +2.2743584220159212e+00 +1.8208783931830009e+01 +6.9172306207091765e+02 +3.6032501279321310e+04 -3.7697481255634432e+06 -1.2306906161488780e+08 
+1.7000000000000000e+00 -1.0309164205111931e+00 +2.2744352802009837e+00 +1.8252860557428349e+01 +6.8492179195127903e+02 +3.5796888999164490e+04 -3.7185338162088175e+06 -1.2351355722480793e+08 
+1.8000000000000000e+00 -1.0309170125241263e+00 +2.2745213602416539e+00 +1.8296378231086933e+01 +6.7768367520179015e+02 +3.5587838892679101e+04 -3.6647225989652495e+06 -1.2413034671001472e+08 
+1.8999999999999999e+00 -1.0309176116548384e+00 +2.2746187079568059e+00 +1.8339181369507575e+01 +6.6995996118063124e+02 +3.5407719062598422e+04 -3.6080547704018913e+06 -1.2492728780549192e+08 
+2.0000000000000000e+00 -1.0309182143428930e+00 +2.2747293692116002e+00 +1.8381114430413987e+01 +6.6170189718894608e+02 +3.5258896934881792e+04 -3.5482706119911089e+06 -1.2591223547976229e+08 
+2.1000000000000001e+00 -1.0309188170281254e+00 +2.2748553899319583e+00 +1.8422021902838843e+01 +6.5286072803064383e+02 +3.5143739444984567e+04 -3.4851103874531155e+06 -1.2709304282265964e+08 
+2.2000000000000002e+00 -1.0309194161508330e+00 +2.2749988161065744e+00 +1.8461748329039580e+01 +6.4338769589006006e+02 +3.5064612631226599e+04 -3.4183143418570710e+06 -1.2847755914369670e+08 
+2.2999999999999998e+00 -1.0309200081516452e+00 +2.2751616937909867e+00 +1.8500138287721864e+01 +6.3323404017455550e+02 +3.5023881951996547e+04 -3.3476227005661977e+06 -1.3007363147259445e+08 
+2.3999999999999999e+00 -1.0309205894716562e+00 +2.2753460691239091e+00 +1.8537036412426037e+01 +6.2235099700627302e+02 +3.5023911941309816e+04 -3.2727756661632084e+06 -1.3188910293885498e+08 
+2.5000000000000000e+00 -1.0309211565524223e+00 +2.2755539883278204e+00 +1.8572287387267085e+01 +6.1068979915388559e+02 +3.5067066302161627e+04 -3.1935134179811040e+06 -1.3393181325773513e+08 
+2.6000000000000001e+00 -1.0309217061058700e+00 +2.2757868434662281e+00 +1.8605768185545116e+01 +5.9822267213301245e+02 +3.5154508081663211e+04 -3.1097005160263055e+06 -1.3620287098686320e+08 
+2.7000000000000002e+00 -1.0309222358988526e+00 +2.2760433590815938e+00 +1.8637501705175168e+01 +5.8500834003686714e+02 +3.5282011355762887e+04 -3.0217128482663049e+06 -1.3867291553050217e+08 
+2.7999999999999998e+00 -1.0309227439583857e+00 +2.2763215782831696e+00 +1.8667552042776819e+01 +5.7112786091127873e+02 +3.5443842802476291e+04 -2.9300580882389015e+06 -1.4130401292263219e+08 
+2.8999999999999999e+00 -1.0309232283113896e+00 +2.2766195442254218e+00 +1.8695983273526885e+01 +5.5666229303813691e+02 +3.5634269458477247e+04 -2.8352439180562594e+06 -1.4405823041697136e+08 
+3.0000000000000000e+00 -1.0309236869845937e+00 +2.2769353000996615e+00 +1.8722859442149918e+01 +5.4169269529737596e+02 +3.5847558888835265e+04 -2.7377780312557784e+06 -1.4689763723851764e+08 
+3.1000000000000001e+00 -1.0309241180044837e+00 +2.2772668891415861e+00 +1.8748244552881676e+01 +5.2630012711090103e+02 +3.6077979370293397e+04 -2.6381681333011761e+06 -1.4978430539490488e+08 
+3.2000000000000002e+00 -1.0309245193973300e+00 +2.2776123546356923e+00 +1.8772202572386195e+01 +5.1056564848790367e+02 +3.6319799822472443e+04 -2.5369219426747002e+06 -1.5268030926294416e+08 
+3.2999999999999998e+00 -1.0309248891891429e+00 +2.2779697399074013e+00 +1.8794797425189120e+01 +4.9457032042627191e+02 +3.6567289887614075e+04 -2.4345471940089869e+06 -1.5554772591162425e+08 
+3.3999999999999999e+00 -1.0309252254055890e+00 +2.2783370883285530e+00 +1.8816092981871297e+01 +4.7839520493488527e+02 +3.6814720135840580e+04 -2.3315516390798097e+06 -1.5834863597568896e+08 
+3.5000000000000000e+00 -1.0309255260720367e+00 +2.2787124433203068e+00 +1.8836153063152292e+01 +4.6212136509614089e+02 +3.7056361988588302e+04 -2.2284430479254103e+06 -1.6104512325502199e+08 
+3.6000000000000001e+00 -1.0309257892134340e+00 +2.2790938483529564e+00 +1.8855041425218349e+01 +4.4582986525520641e+02 +3.7286487984651809e+04 -2.1257292107672682e+06 -1.6359927589768180e+08 
+3.7000000000000002e+00 -1.0309260128544189e+00 +2.2794793469440511e+00 +1.8872821773666484e+01 +4.2960177125988758e+02 +3.7499371492268314e+04 -2.0239179402965982e+06 -1.6597318492733592e+08 
+3.7999999999999998e+00 -1.0309261950191388e+00 +2.2798669826626985e+00 +1.8889557737626617e+01 +4.1351815048057489e+02 +3.7689287206188252e+04 -1.9235170725213485e+06 -1.6812894657359922e+08 
+3.8999999999999999e+00 -1.0309263337312904e+00 +2.2802547991274422e+00 +1.8905312877868710e+01 +3.9766007206366396e+02 +3.7850510976132573e+04 -1.8250344690935034e+06 -1.7002866136854520e+08 
+4.0000000000000000e+00 -1.0309264270140843e+00 +2.2806408400139455e+00 +1.8920150677404024e+01 +3.8210860686548841e+02 +3.7977319971610545e+04 -1.7289780177529624e+06 -1.7163443484604320e+08 
+4.0999999999999996e+00 -1.0309264728902492e+00 +2.2810231490468378e+00 +1.8934134546416583e+01 +3.6694482787856134e+02 +3.8063992586688430e+04 -1.6358556356081218e+06 -1.7290837704213405e+08 
+4.2000000000000002e+00 -1.0309264693819209e+00 +2.2813997700050668e+00 +1.8947327803428596e+01 +3.5224981022081533e+02 +3.8104808774561563e+04 -1.5461752698745062e+06 -1.7381260397721028e+08 
+4.2999999999999998e+00 -1.0309264145106436e+00 +2.2817687467262640e+00 +1.8959793677232042e+01 +3.3810463120269901e+02 +3.8094050017060406e+04 -1.4604448991049973e+06 -1.7430923748625681e+08 
+4.4000000000000004e+00 -1.0309263062974114e+00 +2.2821281231054527e+00 +1.8971595310503531e+01 +3.2459037052154684e+02 +3.8025999230523979e+04 -1.3791725351257711e+06 -1.7436040465438724e+08 
+4.5000000000000000e+00 -1.0309261427625345e+00 +2.2824759430877464e+00 +1.8982795744492488e+01 +3.1178811059272215e+02 +3.7894941045760628e+04 -1.3028662252357104e+06 -1.7392823903905255e+08 
+4.5999999999999996e+00 -1.0309259234665207e+00 +2.2828105908574501e+00 +1.8993509818728324e+01 +2.9975894706986901e+02 +3.7695910761885265e+04 -1.2318972602798450e+06 -1.7298267250084892e+08 
+4.7000000000000002e+00 -1.0309256541370275e+00 +2.2831320273193052e+00 +1.9004039988360578e+01 +2.8847335388037044e+02 +3.7428119523687332e+04 -1.1660223056788715e+06 -1.7153285912969896e+08 
+4.7999999999999998e+00 -1.0309253420378508e+00 +2.2834406692155036e+00 +1.9014728919372264e+01 +2.7787608739763874e+02 +3.7092174919893114e+04 -1.1048248088770011e+06 -1.6960011256852174e+08 
+4.9000000000000004e+00 -1.0309249944329766e+00 +2.2837369331458506e+00 +1.9025919322102446e+01 +2.6791190525866250e+02 +3.6688683782309905e+04 -1.0478882127605666e+06 -1.6720574375059408e+08 
+5.0000000000000000e+00 -1.0309246185864884e+00 +2.2840212355086100e+00 +1.9037953949600375e+01 +2.5852556870482755e+02 +3.6218252088012858e+04 -9.9479596992577950e+05 -1.6437106010215536e+08 
+5.0999999999999996e+00 -1.0309242217626899e+00 +2.2842939924874535e+00 +1.9051175613764475e+01 +2.4966184277329543e+02 +3.5681484643874886e+04 -9.4513154292083881e+05 -1.6111736406757003e+08 
+5.2000000000000002e+00 -1.0309238112260803e+00 +2.2845556200412953e+00 +1.9065927183491688e+01 +2.4126549641769483e+02 +3.5078985122491904e+04 -8.9847840407756984e+05 -1.5746595332990369e+08 
+5.2999999999999998e+00 -1.0309233942413567e+00 +2.2848065338952104e+00 +1.9082551588005828e+01 +2.3328130258181170e+02 +3.4411356004292735e+04 -8.5442003501330176e+05 -1.5343812060175624e+08 
+5.4000000000000004e+00 -1.0309229780734375e+00 +2.2850471495252656e+00 +1.9101391819816744e+01 +2.2565403847736027e+02 +3.3679198519110607e+04 -8.1253992743651255e+05 -1.4905515339107513e+08 
+5.5000000000000000e+00 -1.0309225699874844e+00 +2.2852778821455653e+00 +1.9122790942358179e+01 +2.1832848577809654e+02 +3.2883112492805230e+04 -7.7242158336237143e+05 -1.4433833329579437e+08 
+5.5999999999999996e+00 -1.0309221772489507e+00 +2.2854991467055052e+00 +1.9147092093427730e+01 +2.1124943050760973e+02 +3.2023696289558458e+04 -7.3364851358315756e+05 -1.3930893580175173e+08 
+5.7000000000000002e+00 -1.0309218071235116e+00 +2.2857113578652939e+00 +1.9174638482048440e+01 +2.0436166358789910e+02 +3.1101546871818919e+04 -6.9580423998307798e+05 -1.3398823061848703e+08 
+5.7999999999999998e+00 -1.0309214668771534e+00 +2.2859149299943100e+00 +1.9205773399502846e+01 +1.9760998070376303e+02 +3.0117259581451101e+04 -6.5847229389340279e+05 -1.2839748066110253e+08 
+5.9000000000000004e+00 -1.0309211637761724e+00 +2.2861102771541137e+00 +1.9240840221951025e+01 +1.9093918261503637e+02 +2.9071428100117078e+04 -6.2123621699645463e+05 -1.2255794194091734e+08 
+6.0000000000000000e+00 -1.0309209050871595e+00 +2.2862978130931237e+00 +1.9280182410458270e+01 +1.8429407513478674e+02 +2.7964644438537176e+04 -5.8367956034418766e+05 -1.1649086353234482e+08 
+6.0999999999999996e+00 -1.0309206980770440e+00 +2.2864779512230182e+00 +1.9324143515241207e+01 +1.7761946963550980e+02 +2.6797498862224555e+04 -5.4538588643988234e+05 -1.1021748729092909e+08 
+6.2000000000000002e+00 -1.0309205500131284e+00 +2.2866511046230547e+00 +1.9373067187653479e+01 +1.7086018274908346e+02 +2.5570579659870546e+04 -5.0593876656972908e+05 -1.0375904678771836e+08 
+6.2999999999999998e+00 -1.0309204681630533e+00 +2.2868176860150440e+00 +1.9427297171922039e+01 +1.6396103690635840e+02 +2.4284473301362112e+04 -4.6492178310468892e+05 -9.7136768114176005e+07 
+6.4000000000000004e+00 -1.0309204597948356e+00 +2.2869781077566835e+00 +1.9487177314370072e+01 +1.5686686036205512e+02 +2.2939764259691867e+04 -4.2191852876079245e+05 -9.0371869076425985e+07 
+6.5000000000000000e+00 -1.0309205321768959e+00 +2.2871327818369913e+00 +1.9553051569850627e+01 +1.4952248722776486e+02 +2.1537034891564483e+04 -3.7651260676142649e+05 -8.3485558746714815e+07 
+6.5999999999999996e+00 -1.0309206909542723e+00 +2.2872819435769722e+00 +1.9625167322225217e+01 +1.4188667778374165e+02 +2.0077262308515052e+04 -3.2838619781497295e+05 -7.6497310185860291e+07 
+6.7000000000000002e+00 -1.0309209349103563e+00 +2.2874249423770734e+00 +1.9703349367499840e+01 +1.3398483643995718e+02 +1.8562829183402748e+04 -2.7768761703722045e+05 -6.9416218895039171e+07 
+6.7999999999999998e+00 -1.0309212610190799e+00 +2.2875608540983965e+00 +1.9787308465665078e+01 +1.2586225694862587e+02 +1.6996373448645634e+04 -2.2470310506960304e+05 -6.2247572363235064e+07 
+6.9000000000000004e+00 -1.0309216662536347e+00 +2.2876887547355178e+00 +1.9876755264133145e+01 +1.1756423061514630e+02 +1.5380535111483978e+04 -1.6971888799592719e+05 -5.4996668069695398e+07 
+7.0000000000000000e+00 -1.0309221475863100e+00 +2.2878077204961977e+00 +1.9971400272742187e+01 +1.0913604219807432e+02 +1.3717957020948183e+04 -1.1302115026122681e+05 -4.7668817977301970e+07 
+7.0999999999999996e+00 -1.0309227019885761e+00 +2.2879168278205348e+00 +2.0070953871052829e+01 +1.0062296930895366e+02 +1.2011284730637617e+04 -5.4896031044163887e+04 -4.0269347883126207e+07 
+7.2000000000000002e+00 -1.0309233264310009e+00 +2.2880151533764677e+00 +2.0175126295934930e+01 +9.2070282599529321e+01 +1.0263166748404779e+04 +4.3703745125803307e+03 -3.2803598649617679e+07 
+7.2999999999999998e+00 -1.0309240178832220e+00 +2.2881017740872931e+00 +2.0283627640495425e+01 +8.3523244943734724e+01 +8.4762545663763449e+03 +6.4492020211127186e+04 -2.5276926377973631e+07 
+7.4000000000000004e+00 -1.0309247733139619e+00 +2.2881757671344816e+00 +2.0396167848525025e+01 +7.5027111368158344e+01 +6.6532027722447338e+03 +1.2518290911527279e+05 -1.7694702955883950e+07 
+7.5000000000000000e+00 -1.0309255896909217e+00 +2.2882362099669913e+00 +2.0512456704783023e+01 +6.6627128803269116e+01 +4.7966692493070368e+03 +1.8615709503877128e+05 -1.0062317056551769e+07 
+7.5999999999999996e+00 -1.0309264639808309e+00 +2.2882821803093569e+00 +2.0632203837263180e+01 +5.8368535837862595e+01 +2.9093151357817133e+03 +2.4712868401195444e+05 -2.3851739532652143e+06 
+7.7000000000000002e+00 -1.0309273931493375e+00 +2.2883127561881866e+00 +2.0755118704193197e+01 +5.0296561979281499e+01 +9.9380508559278564e+02 +3.0781183854676742e+05 +5.3313031950192517e+06 
+7.7999999999999998e+00 -1.0309283741610764e+00 +2.2883270159229800e+00 +2.0880910600052346e+01 +4.2456427911263212e+01 -9.4719283967228068e+02 +3.6792077619948931e+05 +1.3081673839719048e+07 
+7.9000000000000004e+00 -1.0309294039795502e+00 +2.2883240381512664e+00 +2.1009288637466959e+01 +3.4893344782479417e+01 -2.9110068146826429e+03 +4.2716977366813197e+05 +2.0860478312286101e+07 
+8.0000000000000000e+00 -1.0309304795671395e+00 +2.2883029018304040e+00 +2.1139961750351855e+01 +2.7652514164533979e+01 -4.8949612991549002e+03 +4.8527316707794974e+05 +2.8662238018447727e+07 
+8.0999999999999996e+00 -1.0309315978850824e+00 +2.2882626862539306e+00 +2.1272638688134087e+01 +2.0779127575141480e+01 -6.8963769263541708e+03 +5.4194535476533475e+05 +3.6481454903614610e+07 
+8.1999999999999993e+00 -1.0309327558934018e+00 +2.2882024710626574e+00 +2.1407028006604946e+01 +1.4318366178459348e+01 -8.9125703116409295e+03 +5.9690079903472820e+05 +4.4312610488755330e+07 
+8.3000000000000007e+00 -1.0309339505509234e+00 +2.2881213362519111e+00 +2.1542838066288844e+01 +8.3154005628756895e+00 -1.0940854016816336e+04 +6.4985402746543032e+05 +5.2150165682027802e+07 
+8.4000000000000004e+00 -1.0309351788152392e+00 +2.2880183621833123e+00 +2.1679777029350493e+01 +2.8153904423451679e+00 -1.2978536480528228e+04 +7.0051963461607264e+05 +5.9988560418350734e+07 
+8.5000000000000000e+00 -1.0309364376426131e+00 +2.2878926295759152e+00 +2.1817552844093505e+01 -2.1365147924923114e+00 -1.5022921661725419e+04 +7.4861227806624060e+05 +6.7822211752141386e+07 
+8.5999999999999996e+00 -1.0309377230295154e+00 +2.2877438835398944e+00 +2.1955796097037080e+01 -6.5082503411132011e+00 -1.7070080392143398e+04 +7.9390420551723684e+05 +7.5640538384326592e+07 
+8.6999999999999993e+00 -1.0309390275518386e+00 +2.2875745687793478e+00 +2.2093816765063750e+01 -1.0320207861497162e+01 -1.9110973150474234e+04 +8.3639138346710603e+05 +8.3412935778784066e+07 
+8.8000000000000007e+00 -1.0309403430205915e+00 +2.2873878193782553e+00 +2.2230839430930381e+01 -1.3605883154826513e+01 -2.1135194585463316e+04 +8.7612305927333003e+05 +9.1103624747843862e+07 
+8.9000000000000004e+00 -1.0309416612480187e+00 +2.2871867699210577e+00 +2.2366088738154339e+01 -1.6398783462067122e+01 -2.3132340287613293e+04 +9.1314852549963852e+05 +9.8676832220271364e+07 
+9.0000000000000000e+00 -1.0309429740476250e+00 +2.2869745554999752e+00 +2.2498789396316024e+01 -1.8732428640914875e+01 -2.5092006795019894e+04 +9.4751713334511546e+05 +1.0609679058917817e+08 
+9.0999999999999996e+00 -1.0309442732341734e+00 +2.2867543117321025e+00 +2.2628166176146635e+01 -2.0640351607174093e+01 -2.7003791501996602e+04 +9.7927829472209315e+05 +1.1332773734289613e+08 
+9.1999999999999993e+00 -1.0309455506237923e+00 +2.2865291747685075e+00 +2.2753443921568309e+01 -2.2156098502188424e+01 -2.8857292875182138e+04 +1.0084814826792093e+06 +1.2033391611110315e+08 
+9.3000000000000007e+00 -1.0309467980339788e+00 +2.2863022813039944e+00 +2.2873847548385321e+01 -2.3313228914687929e+01 -3.0642110423760638e+04 +1.0351762322422590e+06 +1.2707957656803730e+08 
+9.4000000000000004e+00 -1.0309480072836161e+00 +2.2860767685982069e+00 +2.2988602042938520e+01 -2.4145316420788916e+01 -3.2347844667006066e+04 +1.0594121430313184e+06 +1.3352897431553894e+08 
+9.5000000000000000e+00 -1.0309491701930982e+00 +2.2858557744819077e+00 +2.3096932476049950e+01 -2.4685948690743896e+01 -3.3964097397633210e+04 +1.0812388793833174e+06 +1.3964637218914405e+08 
+9.5999999999999996e+00 -1.0309502785843023e+00 +2.2856424373709925e+00 +2.3198063996120542e+01 -2.4968727837363929e+01 -3.5480471534792719e+04 +1.1007061719178017e+06 +1.4539603956832585e+08 
+9.6999999999999993e+00 -1.0309513242806596e+00 +2.2854398962847227e+00 +2.3291221836546274e+01 -2.5027270851083987e+01 -3.6886571269033680e+04 +1.1178638194998400e+06 +1.5074225313533726e+08 
+9.8000000000000007e+00 -1.0309522991071494e+00 +2.2852512908504545e+00 +2.3375631313530409e+01 -2.4895209671933980e+01 -3.8172002006678391e+04 +1.1327616892105737e+06 +1.5564929663153628e+08 
+9.9000000000000004e+00 -1.0309531948904493e+00 +2.2850797613201008e+00 +2.3450517837699227e+01 -2.4606191623967202e+01 -3.9326370585642129e+04 +1.1454497183883581e+06 +1.6008146192124334e+08 
+1.0000000000000000e+01 -1.0309540034588940e+00 +2.2849284485808647e+00 +2.3515106914029694e+01 -2.4193879597102409e+01 -4.0339285273739573e+04 +1.1559779151064446e+06 +1.6400304904503906e+08 
+1.0100000000000000e+01 -1.0309547166424833e+00 +2.2848004941772104e+00 +2.3568624133163102e+01 -2.3691952672397218e+01 -4.1200355586446189e+04 +1.1643963614133222e+06 +1.6737836535736641e+08 
