# field on trajectory
# s[mm] rx[mm] ry[mm] rz[mm] bx[T] by[T] bz[T]
-0.0000000000000000e+00 +9.1476323485342608e+00 +0.0000000000000000e+00 -0.0000000000000000e+00 +1.1432517207357287e-02 -1.0311010022186544e+00 -5.9655114719707969e-02
-1.0000000000000001e-01 +9.1476318316365202e+00 +0.0000000000000000e+00 -9.9999999998218805e-02 +1.1432511383189107e-02 -1.0311049585661947e+00 -5.9654498406314413e-02
-2.0000000000000001e-01 +9.1476302809427192e+00 +0.0000000000000000e+00 -1.9999999998574999e-01 +1.1432497324955031e-02 -1.0311088450125843e+00 -5.9653861677574208e-02
-2.9999999999999999e-01 +9.1476276964536503e+00 +0.0000000000000000e+00 -2.9999999995190701e-01 +1.1432476410764170e-02 -1.0311126657475951e+00 -5.9653204731407027e-02
-4.0000000000000002e-01 +9.1476240781675404e+00 +0.0000000000000000e+00 -3.9999999988600199e-01 +1.1432450018733137e-02 -1.0311164249607836e+00 -5.9652527765729074e-02
-5.0000000000000000e-01 +9.1476194260861501e+00 +0.0000000000000000e+00 -4.9999999977734699e-01 +1.1432419526982238e-02 -1.0311201268415047e+00 -5.9651830978447853e-02
-5.9999999999999998e-01 +9.1476137402094899e+00 +0.0000000000000000e+00 -5.9999999961525596e-01 +1.1432386313632017e-02 -1.0311237755789455e+00 -5.9651114567457704e-02
-6.9999999999999996e-01 +9.1476070205357907e+00 +0.0000000000000000e+00 -6.9999999938904001e-01 +1.1432351756799634e-02 -1.0311273753621533e+00 -5.9650378730635160e-02
-8.0000000000000004e-01 +9.1475992670650292e+00 +0.0000000000000000e+00 -7.9999999908801400e-01 +1.1432317234595120e-02 -1.0311309303800493e+00 -5.9649623665833519e-02
-9.0000000000000002e-01 +9.1475904798007797e+00 +0.0000000000000000e+00 -8.9999999870148795e-01 +1.1432284125117690e-02 -1.0311344448214490e+00 -5.9648849570878015e-02
-1.0000000000000000e+00 +9.1475806587394892e+00 +0.0000000000000000e+00 -9.9999999821877705e-01 +1.1432253806452491e-02 -1.0311379228751136e+00 -5.9648056643561986e-02
-1.1000000000000001e+00 +9.1475698038829201e+00 +0.0000000000000000e+00 -1.0999999976291901e+00 +1.1432227656666533e-02 -1.0311413687297439e+00 -5.9647245081640814e-02
-1.2000000000000000e+00 +9.1475579152292994e+00 +0.0000000000000000e+00 -1.1999999969220501e+00 +1.1432207053805399e-02 -1.0311447865740266e+00 -5.9646415082827996e-02
-1.3000000000000000e+00 +9.1475449927804107e+00 +0.0000000000000000e+00 -1.2999999960866500e+00 +1.1432193375889342e-02 -1.0311481805966407e+00 -5.9645566844789548e-02
-1.3999999999999999e+00 +9.1475310365362503e+00 +0.0000000000000000e+00 -1.3999999951123201e+00 +1.1432188000909871e-02 -1.0311515549862975e+00 -5.9644700565139798e-02
-1.5000000000000000e+00 +9.1475160464950402e+00 +0.0000000000000000e+00 -1.4999999939883699e+00 +1.1432192306826097e-02 -1.0311549139317622e+00 -5.9643816441436466e-02
-1.6000000000000001e+00 +9.1475000226585603e+00 +0.0000000000000000e+00 -1.5999999927041100e+00 +1.1432207287838093e-02 -1.0311582605090563e+00 -5.9642914543332613e-02
-1.7000000000000000e+00 +9.1474829650268106e+00 +0.0000000000000000e+00 -1.6999999912488499e+00 +1.1432232403228585e-02 -1.0311615933430216e+00 -5.9641994429062040e-02
-1.8000000000000000e+00 +9.1474648735980093e+00 +0.0000000000000000e+00 -1.7999999896119101e+00 +1.1432266728555152e-02 -1.0311649099456763e+00 -5.9641055528996664e-02
-1.8999999999999999e+00 +9.1474457483739400e+00 +0.0000000000000000e+00 -1.8999999877825899e+00 +1.1432309339378954e-02 -1.0311682078290074e+00 -5.9640097273496014e-02
-2.0000000000000000e+00 +9.1474255893528191e+00 +0.0000000000000000e+00 -1.9999999857502100e+00 +1.1432359311267647e-02 -1.0311714845049909e+00 -5.9639119092911135e-02
-2.1000000000000001e+00 +9.1474043965364302e+00 +0.0000000000000000e+00 -2.0999999835040901e+00 +1.1432415719797825e-02 -1.0311747374855744e+00 -5.9638120417586836e-02
-2.2000000000000002e+00 +9.1473821699247697e+00 +0.0000000000000000e+00 -2.1999999810335300e+00 +1.1432477640557956e-02 -1.0311779642826981e+00 -5.9637100677865686e-02
-2.2999999999999998e+00 +9.1473589095160595e+00 +0.0000000000000000e+00 -2.2999999783278602e+00 +1.1432544149151043e-02 -1.0311811624082927e+00 -5.9636059304090994e-02
-2.3999999999999999e+00 +9.1473346153120794e+00 +0.0000000000000000e+00 -2.3999999753763701e+00 +1.1432614321197151e-02 -1.0311843293742726e+00 -5.9634995726609477e-02
-2.5000000000000000e+00 +9.1473092873128206e+00 +0.0000000000000000e+00 -2.4999999721683901e+00 +1.1432687232336317e-02 -1.0311874626925528e+00 -5.9633909375775028e-02
-2.6000000000000001e+00 +9.1472829255165191e+00 +0.0000000000000000e+00 -2.5999999686932198e+00 +1.1432761958231237e-02 -1.0311905598750473e+00 -5.9632799681951842e-02
-2.7000000000000002e+00 +9.1472555299249496e+00 +0.0000000000000000e+00 -2.6999999649401798e+00 +1.1432837574569784e-02 -1.0311936184336632e+00 -5.9631666075517037e-02
-2.7999999999999998e+00 +9.1472271005398795e+00 +0.0000000000000000e+00 -2.7999999608985902e+00 +1.1432913157067846e-02 -1.0311966358803124e+00 -5.9630507986864173e-02
-2.8999999999999999e+00 +9.1471976373559905e+00 +0.0000000000000000e+00 -2.8999999565577501e+00 +1.1432987781472278e-02 -1.0311996097269285e+00 -5.9629324846407261e-02
-3.0000000000000000e+00 +9.1471671403768209e+00 +0.0000000000000000e+00 -2.9999999519069700e+00 +1.1433060523563059e-02 -1.0312025374854352e+00 -5.9628116084582204e-02
-3.1000000000000001e+00 +9.1471356096023904e+00 +0.0000000000000000e+00 -3.0999999469355801e+00 +1.1433130459156424e-02 -1.0312054166677764e+00 -5.9626881131851245e-02
-3.2000000000000002e+00 +9.1471030450308994e+00 +0.0000000000000000e+00 -3.1999999416328699e+00 +1.1433196664107517e-02 -1.0312082447859163e+00 -5.9625619418706019e-02
-3.2999999999999998e+00 +9.1470694466641493e+00 +0.0000000000000000e+00 -3.2999999359881800e+00 +1.1433258214312906e-02 -1.0312110193518293e+00 -5.9624330375670116e-02
-3.3999999999999999e+00 +9.1470348145021205e+00 +0.0000000000000000e+00 -3.3999999299908001e+00 +1.1433314185713507e-02 -1.0312137378775168e+00 -5.9623013433302834e-02
-3.5000000000000000e+00 +9.1469991485430509e+00 +0.0000000000000000e+00 -3.4999999236300501e+00 +1.1433363654297261e-02 -1.0312163978750077e+00 -5.9621668022202437e-02
-3.6000000000000001e+00 +9.1469624487887007e+00 +0.0000000000000000e+00 -3.5999999168952499e+00 +1.1433405917960677e-02 -1.0312189971916230e+00 -5.9620293745870502e-02
-3.7000000000000002e+00 +9.1469247152390807e+00 +0.0000000000000000e+00 -3.6999999097757001e+00 +1.1433441162068078e-02 -1.0312215350158709e+00 -5.9618890899284842e-02
-3.7999999999999998e+00 +9.1468859478924092e+00 +0.0000000000000000e+00 -3.7999999022607200e+00 +1.1433469793834524e-02 -1.0312240108717623e+00 -5.9617459950282586e-02
-3.8999999999999999e+00 +9.1468461467522495e+00 +0.0000000000000000e+00 -3.8999998943396199e+00 +1.1433492220458199e-02 -1.0312264242835523e+00 -5.9616001366691776e-02
-4.0000000000000000e+00 +9.1468053118132708e+00 +0.0000000000000000e+00 -3.9999998860017101e+00 +1.1433508849118940e-02 -1.0312287747757920e+00 -5.9614515616332381e-02
-4.0999999999999996e+00 +9.1467634430807898e+00 +0.0000000000000000e+00 -4.0999998772363098e+00 +1.1433520086975598e-02 -1.0312310618732980e+00 -5.9613003167013498e-02
-4.2000000000000002e+00 +9.1467205405512608e+00 +0.0000000000000000e+00 -4.1999998680327302e+00 +1.1433526341164771e-02 -1.0312332851012167e+00 -5.9611464486535023e-02
-4.2999999999999998e+00 +9.1466766042264602e+00 +0.0000000000000000e+00 -4.2999998583802803e+00 +1.1433528018798347e-02 -1.0312354439850064e+00 -5.9609900042685467e-02
-4.4000000000000004e+00 +9.1466316341046099e+00 +0.0000000000000000e+00 -4.3999998482682798e+00 +1.1433525526961868e-02 -1.0312375380504759e+00 -5.9608310303242339e-02
-4.5000000000000000e+00 +9.1465856301892607e+00 +0.0000000000000000e+00 -4.4999998376860297e+00 +1.1433519272712262e-02 -1.0312395668237815e+00 -5.9606695735970619e-02
-4.5999999999999996e+00 +9.1465385924768707e+00 +0.0000000000000000e+00 -4.5999998266228497e+00 +1.1433509663076291e-02 -1.0312415298314692e+00 -5.9605056808623484e-02
-4.7000000000000002e+00 +9.1464905209674292e+00 +0.0000000000000000e+00 -4.6999998150680504e+00 +1.1433497105048259e-02 -1.0312434266004720e+00 -5.9603393988940677e-02
-4.7999999999999998e+00 +9.1464414156644995e+00 +0.0000000000000000e+00 -4.7999998030109499e+00 +1.1433482005588039e-02 -1.0312452566581221e+00 -5.9601707744647764e-02
-4.9000000000000004e+00 +9.1463912765645095e+00 +0.0000000000000000e+00 -4.8999997904408596e+00 +1.1433464771619469e-02 -1.0312470195321954e+00 -5.9599998543456871e-02
-5.0000000000000000e+00 +9.1463401036692602e+00 +0.0000000000000000e+00 -4.9999997773470897e+00 +1.1433445810027983e-02 -1.0312487147508991e+00 -5.9598266853064644e-02
-5.0999999999999996e+00 +9.1462878969787305e+00 +0.0000000000000000e+00 -5.0999997637189498e+00 +1.1433425527658870e-02 -1.0312503418429035e+00 -5.9596513141152434e-02
-5.2000000000000002e+00 +9.1462346564911599e+00 +0.0000000000000000e+00 -5.1999997495457499e+00 +1.1433404331315322e-02 -1.0312519003373615e+00 -5.9594737875385780e-02
-5.2999999999999998e+00 +9.1461803822083105e+00 +0.0000000000000000e+00 -5.2999997348168204e+00 +1.1433382627756290e-02 -1.0312533897639105e+00 -5.9592941523413198e-02
-5.4000000000000004e+00 +9.1461250741284204e+00 +0.0000000000000000e+00 -5.3999997195214604e+00 +1.1433360823694753e-02 -1.0312548096527079e+00 -5.9591124552866338e-02
-5.5000000000000000e+00 +9.1460687322550296e+00 +0.0000000000000000e+00 -5.4999997036489701e+00 +1.1433339325795457e-02 -1.0312561595344270e+00 -5.9589287431358412e-02
-5.5999999999999996e+00 +9.1460113565845909e+00 +0.0000000000000000e+00 -5.5999996871886903e+00 +1.1433318460696621e-02 -1.0312574392179212e+00 -5.9587430629138752e-02
-5.7000000000000002e+00 +9.1459529471188894e+00 +0.0000000000000000e+00 -5.6999996701299196e+00 +1.1433298235093368e-02 -1.0312586496228597e+00 -5.9585554627069201e-02
-5.7999999999999998e+00 +9.1458935038561293e+00 +0.0000000000000000e+00 -5.7999996524619597e+00 +1.1433278575701606e-02 -1.0312597919464819e+00 -5.9583659908694658e-02
-5.9000000000000004e+00 +9.1458330267980994e+00 +0.0000000000000000e+00 -5.8999996341741401e+00 +1.1433259409241069e-02 -1.0312608673858841e+00 -5.9581746957594432e-02
-6.0000000000000000e+00 +9.1457715159465796e+00 +0.0000000000000000e+00 -5.9999996152557697e+00 +1.1433240662435980e-02 -1.0312618771380186e+00 -5.9579816257384399e-02
-6.0999999999999996e+00 +9.1457089712962301e+00 +0.0000000000000000e+00 -6.0999995956961603e+00 +1.1433222262015817e-02 -1.0312628223996927e+00 -5.9577868291719432e-02
-6.2000000000000002e+00 +9.1456453928523906e+00 +0.0000000000000000e+00 -6.1999995754846200e+00 +1.1433204134715283e-02 -1.0312637043675168e+00 -5.9575903544293249e-02
-6.2999999999999998e+00 +9.1455807806132707e+00 +0.0000000000000000e+00 -6.2999995546104604e+00 +1.1433186207275401e-02 -1.0312645242379286e+00 -5.9573922498841934e-02
-6.4000000000000004e+00 +9.1455151345771100e+00 +0.0000000000000000e+00 -6.3999995330630002e+00 +1.1433168406443883e-02 -1.0312652832071671e+00 -5.9571925639145033e-02
-6.5000000000000000e+00 +9.1454484547456794e+00 +0.0000000000000000e+00 -6.4999995108315600e+00 +1.1433150658975495e-02 -1.0312659824712471e+00 -5.9569913449026762e-02
-6.5999999999999996e+00 +9.1453807411171901e+00 +0.0000000000000000e+00 -6.5999994879054302e+00 +1.1433132891632884e-02 -1.0312666232259649e+00 -5.9567886412358564e-02
-6.7000000000000002e+00 +9.1453119936934399e+00 +0.0000000000000000e+00 -6.6999994642739402e+00 +1.1433115031186858e-02 -1.0312672066668664e+00 -5.9565845013059969e-02
-6.7999999999999998e+00 +9.1452422124761892e+00 +0.0000000000000000e+00 -6.7999994399263999e+00 +1.1433097004417062e-02 -1.0312677339892420e+00 -5.9563789735100792e-02
-6.9000000000000004e+00 +9.1451713974618905e+00 +0.0000000000000000e+00 -6.8999994148521200e+00 +1.1433078738112713e-02 -1.0312682063881253e+00 -5.9561721062503327e-02
-7.0000000000000000e+00 +9.1450995486523308e+00 +0.0000000000000000e+00 -6.9999993890404202e+00 +1.1433060159072772e-02 -1.0312686250582552e+00 -5.9559639479342986e-02
-7.0999999999999996e+00 +9.1450266660474906e+00 +0.0000000000000000e+00 -7.0999993624805997e+00 +1.1433041194106758e-02 -1.0312689911940791e+00 -5.9557545469750769e-02
-7.2000000000000002e+00 +9.1449527496438208e+00 +0.0000000000000000e+00 -7.1999993351619702e+00 +1.1433021770035327e-02 -1.0312693059897415e+00 -5.9555439517915060e-02
-7.2999999999999998e+00 +9.1448777994484391e+00 +0.0000000000000000e+00 -7.2999993070738700e+00 +1.1433001813690368e-02 -1.0312695706390380e+00 -5.9553322108082000e-02
-7.4000000000000004e+00 +9.1448018154560096e+00 +0.0000000000000000e+00 -7.3999992782055797e+00 +1.1432981251916323e-02 -1.0312697863354574e+00 -5.9551193724559533e-02
-7.5000000000000000e+00 +9.1447247976682995e+00 +0.0000000000000000e+00 -7.4999992485464304e+00 +1.1432960011570091e-02 -1.0312699542721189e+00 -5.9549054851717055e-02
-7.5999999999999996e+00 +9.1446467460835503e+00 +0.0000000000000000e+00 -7.5999992180857303e+00 +1.1432937980223897e-02 -1.0312700752321824e+00 -5.9546906051414425e-02
-7.7000000000000002e+00 +9.1445676607035296e+00 +0.0000000000000000e+00 -7.6999991868127999e+00 +1.1432914888274302e-02 -1.0312701483599394e+00 -5.9544748195258103e-02
-7.7999999999999998e+00 +9.1444875415300100e+00 +0.0000000000000000e+00 -7.7999991547169403e+00 +1.1432890426850017e-02 -1.0312701723895810e+00 -5.9542582232267778e-02
-7.9000000000000004e+00 +9.1444063885594495e+00 +0.0000000000000000e+00 -7.8999991217874603e+00 +1.1432864287114586e-02 -1.0312701460548079e+00 -5.9540409111438861e-02
-8.0000000000000000e+00 +9.1443242017936104e+00 +0.0000000000000000e+00 -7.9999990880136904e+00 +1.1432836160267176e-02 -1.0312700680887892e+00 -5.9538229781739983e-02
-8.0999999999999996e+00 +9.1442409812307197e+00 +0.0000000000000000e+00 -8.0999990533849306e+00 +1.1432805737544051e-02 -1.0312699372241654e+00 -5.9536045192112898e-02
-8.1999999999999993e+00 +9.1441567268743391e+00 +0.0000000000000000e+00 -8.1999990178904891e+00 +1.1432772710219447e-02 -1.0312697521930123e+00 -5.9533856291470240e-02
-8.3000000000000007e+00 +9.1440714387209105e+00 +0.0000000000000000e+00 -8.2999989815196997e+00 +1.1432736769607132e-02 -1.0312695117268533e+00 -5.9531664028695655e-02
-8.4000000000000004e+00 +9.1439851167722104e+00 +0.0000000000000000e+00 -8.3999989442618492e+00 +1.1432697607061185e-02 -1.0312692145566129e+00 -5.9529469352641390e-02
-8.5000000000000000e+00 +9.1438977610300203e+00 +0.0000000000000000e+00 -8.4999989061062706e+00 +1.1432654913977316e-02 -1.0312688594126145e+00 -5.9527273212127495e-02
-8.5999999999999996e+00 +9.1438093714890005e+00 +0.0000000000000000e+00 -8.5999988670422596e+00 +1.1432608381794289e-02 -1.0312684450245766e+00 -5.9525076555941511e-02
-8.6999999999999993e+00 +9.1437199481544802e+00 +0.0000000000000000e+00 -8.6999988270591402e+00 +1.1432557701994469e-02 -1.0312679701215597e+00 -5.9522880332835273e-02
-8.8000000000000007e+00 +9.1436294910247007e+00 +0.0000000000000000e+00 -8.7999987861462294e+00 +1.1432502566105613e-02 -1.0312674334319878e+00 -5.9520685491525741e-02
-8.9000000000000004e+00 +9.1435380000978608e+00 +0.0000000000000000e+00 -8.8999987442928301e+00 +1.1432442665701790e-02 -1.0312668336836159e+00 -5.9518492980692998e-02
-9.0000000000000000e+00 +9.1434454753775292e+00 +0.0000000000000000e+00 -8.9999987014882503e+00 +1.1432377692404346e-02 -1.0312661696035021e+00 -5.9516303748978393e-02
-9.0999999999999996e+00 +9.1433519168619295e+00 +0.0000000000000000e+00 -9.0999986577218195e+00 +1.1432307337883474e-02 -1.0312654399180137e+00 -5.9514118744984648e-02
-9.1999999999999993e+00 +9.1432573245492801e+00 +0.0000000000000000e+00 -9.1999986129828297e+00 +1.1432231293859167e-02 -1.0312646433528010e+00 -5.9511938917274056e-02
-9.3000000000000007e+00 +9.1431616984413608e+00 +0.0000000000000000e+00 -9.2999985672606194e+00 +1.1432149252102283e-02 -1.0312637786327701e+00 -5.9509765214366878e-02
-9.4000000000000004e+00 +9.1430650385381700e+00 +0.0000000000000000e+00 -9.3999985205444805e+00 +1.1432060904435897e-02 -1.0312628444820804e+00 -5.9507598584740758e-02
-9.5000000000000000e+00 +9.1429673448397004e+00 +0.0000000000000000e+00 -9.4999984728237195e+00 +1.1431965942736400e-02 -1.0312618396241227e+00 -5.9505439976829347e-02
-9.5999999999999996e+00 +9.1428686173459699e+00 +0.0000000000000000e+00 -9.5999984240876799e+00 +1.1431864237734688e-02 -1.0312607629593360e+00 -5.9503290458062373e-02
-9.6999999999999993e+00 +9.1427688560551807e+00 +0.0000000000000000e+00 -9.6999983743256504e+00 +1.1431756375398425e-02 -1.0312596140990393e+00 -5.9501151572039106e-02
-9.8000000000000007e+00 +9.1426680609726798e+00 +0.0000000000000000e+00 -9.7999983235269408e+00 +1.1431643120424183e-02 -1.0312583928324437e+00 -5.9499024981443792e-02
-9.9000000000000004e+00 +9.1425662320913492e+00 +0.0000000000000000e+00 -9.8999982716808805e+00 +1.1431525237406084e-02 -1.0312570989489347e+00 -5.9496912349003769e-02
-1.0000000000000000e+01 +9.1424633694165305e+00 +0.0000000000000000e+00 -9.9999982187767706e+00 +1.1431403490832066e-02 -1.0312557322380198e+00 -5.9494815337487648e-02
-1.0100000000000000e+01 +9.1423594729446602e+00 +0.0000000000000000e+00 -1.0099998164803900e+01 +1.1431278645081755e-02 -1.0312542924893884e+00 -5.9492735609708886e-02
-1.0199999999999999e+01 +9.1422545426793000e+00 +0.0000000000000000e+00 -1.0199998109751700e+01 +1.1431151464423013e-02 -1.0312527794928814e+00 -5.9490674828524902e-02
-1.0300000000000001e+01 +9.1421485786168795e+00 +0.0000000000000000e+00 -1.0299998053609301e+01 +1.1431022713009558e-02 -1.0312511930385351e+00 -5.9488634656839685e-02
-1.0400000000000000e+01 +9.1420415807609707e+00 +0.0000000000000000e+00 -1.0399997996366100e+01 +1.1430893154877577e-02 -1.0312495329165519e+00 -5.9486616757603278e-02
-1.0500000000000000e+01 +9.1419335491080194e+00 +0.0000000000000000e+00 -1.0499997938011500e+01 +1.1430763553943329e-02 -1.0312477989173441e+00 -5.9484622793814196e-02
-1.0600000000000000e+01 +9.1418244836597893e+00 +0.0000000000000000e+00 -1.0599997878534600e+01 +1.1430634673999848e-02 -1.0312459908315108e+00 -5.9482654428519251e-02
-1.0699999999999999e+01 +9.1417143844180693e+00 +0.0000000000000000e+00 -1.0699997817925000e+01 +1.1430507278714209e-02 -1.0312441084498623e+00 -5.9480713324815040e-02
-1.0800000000000001e+01 +9.1416032513792906e+00 +0.0000000000000000e+00 -1.0799997756171701e+01 +1.1430382131624841e-02 -1.0312421515634365e+00 -5.9478801145849559e-02
-1.0900000000000000e+01 +9.1414910845470292e+00 +0.0000000000000000e+00 -1.0899997693264300e+01 +1.1430259996138191e-02 -1.0312401199634798e+00 -5.9476919554821754e-02
-1.1000000000000000e+01 +9.1413778839177091e+00 +0.0000000000000000e+00 -1.0999997629191901e+01 +1.1430141635526333e-02 -1.0312380134414876e+00 -5.9475070214984174e-02
-1.1100000000000000e+01 +9.1412636494931299e+00 +0.0000000000000000e+00 -1.1099997563943900e+01 +1.1430027812923632e-02 -1.0312358317891848e+00 -5.9473254789642563e-02
-1.1199999999999999e+01 +9.1411483812750394e+00 +0.0000000000000000e+00 -1.1199997497509599e+01 +1.1429919291324038e-02 -1.0312335747985439e+00 -5.9471474942157397e-02
-1.1300000000000001e+01 +9.1410320792599205e+00 +0.0000000000000000e+00 -1.1299997429878401e+01 +1.1429816833578365e-02 -1.0312312422618075e+00 -5.9469732335945463e-02
-1.1400000000000000e+01 +9.1409147434512903e+00 +0.0000000000000000e+00 -1.1399997361039500e+01 +1.1429721202390965e-02 -1.0312288339714675e+00 -5.9468028634479544e-02
-1.1500000000000000e+01 +9.1407963738456193e+00 +0.0000000000000000e+00 -1.1499997290982201e+01 +1.1429633160317303e-02 -1.0312263497203045e+00 -5.9466365501290822e-02
-1.1600000000000000e+01 +9.1406769704464494e+00 +0.0000000000000000e+00 -1.1599997219695799e+01 +1.1429553183051489e-02 -1.0312237895047893e+00 -5.9464744434713245e-02
-1.1699999999999999e+01 +9.1405565332520098e+00 +0.0000000000000000e+00 -1.1699997147169800e+01 +1.1429480599326500e-02 -1.0312211541354483e+00 -5.9463166272046869e-02
