# trajectory
# s[mm] rx[mm] ry[mm] rz[mm] px[rad] py[rad] pz[rad]
0.0000000000000000e+00 +9.1762999999999995e+00 +0.0000000000000000e+00 +0.0000000000000000e+00 +0.0000000000000000e+00 +0.0000000000000000e+00 +1.0000000000000000e+00
1.0000000000000001e-01 +9.1762994844908992e+00 +0.0000000000000000e+00 +9.9999999998228326e-02 -1.0310182081239773e-05 +0.0000000000000000e+00 +9.9999999994685007e-01
2.0000000000000001e-01 +9.1762979379635805e+00 +0.0000000000000000e+00 +1.9999999998582668e-01 -2.0620364207625067e-05 +0.0000000000000000e+00 +9.9999999978740028e-01
3.0000000000000004e-01 +9.1762953604180897e+00 +0.0000000000000000e+00 +2.9999999995216503e-01 -3.0930545362484742e-05 +0.0000000000000000e+00 +9.9999999952165064e-01
4.0000000000000002e-01 +9.1762917518545777e+00 +0.0000000000000000e+00 +3.9999999988661344e-01 -4.1240724452174023e-05 +0.0000000000000000e+00 +9.9999999914960125e-01
5.0000000000000000e-01 +9.1762871122733074e+00 +0.0000000000000000e+00 +4.9999999977854193e-01 -5.1550900306071427e-05 +0.0000000000000000e+00 +9.9999999867125222e-01
5.9999999999999998e-01 +9.1762814416746661e+00 +0.0000000000000000e+00 +5.9999999961732053e-01 -6.1861071679587216e-05 +0.0000000000000000e+00 +9.9999999808660378e-01
6.9999999999999996e-01 +9.1762747400591635e+00 +0.0000000000000000e+00 +6.9999999939231938e-01 -7.2171237287290698e-05 +0.0000000000000000e+00 +9.9999999739565615e-01
7.9999999999999993e-01 +9.1762670074274428e+00 +0.0000000000000000e+00 +7.9999999909290853e-01 -8.2481395836038615e-05 +0.0000000000000000e+00 +9.9999999659840955e-01
8.9999999999999991e-01 +9.1762582437802749e+00 +0.0000000000000000e+00 +8.9999999870845804e-01 -9.2791546027985603e-05 +0.0000000000000000e+00 +9.9999999569486442e-01
9.9999999999999989e-01 +9.1762484491185603e+00 +0.0000000000000000e+00 +9.9999999822833818e-01 -1.0310168656058340e-04 +0.0000000000000000e+00 +9.9999999468502099e-01
1.0999999999999999e+00 +9.1762376234433294e+00 +0.0000000000000000e+00 +1.0999999976419190e+00 -1.1341181612658048e-04 +0.0000000000000000e+00 +9.9999999356887981e-01
1.2000000000000000e+00 +9.1762257667557439e+00 +0.0000000000000000e+00 +1.1999999969385708e+00 -1.2372193341402229e-04 +0.0000000000000000e+00 +9.9999999234644144e-01
1.3000000000000000e+00 +9.1762128790570987e+00 +0.0000000000000000e+00 +1.2999999961076640e+00 -1.3403203710625204e-04 +0.0000000000000000e+00 +9.9999999101770631e-01
1.4000000000000001e+00 +9.1761989603488203e+00 +0.0000000000000000e+00 +1.3999999951385689e+00 -1.4434212588191193e-04 +0.0000000000000000e+00 +9.9999998958267511e-01
1.5000000000000002e+00 +9.1761840106324648e+00 +0.0000000000000000e+00 +1.4999999940206559e+00 -1.5465219841494509e-04 +0.0000000000000000e+00 +9.9999998804134849e-01
1.6000000000000003e+00 +9.1761680299097232e+00 +0.0000000000000000e+00 +1.5999999927432955e+00 -1.6496225337459783e-04 +0.0000000000000000e+00 +9.9999998639372722e-01
1.7000000000000004e+00 +9.1761510181824200e+00 +0.0000000000000000e+00 +1.6999999912958583e+00 -1.7527228942542259e-04 +0.0000000000000000e+00 +9.9999998463981199e-01
1.8000000000000005e+00 +9.1761329754525125e+00 +0.0000000000000000e+00 +1.7999999896677148e+00 -1.8558230522728141e-04 +0.0000000000000000e+00 +9.9999998277960367e-01
1.9000000000000006e+00 +9.1761139017220934e+00 +0.0000000000000000e+00 +1.8999999878482359e+00 -1.9589229943534981e-04 +0.0000000000000000e+00 +9.9999998081310315e-01
2.0000000000000004e+00 +9.1760937969933902e+00 +0.0000000000000000e+00 +1.9999999858267923e+00 -2.0620227070012139e-04 +0.0000000000000000e+00 +9.9999997874031132e-01
2.1000000000000005e+00 +9.1760726612687638e+00 +0.0000000000000000e+00 +2.0999999835927552e+00 -2.1651221766741282e-04 +0.0000000000000000e+00 +9.9999997656122930e-01
2.2000000000000006e+00 +9.1760504945507115e+00 +0.0000000000000000e+00 +2.1999999811354951e+00 -2.2682213897836940e-04 +0.0000000000000000e+00 +9.9999997427585807e-01
2.3000000000000007e+00 +9.1760272968418679e+00 +0.0000000000000000e+00 +2.2999999784443839e+00 -2.3713203326947117e-04 +0.0000000000000000e+00 +9.9999997188419876e-01
2.4000000000000008e+00 +9.1760030681450040e+00 +0.0000000000000000e+00 +2.3999999755087922e+00 -2.4744189917253964e-04 +0.0000000000000000e+00 +9.9999996938625257e-01
2.5000000000000009e+00 +9.1759778084630259e+00 +0.0000000000000000e+00 +2.4999999723180917e+00 -2.5775173531474488e-04 +0.0000000000000000e+00 +9.9999996678202074e-01
2.6000000000000010e+00 +9.1759515177989783e+00 +0.0000000000000000e+00 +2.5999999688616535e+00 -2.6806154032448491e-04 +0.0000000000000000e+00 +9.9999996407150449e-01
2.7000000000000011e+00 +9.1759241961560427e+00 +0.0000000000000000e+00 +2.6999999651288498e+00 -2.7837131289598193e-04 +0.0000000000000000e+00 +9.9999996125470514e-01
2.8000000000000012e+00 +9.1758958435375213e+00 +0.0000000000000000e+00 +2.7999999611090520e+00 -2.8868105185387579e-04 +0.0000000000000000e+00 +9.9999995833162414e-01
2.9000000000000012e+00 +9.1758664599468283e+00 +0.0000000000000000e+00 +2.8999999567916319e+00 -2.9899075615909883e-04 +0.0000000000000000e+00 +9.9999995530226271e-01
3.0000000000000013e+00 +9.1758360453874754e+00 +0.0000000000000000e+00 +2.9999999521659619e+00 -3.0930042490887890e-04 +0.0000000000000000e+00 +9.9999995216662230e-01
3.1000000000000014e+00 +9.1758045998630582e+00 +0.0000000000000000e+00 +3.0999999472214137e+00 -3.1961005733674246e-04 +0.0000000000000000e+00 +9.9999994892470423e-01
3.2000000000000015e+00 +9.1757721233772411e+00 +0.0000000000000000e+00 +3.1999999419473601e+00 -3.2991965281251766e-04 +0.0000000000000000e+00 +9.9999994557650973e-01
3.3000000000000016e+00 +9.1757386159337440e+00 +0.0000000000000000e+00 +3.2999999363331733e+00 -3.4022921084233729e-04 +0.0000000000000000e+00 +9.9999994212204024e-01
3.4000000000000017e+00 +9.1757040775363325e+00 +0.0000000000000000e+00 +3.3999999303682258e+00 -3.5053873106864178e-04 +0.0000000000000000e+00 +9.9999993856129699e-01
3.5000000000000018e+00 +9.1756685081887976e+00 +0.0000000000000000e+00 +3.4999999240418904e+00 -3.6084821327018232e-04 +0.0000000000000000e+00 +9.9999993489428118e-01
3.6000000000000019e+00 +9.1756319078949478e+00 +0.0000000000000000e+00 +3.5999999173435397e+00 -3.7115765736202375e-04 +0.0000000000000000e+00 +9.9999993112099417e-01
3.7000000000000020e+00 +9.1755942766585932e+00 +0.0000000000000000e+00 +3.6999999102625467e+00 -3.8146706339554763e-04 +0.0000000000000000e+00 +9.9999992724143694e-01
3.8000000000000020e+00 +9.1755556144835317e+00 +0.0000000000000000e+00 +3.7999999027882847e+00 -3.9177643155845519e-04 +0.0000000000000000e+00 +9.9999992325561071e-01
3.9000000000000021e+00 +9.1755159213735347e+00 +0.0000000000000000e+00 +3.8999998949101267e+00 -4.0208576217477029e-04 +0.0000000000000000e+00 +9.9999991916351649e-01
4.0000000000000018e+00 +9.1754751973323341e+00 +0.0000000000000000e+00 +3.9999998866174460e+00 -4.1239505570484240e-04 +0.0000000000000000e+00 +9.9999991496515528e-01
4.1000000000000014e+00 +9.1754334423636106e+00 +0.0000000000000000e+00 +4.0999998778996156e+00 -4.2270431274534951e-04 +0.0000000000000000e+00 +9.9999991066052785e-01
4.2000000000000011e+00 +9.1753906564709773e+00 +0.0000000000000000e+00 +4.1999998687460094e+00 -4.3301353402930119e-04 +0.0000000000000000e+00 +9.9999990624963508e-01
4.3000000000000007e+00 +9.1753468396579674e+00 +0.0000000000000000e+00 +4.2999998591460002e+00 -4.4332272042604137e-04 +0.0000000000000000e+00 +9.9999990173247777e-01
4.4000000000000004e+00 +9.1753019919280216e+00 +0.0000000000000000e+00 +4.3999998490889629e+00 -4.5363187294125142e-04 +0.0000000000000000e+00 +9.9999989710905646e-01
4.5000000000000000e+00 +9.1752561132844708e+00 +0.0000000000000000e+00 +4.4999998385642694e+00 -4.6394099271695284e-04 +0.0000000000000000e+00 +9.9999989237937170e-01
4.5999999999999996e+00 +9.1752092037305264e+00 +0.0000000000000000e+00 +4.5999998275612946e+00 -4.7425008102323083e-04 +0.0000000000000000e+00 +9.9999988754342384e-01
4.6999999999999993e+00 +9.1751612632692705e+00 +0.0000000000000000e+00 +4.6999998160694121e+00 -4.8455913916716035e-04 +0.0000000000000000e+00 +9.9999988260121331e-01
4.7999999999999989e+00 +9.1751122919036554e+00 +0.0000000000000000e+00 +4.7999998040779950e+00 -4.9486816840172863e-04 +0.0000000000000000e+00 +9.9999987755274033e-01
4.8999999999999986e+00 +9.1750622896365126e+00 +0.0000000000000000e+00 +4.8999997915764180e+00 -5.0517716991755213e-04 +0.0000000000000000e+00 +9.9999987239800525e-01
4.9999999999999982e+00 +9.1750112564705582e+00 +0.0000000000000000e+00 +4.9999997785540540e+00 -5.1548614484287240e-04 +0.0000000000000000e+00 +9.9999986713700828e-01
5.0999999999999979e+00 +9.1749591924083962e+00 +0.0000000000000000e+00 +5.0999997650002777e+00 -5.2579509424355222e-04 +0.0000000000000000e+00 +9.9999986176974975e-01
5.1999999999999975e+00 +9.1749060974525278e+00 +0.0000000000000000e+00 +5.1999997509044622e+00 -5.3610401912307067e-04 +0.0000000000000000e+00 +9.9999985629622989e-01
5.2999999999999972e+00 +9.1748519716053583e+00 +0.0000000000000000e+00 +5.2999997362559821e+00 -5.4641292042251839e-04 +0.0000000000000000e+00 +9.9999985071644892e-01
5.3999999999999968e+00 +9.1747968148692003e+00 +0.0000000000000000e+00 +5.3999997210442103e+00 -5.5672179902059246e-04 +0.0000000000000000e+00 +9.9999984503040706e-01
5.4999999999999964e+00 +9.1747406272462833e+00 +0.0000000000000000e+00 +5.4999997052585217e+00 -5.6703065573359063e-04 +0.0000000000000000e+00 +9.9999983923810465e-01
5.5999999999999961e+00 +9.1746834087387583e+00 +0.0000000000000000e+00 +5.5999996888882899e+00 -5.7733949131540531e-04 +0.0000000000000000e+00 +9.9999983333954179e-01
5.6999999999999957e+00 +9.1746251593487020e+00 +0.0000000000000000e+00 +5.6999996719228880e+00 -5.8764830645751764e-04 +0.0000000000000000e+00 +9.9999982733471882e-01
5.7999999999999954e+00 +9.1745658790781270e+00 +0.0000000000000000e+00 +5.7999996543516916e+00 -5.9795710178899074e-04 +0.0000000000000000e+00 +9.9999982122363595e-01
5.8999999999999950e+00 +9.1745055679289855e+00 +0.0000000000000000e+00 +5.8999996361640736e+00 -6.0826587787646258e-04 +0.0000000000000000e+00 +9.9999981500629354e-01
5.9999999999999947e+00 +9.1744442259031764e+00 +0.0000000000000000e+00 +5.9999996173494088e+00 -6.1857463522413890e-04 +0.0000000000000000e+00 +9.9999980868269178e-01
6.0999999999999943e+00 +9.1743818530025507e+00 +0.0000000000000000e+00 +6.0999995978970700e+00 -6.2888337427378558e-04 +0.0000000000000000e+00 +9.9999980225283103e-01
6.1999999999999940e+00 +9.1743184492289185e+00 +0.0000000000000000e+00 +6.1999995777964330e+00 -6.3919209540472071e-04 +0.0000000000000000e+00 +9.9999979571671149e-01
6.2999999999999936e+00 +9.1742540145840561e+00 +0.0000000000000000e+00 +6.2999995570368705e+00 -6.4950079893380628e-04 +0.0000000000000000e+00 +9.9999978907433362e-01
6.3999999999999932e+00 +9.1741885490697097e+00 +0.0000000000000000e+00 +6.3999995356077575e+00 -6.5980948511543960e-04 +0.0000000000000000e+00 +9.9999978232569775e-01
6.4999999999999929e+00 +9.1741220526876042e+00 +0.0000000000000000e+00 +6.4999995134984676e+00 -6.7011815414154408e-04 +0.0000000000000000e+00 +9.9999977547080432e-01
6.5999999999999925e+00 +9.1740545254394483e+00 +0.0000000000000000e+00 +6.5999994906983757e+00 -6.8042680614492591e-04 +0.0000000000000000e+00 +9.9999976850965377e-01
6.6999999999999922e+00 +9.1739859673269386e+00 +0.0000000000000000e+00 +6.6999994671968564e+00 -6.9073544123628714e-04 +0.0000000000000000e+00 +9.9999976144224645e-01
6.7999999999999918e+00 +9.1739163783517608e+00 +0.0000000000000000e+00 +6.7999994429832835e+00 -7.0104405954124320e-04 +0.0000000000000000e+00 +9.9999975426858290e-01
6.8999999999999915e+00 +9.1738457585155864e+00 +0.0000000000000000e+00 +6.8999994180470310e+00 -7.1135266120368604e-04 +0.0000000000000000e+00 +9.9999974698866345e-01
6.9999999999999911e+00 +9.1737741078200710e+00 +0.0000000000000000e+00 +6.9999993923774744e+00 -7.2166124638578120e-04 +0.0000000000000000e+00 +9.9999973960248856e-01
7.0999999999999908e+00 +9.1737014262668524e+00 +0.0000000000000000e+00 +7.0999993659639875e+00 -7.3196981526796475e-04 +0.0000000000000000e+00 +9.9999973211005866e-01
7.1999999999999904e+00 +9.1736277138575524e+00 +0.0000000000000000e+00 +7.1999993387959442e+00 -7.4227836804894080e-04 +0.0000000000000000e+00 +9.9999972451137398e-01
7.2999999999999901e+00 +9.1735529705937715e+00 +0.0000000000000000e+00 +7.2999993108627201e+00 -7.5258690494567815e-04 +0.0000000000000000e+00 +9.9999971680643496e-01
7.3999999999999897e+00 +9.1734771964770854e+00 +0.0000000000000000e+00 +7.3999992821536891e+00 -7.6289542619340769e-04 +0.0000000000000000e+00 +9.9999970899524182e-01
7.4999999999999893e+00 +9.1734003915090465e+00 +0.0000000000000000e+00 +7.4999992526582266e+00 -7.7320393204561905e-04 +0.0000000000000000e+00 +9.9999970107779490e-01
7.5999999999999890e+00 +9.1733225556911808e+00 +0.0000000000000000e+00 +7.5999992223657067e+00 -7.8351242277405740e-04 +0.0000000000000000e+00 +9.9999969305409442e-01
7.6999999999999886e+00 +9.1732436890249858e+00 +0.0000000000000000e+00 +7.6999991912655039e+00 -7.9382089866872037e-04 +0.0000000000000000e+00 +9.9999968492414060e-01
7.7999999999999883e+00 +9.1731637915119304e+00 +0.0000000000000000e+00 +7.7999991593469931e+00 -8.0412936003785489e-04 +0.0000000000000000e+00 +9.9999967668793366e-01
7.8999999999999879e+00 +9.1730828631534518e+00 +0.0000000000000000e+00 +7.8999991265995488e+00 -8.1443780720795358e-04 +0.0000000000000000e+00 +9.9999966834547382e-01
7.9999999999999876e+00 +9.1730009039509515e+00 +0.0000000000000000e+00 +7.9999990930125460e+00 -8.2474624052375153e-04 +0.0000000000000000e+00 +9.9999965989676132e-01
8.0999999999999872e+00 +9.1729179139057972e+00 +0.0000000000000000e+00 +8.0999990585753601e+00 -8.3505466034822283e-04 +0.0000000000000000e+00 +9.9999965134179614e-01
8.1999999999999869e+00 +9.1728338930193196e+00 +0.0000000000000000e+00 +8.1999990232773641e+00 -8.4536306706257708e-04 +0.0000000000000000e+00 +9.9999964268057839e-01
8.2999999999999865e+00 +9.1727488412928082e+00 +0.0000000000000000e+00 +8.2999989871079336e+00 -8.5567146106625572e-04 +0.0000000000000000e+00 +9.9999963391310820e-01
8.3999999999999861e+00 +9.1726627587275154e+00 +0.0000000000000000e+00 +8.3999989500564443e+00 -8.6597984277692833e-04 +0.0000000000000000e+00 +9.9999962503938555e-01
8.4999999999999858e+00 +9.1725756453246472e+00 +0.0000000000000000e+00 +8.4999989121122699e+00 -8.7628821263048909e-04 +0.0000000000000000e+00 +9.9999961605941035e-01
8.5999999999999854e+00 +9.1724875010853690e+00 +0.0000000000000000e+00 +8.5999988732647843e+00 -8.8659657108094102e-04 +0.0000000000000000e+00 +9.9999960697318269e-01
8.6999999999999851e+00 +9.1723983260107964e+00 +0.0000000000000000e+00 +8.6999988335033631e+00 -8.9690491859916160e-04 +0.0000000000000000e+00 +9.9999959778070246e-01
8.7999999999999847e+00 +9.1723081201019987e+00 +0.0000000000000000e+00 +8.7999987928173820e+00 -9.0721325567167039e-04 +0.0000000000000000e+00 +9.9999958848196957e-01
8.8999999999999844e+00 +9.1722168833599937e+00 +0.0000000000000000e+00 +8.8999987511962146e+00 -9.1752158280051697e-04 +0.0000000000000000e+00 +9.9999957907698389e-01
8.9999999999999840e+00 +9.1721246157857514e+00 +0.0000000000000000e+00 +8.9999987086292368e+00 -9.2782990050328037e-04 +0.0000000000000000e+00 +9.9999956956574521e-01
9.0999999999999837e+00 +9.1720313173801884e+00 +0.0000000000000000e+00 +9.0999986651058222e+00 -9.3813820931306919e-04 +0.0000000000000000e+00 +9.9999955994825329e-01
9.1999999999999833e+00 +9.1719369881441661e+00 +0.0000000000000000e+00 +9.1999986206153466e+00 -9.4844650977852108e-04 +0.0000000000000000e+00 +9.9999955022450793e-01
9.2999999999999829e+00 +9.1718416280784911e+00 +0.0000000000000000e+00 +9.2999985751471836e+00 -9.5875480246380301e-04 +0.0000000000000000e+00 +9.9999954039450878e-01
9.3999999999999826e+00 +9.1717452371839130e+00 +0.0000000000000000e+00 +9.3999985286907073e+00 -9.6906308794861078e-04 +0.0000000000000000e+00 +9.9999953045825563e-01
9.4999999999999822e+00 +9.1716478154611210e+00 +0.0000000000000000e+00 +9.4999984812352931e+00 -9.7937136682816933e-04 +0.0000000000000000e+00 +9.9999952041574802e-01
9.5999999999999819e+00 +9.1715493629107474e+00 +0.0000000000000000e+00 +9.5999984327703149e+00 -9.8967963971323273e-04 +0.0000000000000000e+00 +9.9999951026698553e-01
9.6999999999999815e+00 +9.1714498795333590e+00 +0.0000000000000000e+00 +9.6999983832851484e+00 -9.9998790723008373e-04 +0.0000000000000000e+00 +9.9999950001196780e-01
9.7999999999999812e+00 +9.1713493653294602e+00 +0.0000000000000000e+00 +9.7999983327691673e+00 -1.0102961700205343e-03 +0.0000000000000000e+00 +9.9999948965069430e-01
9.8999999999999808e+00 +9.1712478202994916e+00 +0.0000000000000000e+00 +9.8999982812117455e+00 -1.0206044287419257e-03 +0.0000000000000000e+00 +9.9999947918316445e-01
9.9999999999999805e+00 +9.1711452444438262e+00 +0.0000000000000000e+00 +9.9999982286022586e+00 -1.0309126840671288e-03 +0.0000000000000000e+00 +9.9999946860937783e-01
1.0099999999999980e+01 +9.1710416377627695e+00 +0.0000000000000000e+00 +1.0099998174930080e+01 -1.0412209366845436e-03 +0.0000000000000000e+00 +9.9999945792933365e-01
1.0199999999999980e+01 +9.1709370002565560e+00 +0.0000000000000000e+00 +1.0199998120184585e+01 -1.0515291872981000e-03 +0.0000000000000000e+00 +9.9999944714303135e-01
1.0299999999999979e+01 +9.1708313319253527e+00 +0.0000000000000000e+00 +1.0299998064355146e+01 -1.0618374366272582e-03 +0.0000000000000000e+00 +9.9999943625047027e-01
1.0399999999999979e+01 +9.1707246327692502e+00 +0.0000000000000000e+00 +1.0399998007431137e+01 -1.0721456854070085e-03 +0.0000000000000000e+00 +9.9999942525164953e-01
1.0499999999999979e+01 +9.1706169027882645e+00 +0.0000000000000000e+00 +1.0499997949401934e+01 -1.0824539343878721e-03 +0.0000000000000000e+00 +9.9999941414656845e-01
1.0599999999999978e+01 +9.1705081419823404e+00 +0.0000000000000000e+00 +1.0599997890256908e+01 -1.0927621843322332e-03 +0.0000000000000000e+00 +9.9999940293522616e-01
1.0699999999999978e+01 +9.1703983503513413e+00 +0.0000000000000000e+00 +1.0699997829985437e+01 -1.1030704359739889e-03 +0.0000000000000000e+00 +9.9999939161762175e-01
1.0799999999999978e+01 +9.1702875278950664e+00 +0.0000000000000000e+00 +1.0799997768576890e+01 -1.1133786899781954e-03 +0.0000000000000000e+00 +9.9999938019375445e-01
1.0899999999999977e+01 +9.1701756746132475e+00 +0.0000000000000000e+00 +1.0899997706020645e+01 -1.1236869469373953e-03 +0.0000000000000000e+00 +9.9999936866362349e-01
1.0999999999999977e+01 +9.1700627905055629e+00 +0.0000000000000000e+00 +1.0999997642306074e+01 -1.1339952073716154e-03 +0.0000000000000000e+00 +9.9999935702722831e-01
1.1099999999999977e+01 +9.1699488755716416e+00 +0.0000000000000000e+00 +1.1099997577422549e+01 -1.1443034717283623e-03 +0.0000000000000000e+00 +9.9999934528456813e-01
1.1199999999999976e+01 +9.1698339298110731e+00 +0.0000000000000000e+00 +1.1199997511359445e+01 -1.1546117403826190e-03 +0.0000000000000000e+00 +9.9999933343564251e-01
1.1299999999999976e+01 +9.1697179532234117e+00 +0.0000000000000000e+00 +1.1299997444106136e+01 -1.1649200136368419e-03 +0.0000000000000000e+00 +9.9999932148045090e-01
1.1399999999999975e+01 +9.1696009458081846e+00 +0.0000000000000000e+00 +1.1399997375651994e+01 -1.1752282917209570e-03 +0.0000000000000000e+00 +9.9999930941899284e-01
1.1499999999999975e+01 +9.1694829075649018e+00 +0.0000000000000000e+00 +1.1499997305986392e+01 -1.1855365747923557e-03 +0.0000000000000000e+00 +9.9999929725126813e-01
1.1599999999999975e+01 +9.1693638384930587e+00 +0.0000000000000000e+00 +1.1599997235098705e+01 -1.1958448629358915e-03 +0.0000000000000000e+00 +9.9999928497727641e-01
1.1699999999999974e+01 +9.1692437385921455e+00 +0.0000000000000000e+00 +1.1699997162978306e+01 -1.2061531561638769e-03 +0.0000000000000000e+00 +9.9999927259701749e-01
1.1799999999999974e+01 +9.1691226078616577e+00 +0.0000000000000000e+00 +1.1799997089614568e+01 -1.2164614544160788e-03 +0.0000000000000000e+00 +9.9999926011049134e-01
