# multipoles
# s[mm] polynom_b[n=0][T/m^n] polynom_b[n=1][T/m^n] polynom_b[n=2][T/m^n] polynom_b[n=3][T/m^n] polynom_b[n=4][T/m^n] polynom_b[n=5][T/m^n] polynom_b[n=6][T/m^n] 
+0.0000000000000000e+00 -1.0318434981386049e+00 +2.2826350029845868e+00 +2.1000956608685772e+01 +2.3096754336727312e+02 -3.9624990114314765e+04 -9.1687173157749919e+05 +2.6045803193386760e+08 
-1.0000000000000001e-01 -1.0318432861168361e+00 +2.2829291313523576e+00 +2.0982923808730799e+01 +2.2153460503879609e+02 -3.8570428500937909e+04 -8.7129496278866427e+05 +2.5408048794230738e+08 
-2.0000000000000001e-01 -1.0318430798855502e+00 +2.2832384456964565e+00 +2.0965135180567845e+01 +2.1179986055329249e+02 -3.7523541820182167e+04 -8.2440843555135617e+05 +2.4777653672312200e+08 
-3.0000000000000004e-01 -1.0318428768806667e+00 +2.2835624740774656e+00 +2.0947691674253623e+01 +2.0177235739867419e+02 -3.6486767292946388e+04 -7.7626243342185055e+05 +2.4155625439615527e+08 
-4.0000000000000002e-01 -1.0318426745382356e+00 +2.2839007445531498e+00 +2.0930694249769633e+01 +1.9146114317061773e+02 -3.5462542251884450e+04 -7.2690724151213397e+05 +2.3542971736877662e+08 
-5.0000000000000000e-01 -1.0318424702943148e+00 +2.2842527851847843e+00 +2.0914243861650682e+01 +1.8087526547049544e+02 -3.4453303853307531e+04 -6.7639314619022445e+05 +2.2940700098209631e+08 
-5.9999999999999998e-01 -1.0318422615850582e+00 +2.2846181240256236e+00 +2.0898441470435895e+01 +1.7002377235569088e+02 -3.3461489289047851e+04 -6.2477043808920670e+05 +2.2349818049523667e+08 
-6.9999999999999996e-01 -1.0318420458466517e+00 +2.2849962891166613e+00 +2.0883388034803605e+01 +1.5891571251489449e+02 -3.2489535642244253e+04 -5.7208941335560521e+05 +2.1771333041785753e+08 
-7.9999999999999993e-01 -1.0318418205153321e+00 +2.2853868084756019e+00 +2.0869184513743473e+01 +1.4756013570955975e+02 -3.1539879922835746e+04 -5.1840037661074067e+05 +2.1206252465978211e+08 
-8.9999999999999991e-01 -1.0318415830273953e+00 +2.2857892100933448e+00 +2.0855931868499880e+01 +1.3596609295715422e+02 -3.0614959111251959e+04 -4.6375364232776739e+05 +2.0655583675692925e+08 
-9.9999999999999989e-01 -1.0318413308191332e+00 +2.2862030219326028e+00 +2.0843731053800489e+01 +1.2414263664790016e+02 -2.9717209983175006e+04 -4.0819953578716592e+05 +2.0120333901354748e+08 
-1.0999999999999999e+00 -1.0318410613268545e+00 +2.2866277719080630e+00 +2.0832683021802303e+01 +1.1209882124119311e+02 -2.8849069189654179e+04 -3.5178839753970673e+05 +1.9601510289434737e+08 
-1.2000000000000000e+00 -1.0318407719869287e+00 +2.2870629878929036e+00 +2.0822888726941809e+01 +9.9843703128882851e+01 -2.8012973351482462e+04 -2.9457058282310882e+05 +1.9100119948446715e+08 
-1.3000000000000000e+00 -1.0318404602356714e+00 +2.2875081977109564e+00 +2.0814449112184594e+01 +8.7386340978670361e+01 -2.7211358790265847e+04 -2.3659646395765158e+05 +1.8617169817961738e+08 
-1.4000000000000001e+00 -1.0318401235094425e+00 +2.2879629291190136e+00 +2.0807465120875133e+01 +7.4735796335162192e+01 -2.6446661758033893e+04 -1.7791643415884301e+05 +1.8153666779851970e+08 
-1.5000000000000002e+00 -1.0318397592445543e+00 +2.2884267098133488e+00 +2.0802037686165225e+01 +6.1901133505692663e+01 -2.5721318235805255e+04 -1.1858090713193761e+05 +1.7710617561710235e+08 
-1.6000000000000003e+00 -1.0318393652934186e+00 +2.2888990120395842e+00 +2.0798173409796018e+01 +4.8891306831864100e+01 -2.5035779295974393e+04 -5.8629284596557765e+04 +1.7288087224173489e+08 
-1.7000000000000004e+00 -1.0318389412433144e+00 +2.2893791400704879e+00 +2.0795512479532739e+01 +3.5713764311995703e+01 -2.4382754822811112e+04 +1.9481326919322498e+03 +1.6882453087662044e+08 
-1.8000000000000005e+00 -1.0318384871322765e+00 +2.2898663694440327e+00 +2.0793606061179862e+01 +2.2375314879847590e+01 -2.3753066040411173e+04 +6.3174577577295939e+04 +1.6489188808419913e+08 
-1.9000000000000006e+00 -1.0318380029983958e+00 +2.2903599756981827e+00 +2.0792005334691009e+01 +8.8827675842338607e+00 -2.3137534524076451e+04 +1.2507328195949705e+05 +1.6103768235315758e+08 
-2.0000000000000004e+00 -1.0318374888798287e+00 +2.2908592343883925e+00 +2.0790261496886128e+01 -4.7570690103761919e+00 -2.2526982274030212e+04 +1.8766748071107126e+05 +1.5721665452324000e+08 
-2.1000000000000005e+00 -1.0318369448148370e+00 +2.2913634210863956e+00 +2.0787925767273144e+01 -1.8537386854680257e+01 -2.1912231839818218e+04 +2.5098041220345843e+05 +1.5338354842111087e+08 
-2.2000000000000006e+00 -1.0318363708417717e+00 +2.2918718113903820e+00 +2.0784549388953781e+01 -3.2451378768184483e+01 -2.1284106366709158e+04 +3.1503532070678950e+05 +1.4949311116987577e+08 
-2.3000000000000007e+00 -1.0318357669990548e+00 +2.2923836809260374e+00 +2.0779683625700020e+01 -4.6492238559112465e+01 -2.0633429546821459e+04 +3.7985545749875234e+05 +1.4550009298572832e+08 
-2.4000000000000008e+00 -1.0318351333252691e+00 +2.2928983053593379e+00 +2.0772879777266141e+01 -6.0653161442092092e+01 -1.9951025946549911e+04 +4.4546408361282788e+05 +1.4135924884176311e+08 
-2.5000000000000009e+00 -1.0318344698590576e+00 +2.2934149603891232e+00 +2.0763689166272304e+01 -7.4927343903103761e+01 -1.9227720762024641e+04 +5.1188446943734941e+05 +1.3702533732831669e+08 
-2.6000000000000010e+00 -1.0318337766392109e+00 +2.2939329217720177e+00 +2.0751663151840049e+01 -8.9307984494064144e+01 -1.8454340108160031e+04 +5.7913989971664920e+05 +1.3245312211706609e+08 
-2.7000000000000011e+00 -1.0318330537046465e+00 +2.2944514653090584e+00 +2.0736353127928169e+01 -1.0378828351546048e+02 -1.7621711001701402e+04 +6.4725367207460070e+05 +1.2759737193016294e+08 
-2.8000000000000012e+00 -1.0318323010943824e+00 +2.2949698668669209e+00 +2.0717310521977804e+01 -1.1836144368427648e+02 -1.6720661357136662e+04 +7.1624910121182434e+05 +1.2241286058879067e+08 
-2.9000000000000012e+00 -1.0318315188476281e+00 +2.2954874023743574e+00 +2.0694086807421535e+01 -1.3302067013276815e+02 -1.5742020243896788e+04 +7.8614951936928520e+05 +1.1685436829884695e+08 
-3.0000000000000013e+00 -1.0318307070036810e+00 +2.2960033478279578e+00 +2.0666233492478227e+01 -1.4775917061089038e+02 -1.4676617693644324e+04 +8.5697827775880881e+05 +1.1087668079925446e+08 
-3.1000000000000014e+00 -1.0318298656020484e+00 +2.2965169793072682e+00 +2.0633302137394569e+01 -1.6257015600925638e+02 -1.3515285049982931e+04 +9.2875875003512378e+05 +1.0443459109197599e+08 
-3.2000000000000015e+00 -1.0318289946823189e+00 +2.2970275729698870e+00 +2.0594844338431496e+01 -1.7744684030610790e+02 -1.2248854676256289e+04 +1.0015143323892874e+06 +9.7482898097604915e+07 
-3.3000000000000016e+00 -1.0318280942843379e+00 +2.2975344050609601e+00 +2.0550411753361974e+01 -1.9238244087029412e+02 -1.0868160471052672e+04 +1.0752684455739846e+06 +8.9976409198223010e+07 
-3.4000000000000017e+00 -1.0318271644480614e+00 +2.2980367519210891e+00 +2.0499556083085189e+01 -2.0737017878467026e+02 -9.3640375309530191e+03 +1.1500445372067655e+06 +8.1869938677698538e+07 
-3.5000000000000018e+00 -1.0318262052136453e+00 +2.2985338899984598e+00 +2.0441829086216366e+01 -2.2240327927442164e+02 -7.7273224589831225e+03 +1.2258660845926388e+06 +7.3118309275120333e+07 
-3.6000000000000019e+00 -1.0318252173069478e+00 +2.2990252575702845e+00 +2.0376981435382902e+01 -2.3747661414496503e+02 -5.9528776677794622e+03 +1.3027533005563940e+06 +6.3695988506579712e+07 
-3.7000000000000020e+00 -1.0318242039297290e+00 +2.2995107485400164e+00 +2.0305515584295513e+01 -2.5258663497246516e+02 -4.0508560406935089e+03 +1.3806843379747514e+06 +5.3652514779110439e+07 
-3.8000000000000020e+00 -1.0318231688383777e+00 +2.2999903244577542e+00 +2.0228111824963843e+01 -2.6772896693009119e+02 -2.0350505262185229e+03 +1.4596196349012321e+06 +4.3055431343071215e+07 
-3.9000000000000021e+00 -1.0318221157891163e+00 +2.3004639468779202e+00 +2.0145450425341707e+01 -2.8289923510401275e+02 +8.0746485622521206e+01 +1.5395196285600781e+06 +3.1972278206684027e+07 
-4.0000000000000018e+00 -1.0318210485379820e+00 +2.3009315773487797e+00 +2.0058211625784136e+01 -2.9809306421778234e+02 +2.2827432465589832e+03 +1.6203447540965539e+06 +2.0470591646278072e+07 
-4.1000000000000014e+00 -1.0318199708407854e+00 +2.3013931774192291e+00 +1.9967075633189694e+01 -3.1330607881383224e+02 +4.5571487830169672e+03 +1.7020554455807649e+06 +8.6179034834532533e+06 
-4.2000000000000011e+00 -1.0318188864531643e+00 +2.3018487086308386e+00 +1.9872722626066526e+01 -3.2853390300331841e+02 +6.8901728150053505e+03 +1.7846121344905957e+06 -3.5182585922244075e+06 
-4.3000000000000007e+00 -1.0318177991304482e+00 +2.3022981325173517e+00 +1.9775832737323135e+01 -3.4377216043033837e+02 +9.2680261009099395e+03 +1.8679752494349487e+06 -1.5870372741739785e+07 
-4.4000000000000004e+00 -1.0318167126278006e+00 +2.3027414106095878e+00 +1.9677086070614944e+01 -3.5901647439177367e+02 +1.1676920137014416e+04 +1.9521052167770138e+06 -2.8370921593588904e+07 
-4.5000000000000000e+00 -1.0318156307000439e+00 +2.3031785044212514e+00 +1.9577162677028245e+01 -3.7426246740072071e+02 +1.4103067630587699e+04 +2.0369624580092591e+06 -4.0952394608255357e+07 
-4.5999999999999996e+00 -1.0318145571017461e+00 +2.3036093754576221e+00 +1.9476742565469262e+01 -3.8950576143189079e+02 +1.6532682307476189e+04 +2.1225073911665464e+06 -5.3547287198956199e+07 
-4.6999999999999993e+00 -1.0318134955871829e+00 +2.3040339852079277e+00 +1.9376505697086177e+01 -4.0474197766063861e+02 +1.8951979035743425e+04 +2.2087004291694011e+06 -6.6088101392442375e+07 
-4.7999999999999989e+00 -1.0318124499102961e+00 +2.3044522951487614e+00 +1.9277131978517286e+01 -4.1996673656254387e+02 +2.1347173974770871e+04 +2.2955019804094620e+06 -7.8507346623712227e+07 
-4.8999999999999986e+00 -1.0318114238246581e+00 +2.3048642667349246e+00 +1.9179301256467767e+01 -4.3517565760363226e+02 +2.3704484695379080e+04 +2.3828724468050036e+06 -9.0737540376892224e+07 
-4.9999999999999982e+00 -1.0318104210835637e+00 +2.3052698614085414e+00 +1.9083693328266630e+01 -4.5036435950694994e+02 +2.6010129991970840e+04 +2.4707722253534188e+06 -1.0271120735304014e+08 
-5.0999999999999979e+00 -1.0318094454398739e+00 +2.3056690405788287e+00 +1.8990987921468779e+01 -4.6552845962651060e+02 +2.8250330289728408e+04 +2.5591617043659957e+06 -1.1436088148590153e+08 
-5.1999999999999975e+00 -1.0318085006460693e+00 +2.3060617656441602e+00 +1.8901864699171444e+01 -4.8066357457822460e+02 +3.0411307558657216e+04 +2.6480012671075361e+06 -1.2561910559878443e+08 
-5.2999999999999972e+00 -1.0318075904542614e+00 +2.3064479979702726e+00 +1.8817003260810580e+01 -4.9576531958288444e+02 +3.2479285316109570e+04 +2.7372512878886396e+06 -1.3641843149274704e+08 
-5.3999999999999968e+00 -1.0318067186161037e+00 +2.3068276988979122e+00 +1.8737083129514193e+01 -5.1082930865921418e+02 +3.4440488883350088e+04 +2.8268721331090447e+06 -1.4669142123355642e+08 
-5.4999999999999964e+00 -1.0318058888828032e+00 +2.3072008297046773e+00 +1.8662783748223521e+01 -5.2585115313905271e+02 +3.6281145555747338e+04 +2.9168241514715361e+06 -1.5637064830279502e+08 
-5.5999999999999961e+00 -1.0318051042352572e+00 +2.3075671634870321e+00 +1.8594640266236866e+01 -5.4081870462134850e+02 +3.7990576142007543e+04 +3.0070175860584923e+06 -1.6540431375088793e+08 
-5.6999999999999957e+00 -1.0318043649086024e+00 +2.3079259336178586e+00 +1.8532669153228312e+01 -5.5569545021538374e+02 +3.9569043028472886e+04 +3.0972020521908416e+06 -1.7379530115375990e+08 
-5.7999999999999954e+00 -1.0318036705354092e+00 +2.3082762849950154e+00 +1.8476770997412050e+01 -5.7044019107928693e+02 +4.1019211489843925e+04 +3.1870952446930236e+06 -1.8155835891706792e+08 
-5.8999999999999950e+00 -1.0318030207479907e+00 +2.3086173624721371e+00 +1.8426846352569797e+01 -5.8501172714957625e+02 +4.2343747237677358e+04 +3.2764148523924318e+06 -1.8870823612420550e+08 
-5.9999999999999947e+00 -1.0318024151783594e+00 +2.3089483108829048e+00 +1.8382795731644727e+01 -5.9936885797691491e+02 +4.3545316556857004e+04 +3.3648785634040739e+06 -1.9525968320620742e+08 
-6.0999999999999943e+00 -1.0318018534581457e+00 +2.3092682750193672e+00 +1.8344519596152232e+01 -6.1347038207444314e+02 +4.4626586494418509e+04 +3.4522040612997934e+06 -2.0122745275870413e+08 
-6.1999999999999940e+00 -1.0318013352186799e+00 +2.3095763996511911e+00 +1.8311918366031865e+01 -6.2727509752796448e+02 +4.5590224669583476e+04 +3.5381090288089844e+06 -2.0662629859366125e+08 
-6.2999999999999936e+00 -1.0318008600909399e+00 +2.3098718295108247e+00 +1.8284892413115475e+01 -6.4074180154063879e+02 +4.6438899381043899e+04 +3.6223111451195832e+06 -2.1147097615433314e+08 
-6.3999999999999932e+00 -1.0318004277055450e+00 +2.3101537092955455e+00 +1.8263342060617155e+01 -6.5382929051949850e+02 +4.7175279609753685e+04 +3.7045280864668512e+06 -2.1577624247334257e+08 
-6.4999999999999929e+00 -1.0318000376927543e+00 +2.3104211836682733e+00 +1.8247167581600831e+01 -6.6649636010501263e+02 +4.7802035040179057e+04 +3.7844775263455170e+06 -2.1955685620595276e+08 
-6.5999999999999925e+00 -1.0317996896824360e+00 +2.3106733972525806e+00 +1.8236269196282493e+01 -6.7870180503884319e+02 +4.8321836100695764e+04 +3.8618771347798547e+06 -2.2282757775169897e+08 
-6.6999999999999922e+00 -1.0317993833040733e+00 +2.3109094946340902e+00 +1.8230547071690797e+01 -6.9040441921304785e+02 +4.8737353960113309e+04 +3.9364445786570050e+06 -2.2560316916828111e+08 
-6.7999999999999918e+00 -1.0317991181867838e+00 +2.3111286203633488e+00 +1.8229901324652303e+01 -7.0156299576140589e+02 +4.9051260457846067e+04 +4.0078975222839001e+06 -2.2789839375885138e+08 
-6.8999999999999915e+00 -1.0317988939592593e+00 +2.3113299189373273e+00 +1.8234232013229725e+01 -7.1213632653750210e+02 +4.9266228265226884e+04 +4.0759536244209171e+06 -2.2972801679580414e+08 
-6.9999999999999911e+00 -1.0317987102497961e+00 +2.3115125348198298e+00 +1.8243439141147249e+01 -7.2208320271145965e+02 +4.9384930783256401e+04 +4.1403305417670584e+06 -2.3110680493975818e+08 
-7.0999999999999908e+00 -1.0317985666862730e+00 +2.3116756124274116e+00 +1.8257422654348581e+01 -7.3136241437672538e+02 +4.9410042204883575e+04 +4.2007459267368531e+06 -2.3204952648763055e+08 
-7.1999999999999904e+00 -1.0317984628961214e+00 +2.3118182961272740e+00 +1.8276082437284867e+01 -7.3993275049717442e+02 +4.9344237571144709e+04 +4.2569174271945413e+06 -2.3257095155427754e+08 
-7.2999999999999901e+00 -1.0317983985063615e+00 +2.3119397302448665e+00 +1.8299318317792121e+01 -7.4775299914035895e+02 +4.9190192669277130e+04 +4.3085626878438909e+06 -2.3268585152339819e+08 
-7.3999999999999897e+00 -1.0317983731435638e+00 +2.3120390590520383e+00 +1.8327030060436627e+01 -7.5478194713273285e+02 +4.8950584156321042e+04 +4.3553993482508883e+06 -2.3240899958192086e+08 
-7.4999999999999893e+00 -1.0317983864338529e+00 +2.3121154268236790e+00 +1.8359117374571031e+01 -7.6097838288270702e+02 +4.8628089209888451e+04 +4.3971450632100580e+06 -2.3175516830237061e+08 
-7.5999999999999890e+00 -1.0317984376818530e+00 +2.3121684031396899e+00 +1.8395452030200190e+01 -7.6631697746335851e+02 +4.8225487218122471e+04 +4.4336189784634812e+06 -2.3073824230636492e+08 
-7.6999999999999886e+00 -1.0317985250127246e+00 +2.3121992334088466e+00 +1.8435770100688202e+01 -7.7083323719843497e+02 +4.7747097700752987e+04 +4.4650256094717328e+06 -2.2937618643444505e+08 
-7.7999999999999883e+00 -1.0317986462741660e+00 +2.3122095875798268e+00 +1.8479766442741933e+01 -7.7457774958890218e+02 +4.7197925528863554e+04 +4.4916644825781146e+06 -2.2768995068730205e+08 
-7.8999999999999879e+00 -1.0317987993143314e+00 +2.3122011358769501e+00 +1.8527135957772884e+01 -7.7760111184807567e+02 +4.6582974960496475e+04 +4.5138351884937519e+06 -2.2570048321386194e+08 
-7.9999999999999876e+00 -1.0317989819820867e+00 +2.3121755487473035e+00 +1.8577573631557545e+01 -7.7995392872901914e+02 +4.5907248751462816e+04 +4.5318373672151612e+06 -2.2342872558535632e+08 
-8.0999999999999872e+00 -1.0317991921268894e+00 +2.3121344968631594e+00 +1.8630774518442418e+01 -7.8168681262141877e+02 +4.5175748468997626e+04 +4.5459707087121811e+06 -2.2089561434452417e+08 
-8.1999999999999869e+00 -1.0317994275989373e+00 +2.3120796511294999e+00 +1.8686433759892687e+01 -7.8285038380415699e+02 +4.4393474146612207e+04 +4.5565349545447240e+06 -2.1812207940257537e+08 
-8.2999999999999865e+00 -1.0317996862491183e+00 +2.3120126826965972e+00 +1.8744246578856615e+01 -7.8349527084716885e+02 +4.3565424386706880e+04 +4.5638299003578788e+06 -2.1512904452904564e+08 
-8.3999999999999861e+00 -1.0317999659290298e+00 +2.3119352629564922e+00 +1.8803908281149550e+01 -7.8367211051868469e+02 +4.2696596348987885e+04 +4.5681553954074085e+06 -2.1193742735630295e+08 
-8.4999999999999858e+00 -1.0318002644910953e+00 +2.3118490635625006e+00 +1.8865114270478806e+01 -7.8343154841035562e+02 +4.1791985466491948e+04 +4.5698113464254132e+06 -2.0856813805093235e+08 
-8.5999999999999854e+00 -1.0318005797884551e+00 +2.3117557564279649e+00 +1.8927560034109465e+01 -7.8282423891880910e+02 +4.0856585728235274e+04 +4.5690977176030707e+06 -2.0504208070176864e+08 
-8.6999999999999851e+00 -1.0318009096750915e+00 +2.3116570137333268e+00 +1.8990941159134646e+01 -7.8190084547911385e+02 +3.9895389368679658e+04 +4.5663145320806876e+06 -2.0138015185780799e+08 
-8.7999999999999847e+00 -1.0318012520058650e+00 +2.3115545079377529e+00 +1.9054953336627644e+01 -7.8071204093160998e+02 +3.8913386797352236e+04 +4.5617618742181687e+06 -1.9760324023421821e+08 
-8.8999999999999844e+00 -1.0318016046364549e+00 +2.3114499117827050e+00 +1.9119292353664491e+01 -7.7930850767573361e+02 +3.7915566760246096e+04 +4.5557398906759974e+06 -1.9373222752339563e+08 
-8.9999999999999840e+00 -1.0318019654234096e+00 +2.3113448982980334e+00 +1.9183654099988889e+01 -7.7774093785032960e+02 +3.6906916212859993e+04 +4.5485487915289365e+06 -1.8978798780807075e+08 
-9.0999999999999837e+00 -1.0318023322242640e+00 +2.3112411408119762e+00 +1.9247734582461707e+01 -7.7606003367998449e+02 +3.5892420053409725e+04 +4.5404888524820060e+06 -1.8579138633166087e+08 
-9.1999999999999833e+00 -1.0318027028974204e+00 +2.3111403129527193e+00 +1.9311229909784945e+01 -7.7431650753132294e+02 +3.4877061422471430e+04 +4.5318604152873838e+06 -1.8176328096561056e+08 
-9.2999999999999829e+00 -1.0318030753023075e+00 +2.3110440886646106e+00 +1.9373836313300938e+01 -7.7256108242320602e+02 +3.3865821303203331e+04 +4.5229638908632891e+06 -1.7772452031405714e+08 
-9.3999999999999826e+00 -1.0318034472993194e+00 +2.3109541422030024e+00 +1.9435250137565397e+01 -7.7084449191326735e+02 +3.2863678718229232e+04 +4.5140997587996107e+06 -1.7369594471367401e+08 
-9.4999999999999822e+00 -1.0318038167500421e+00 +2.3108721481766086e+00 +1.9495167873409628e+01 -7.6921748054874365e+02 +3.1875610172751371e+04 +4.5055685692847325e+06 -1.6969838375463805e+08 
-9.5999999999999819e+00 -1.0318041815788455e+00 +2.3107993057390881e+00 +1.9553363288038220e+01 -7.6771675115430992e+02 +3.0905180997876563e+04 +4.4975928973969175e+06 -1.6574648958372641e+08 
-9.6999999999999815e+00 -1.0318045394469344e+00 +2.3107347114988510e+00 +1.9609905285207027e+01 -7.6631951031153562e+02 +2.9950088177672864e+04 +4.4900714553329265e+06 -1.6182816732832399e+08 
-9.7999999999999812e+00 -1.0318048878421955e+00 +2.3106768775996680e+00 +1.9664937578311768e+01 -7.6498689947187597e+02 +2.9006417083064018e+04 +4.4828170018668436e+06 -1.5792371764802656e+08 
-9.8999999999999808e+00 -1.0318052242517237e+00 +2.3106243159109905e+00 +1.9718603796817309e+01 -7.6368004758807672e+02 +2.8070254434260038e+04 +4.4756422074584113e+06 -1.5401344757008415e+08 
-9.9999999999999805e+00 -1.0318055461616396e+00 +2.3105755381134800e+00 +1.9771047450481614e+01 -7.6236007376432610e+02 +2.7137689116325411e+04 +4.4683596667712862e+06 -1.5007767450587291e+08 
-1.0099999999999980e+01 -1.0318058510571040e+00 +2.3105290556780553e+00 +1.9822411932546427e+01 -7.6098808652846867e+02 +2.6204812112522101e+04 +4.4607818939158749e+06 -1.4609672593085226e+08 
