# multipoles
# s[mm] polynom_b[n=0][T/m^n] polynom_b[n=1][T/m^n] polynom_b[n=2][T/m^n] polynom_b[n=3][T/m^n] polynom_b[n=4][T/m^n] polynom_b[n=5][T/m^n] polynom_b[n=6][T/m^n] 
+0.0000000000000000e+00 -1.0310147484740944e+00 +2.2711371695655820e+00 +1.7218285597346355e+01 +7.7179168767449926e+02 +4.8008094285025094e+04 -4.4003820202591317e+06 -1.6465956762819764e+08 
+1.0000000000000001e-01 -1.0310148253766576e+00 +2.2713333122821346e+00 +1.7262551435836887e+01 +7.6547258864818355e+02 +4.7449247843466226e+04 -4.3561998024245072e+06 -1.6243618549960029e+08 
+2.0000000000000001e-01 -1.0310149213421904e+00 +2.2715083827926246e+00 +1.7305640148276293e+01 +7.5950413629492630e+02 +4.6925579614615846e+04 -4.3136006991400653e+06 -1.6043152065372568e+08 
+3.0000000000000004e-01 -1.0310150446555497e+00 +2.2716637200209093e+00 +1.7348145508781027e+01 +7.5383850208279330e+02 +4.6428414709884011e+04 -4.2723335271562291e+06 -1.5861363749832082e+08 
+4.0000000000000002e-01 -1.0310152036013791e+00 +2.2718006628562581e+00 +1.7390661269753096e+01 +7.4842785847532332e+02 +4.5949078671871255e+04 -4.2321471082833959e+06 -1.5695060266712552e+08 
+5.0000000000000000e-01 -1.0310154064641868e+00 +2.2719205501258215e+00 +1.7433781172683048e+01 +7.4322437973111607e+02 +4.5478897274224146e+04 -4.1927902739328295e+06 -1.5541048411063954e+08 
+5.9999999999999998e-01 -1.0310156595717346e+00 +2.2720248438316468e+00 +1.7477975944639066e+01 +7.3817987998698061e+02 +4.5011008516845854e+04 -4.1540088986444473e+06 -1.5396785865800676e+08 
+6.9999999999999996e-01 -1.0310159614489183e+00 +2.2721154973406317e+00 +1.7523226888823181e+01 +7.3324484328149333e+02 +4.4545732613913038e+04 -4.1155385933735697e+06 -1.5262301421248382e+08 
+7.9999999999999993e-01 -1.0310163086756881e+00 +2.2721945864358242e+00 +1.7569393585719002e+01 +7.2836945156031641e+02 +4.4085169183417071e+04 -4.0771128073273757e+06 -1.5138258790027824e+08 
+8.9999999999999991e-01 -1.0310166978319475e+00 +2.2722641868747955e+00 +1.7616335612634785e+01 +7.2350388732576573e+02 +4.3631417954743803e+04 -4.0384649915358061e+06 -1.5025321767503732e+08 
+9.9999999999999989e-01 -1.0310171254976122e+00 +2.2723263743959223e+00 +1.7663912551739642e+01 +7.1859833340141518e+02 +4.3186578615854640e+04 -3.9993285973059651e+06 -1.4924154159641612e+08 
+1.0999999999999999e+00 -1.0310175882526140e+00 +2.2723832247260498e+00 +1.7711983988590045e+01 +7.1360297265337920e+02 +4.2752750854239472e+04 -3.9594370744253746e+06 -1.4835419805833572e+08 
+1.2000000000000000e+00 -1.0310180826769404e+00 +2.2724368135810940e+00 +1.7760409517923939e+01 +7.0846798796518294e+02 +4.2332034241287191e+04 -3.9185238709811214e+06 -1.4759782522687927e+08 
+1.3000000000000000e+00 -1.0310186053506807e+00 +2.2724892166837911e+00 +1.7809048747887445e+01 +7.0314356163320701e+02 +4.1926528164775365e+04 -3.8763224295626180e+06 -1.4697906075562569e+08 
+1.4000000000000001e+00 -1.0310191528540433e+00 +2.2725425097587602e+00 +1.7857761302133238e+01 +6.9757987549662857e+02 +4.1538331789188116e+04 -3.8325661879621865e+06 -1.4650454159680313e+08 
+1.5000000000000002e+00 -1.0310197217673860e+00 +2.2725987685460227e+00 +1.7906406823124769e+01 +6.9172711049016914e+02 +4.1169543997767716e+04 -3.7869885764028458e+06 -1.4618090374310187e+08 
+1.6000000000000003e+00 -1.0310203086712475e+00 +2.2726600688045631e+00 +1.7954844975307328e+01 +6.8553544649480932e+02 +4.0822263336882213e+04 -3.7393230165210306e+06 -1.4601478197282091e+08 
+1.7000000000000004e+00 -1.0310209101464070e+00 +2.2727284863214625e+00 +1.8002935452001896e+01 +6.7895506202518470e+02 +4.0498587894613600e+04 -3.6893029193901387e+06 -1.4601280930638614e+08 
+1.8000000000000005e+00 -1.0310215227738786e+00 +2.2728060969140480e+00 +1.8050537974495381e+01 +6.7193613413723210e+02 +4.0200615313467351e+04 -3.6366616848829458e+06 -1.4618161704848352e+08 
+1.9000000000000006e+00 -1.0310221431349600e+00 +2.2728949764417892e+00 +1.8097512296980987e+01 +6.6442883801798905e+02 +3.9930442710482144e+04 -3.5811326990853339e+06 -1.4652783445253634e+08 
+2.0000000000000004e+00 -1.0310227678112391e+00 +2.2729972008109702e+00 +1.8143718207657059e+01 +6.5638334682306697e+02 +3.9690166653792519e+04 -3.5224493332483070e+06 -1.4705808860164881e+08 
+2.1000000000000005e+00 -1.0310233933847117e+00 +2.2731148459779011e+00 +1.8189015542391317e+01 +6.4774983152535003e+02 +3.9481882910578170e+04 -3.4603449427314582e+06 -1.4777900323199052e+08 
+2.2000000000000006e+00 -1.0310240164376638e+00 +2.2732499879623078e+00 +1.8233264169215385e+01 +6.3847846048631675e+02 +3.9307686747672684e+04 -3.3945528643727549e+06 -1.4869720017991823e+08 
+2.3000000000000007e+00 -1.0310246335528812e+00 +2.2734047028432269e+00 +1.8276324014720064e+01 +6.2851939954625379e+02 +3.9169672432573403e+04 -3.3248064169170163e+06 -1.4981929701875615e+08 
+2.4000000000000008e+00 -1.0310252413135339e+00 +2.2735810667784828e+00 +1.8318055048477127e+01 +6.1782281137966618e+02 +3.9069933533115633e+04 -3.2508388970195325e+06 -1.5115190849178401e+08 
+2.5000000000000009e+00 -1.0310258363032672e+00 +2.2737811560023879e+00 +1.8358317294408607e+01 +6.0633885556470102e+02 +3.9010562709387319e+04 -3.1723835797350826e+06 -1.5270164556048167e+08 
+2.6000000000000010e+00 -1.0310264153291173e+00 +2.2740063880101600e+00 +1.8396997119498682e+01 +5.9403897078166005e+02 +3.8992555292180899e+04 -3.0893004570373311e+06 -1.5446882279798922e+08 
+2.7000000000000011e+00 -1.0310269760660444e+00 +2.2742554966331392e+00 +1.8434103229918488e+01 +5.8098220334211385e+02 +3.9011921669744974e+04 -3.0019701635388979e+06 -1.5642495175267166e+08 
+2.8000000000000012e+00 -1.0310275164025886e+00 +2.2745265307729232e+00 +1.8469679668730429e+01 +5.6725020258892607e+02 +3.9063263848644419e+04 -2.9109074504560842e+06 -1.5853337031476983e+08 
+2.9000000000000012e+00 -1.0310280342271965e+00 +2.2748175393715160e+00 +1.8503770459175470e+01 +5.5292461821413269e+02 +3.9141184167392632e+04 -2.8166270781258242e+06 -1.6075741747524536e+08 
+3.0000000000000013e+00 -1.0310285274280941e+00 +2.2751265714174500e+00 +1.8536419587531388e+01 +5.3808710016575048e+02 +3.9240285627795056e+04 -2.7196438161500036e+06 -1.6306043487391743e+08 
+3.1000000000000014e+00 -1.0310289938932768e+00 +2.2754516759503631e+00 +1.8567671001083973e+01 +5.2281929868886255e+02 +3.9355171923152033e+04 -2.6204724444750994e+06 -1.6540576685827422e+08 
+3.2000000000000015e+00 -1.0310294315105015e+00 +2.2757909020595952e+00 +1.8597568606250974e+01 +5.0720286454004690e+02 +3.9480447465504592e+04 -2.5196277554425830e+06 -1.6775676054577714e+08 
+3.3000000000000016e+00 -1.0310298381672636e+00 +2.2761422988878297e+00 +1.8626156265736139e+01 +4.9131944903918276e+02 +3.9610717425917406e+04 -2.4176245548707242e+06 -1.7007676593491945e+08 
+3.4000000000000017e+00 -1.0310302117507344e+00 +2.2765039156302116e+00 +1.8653477789174776e+01 +4.7525070426775289e+02 +3.9740587909962538e+04 -2.3149776640350576e+06 -1.7232913668998489e+08 
+3.5000000000000018e+00 -1.0310305501477359e+00 +2.2768738015383048e+00 +1.8679576930562369e+01 +4.5907828311166577e+02 +3.9864665987057808e+04 -2.2122019206838827e+06 -1.7447723018189919e+08 
+3.6000000000000019e+00 -1.0310308512447310e+00 +2.2772500059216441e+00 +1.8704497385105842e+01 +4.4288383939046838e+02 +3.9977559747833548e+04 -2.1098121806213856e+06 -1.7648440771043688e+08 
+3.7000000000000020e+00 -1.0310311129277345e+00 +2.2776305781454855e+00 +1.8728282778008776e+01 +4.2674902809407325e+02 +4.0073878506766763e+04 -2.0083233198961522e+06 -1.7831403539592272e+08 
+3.8000000000000020e+00 -1.0310313330823933e+00 +2.2780135676403637e+00 +1.8750976674124772e+01 +4.1075550525206853e+02 +4.0148232605332829e+04 -1.9082502347856984e+06 -1.7992948316135874e+08 
+3.9000000000000021e+00 -1.0310315095938563e+00 +2.2783970238963387e+00 +1.8772622560571147e+01 +3.9498492828641059e+02 +4.0195233737977731e+04 -1.8101078447073384e+06 -1.8129412622891998e+08 
+4.0000000000000018e+00 -1.0310316403467370e+00 +2.2787789964672283e+00 +1.8793263841689566e+01 +3.7951895604537407e+02 +4.0209495032009560e+04 -1.7144110931834148e+06 -1.8237134540802315e+08 
+4.1000000000000014e+00 -1.0310317232251753e+00 +2.2791575349743769e+00 +1.8812943845685741e+01 +3.6443924885842063e+02 +4.0185630918274510e+04 -1.6216749489676489e+06 -1.8312452643180817e+08 
+4.2000000000000011e+00 -1.0310317561127291e+00 +2.2795306891052407e+00 +1.8831705811483605e+01 +3.4982746875804412e+02 +4.0118257365530233e+04 -1.5324144081646539e+06 -1.8351706098515505e+08 
+4.3000000000000007e+00 -1.0310317368923521e+00 +2.2798965086142107e+00 +1.8849592883675431e+01 +3.3576527959980206e+02 +4.0001991972252683e+04 -1.4471444956680797e+06 -1.8351234708219633e+08 
+4.4000000000000004e+00 -1.0310316634463950e+00 +2.2802530433293109e+00 +1.8866648113731110e+01 +3.2233434705354716e+02 +3.9831453927036710e+04 -1.3663802659784709e+06 -1.8307378879255313e+08 
+4.5000000000000000e+00 -1.0310315336565330e+00 +2.2805983431481605e+00 +1.8882914448918786e+01 +3.0961633880123861e+02 +3.9601264211782422e+04 -1.2906368045289675e+06 -1.8216479710430166e+08 
+4.5999999999999996e+00 -1.0310313469774621e+00 +2.2809307896822686e+00 +1.8898492394885789e+01 +2.9767294106155157e+02 +3.9306690698019433e+04 -1.2202913536735114e+06 -1.8075616295753431e+08 
+4.6999999999999993e+00 -1.0310311091684359e+00 +2.2812503020311556e+00 +1.8913694555223159e+01 +2.8647532574988730e+02 +3.8946739586678275e+04 -1.1551021384895805e+06 -1.7885617297099680e+08 
+4.7999999999999989e+00 -1.0310308275612106e+00 +2.2815572439965650e+00 +1.8928880314127394e+01 +2.7596899459880592e+02 +3.8521696756621022e+04 -1.0946530292244097e+06 -1.7648482114577785e+08 
+4.8999999999999986e+00 -1.0310305094877126e+00 +2.2818519792222811e+00 +1.8944409101281249e+01 +2.6609945111694719e+02 +3.8031847293922525e+04 -1.0385278945791993e+06 -1.7366209856782806e+08 
+4.9999999999999982e+00 -1.0310301622799787e+00 +2.2821348711475919e+00 +1.8960640390299751e+01 +2.5681220256884342e+02 +3.7477475390161882e+04 -9.8631061405663542e+05 -1.7040799257753253e+08 
+5.0999999999999979e+00 -1.0310297932702852e+00 +2.2824062829965213e+00 +1.8977933717207723e+01 +2.4805276010393837e+02 +3.6858863987561061e+04 -9.3758507781035989e+05 -1.6674248511996773e+08 
+5.1999999999999975e+00 -1.0310294097910377e+00 +2.2826665777586976e+00 +1.8996648668223457e+01 +2.3976663914665704e+02 +3.6176295012233561e+04 -8.9193518807232357e+05 -1.6268555390873981e+08 
+5.2999999999999972e+00 -1.0310290191748808e+00 +2.2829161181872935e+00 +1.9017144895022561e+01 +2.3189935927309099e+02 +3.5430049081966776e+04 -8.4894485755752423e+05 -1.5825717107448542e+08 
+5.3999999999999968e+00 -1.0310286287546748e+00 +2.2831552667750068e+00 +1.9039782114904504e+01 +2.2439644475269876e+02 +3.4620405498617598e+04 -8.0819801179138187e+05 -1.5347730317157912e+08 
+5.4999999999999964e+00 -1.0310282458634947e+00 +2.2833843857503324e+00 +1.9064920111424197e+01 +2.1720342446376333e+02 +3.3747642236917323e+04 -7.6927858769933868e+05 -1.4836591117215317e+08 
+5.5999999999999961e+00 -1.0310278778347179e+00 +2.2836038370669525e+00 +1.9092918746940441e+01 +2.1026583203113233e+02 +3.2812035707865631e+04 -7.3177053356487595e+05 -1.4294294939588583e+08 
+5.6999999999999957e+00 -1.0310275320019289e+00 +2.2838139823817962e+00 +1.9124137954079391e+01 +2.0352920631367050e+02 +3.1813860913578355e+04 -6.9525781106181222e+05 -1.3722836627754948e+08 
+5.7999999999999954e+00 -1.0310272156990392e+00 +2.2840151830534330e+00 +1.9158937751468638e+01 +1.9693909124331711e+02 +3.0753391146090224e+04 -6.5932439336220408e+05 -1.3124210297256902e+08 
+5.8999999999999950e+00 -1.0310269362602420e+00 +2.2842078001264507e+00 +1.9197678239793831e+01 +1.9044103612439525e+02 +2.9630898070031984e+04 -6.2355426606330962e+05 -1.2500409382659400e+08 
+5.9999999999999947e+00 -1.0310267010200120e+00 +2.2843921943153700e+00 +1.9240719604239846e+01 +1.8398059593158249e+02 +2.8446651665457615e+04 -5.8753142807967833e+05 -1.1853426611874184e+08 
+6.0999999999999943e+00 -1.0310265173132036e+00 +2.2845687259994425e+00 +1.9288422128835073e+01 +1.7750333128115128e+02 +2.7200919955267575e+04 -5.5083989058958378e+05 -1.1185253881700049e+08 
+6.1999999999999940e+00 -1.0310263924749907e+00 +2.2847377552019967e+00 +1.9341146189705377e+01 +1.7095480885755330e+02 +2.5893969137244101e+04 -5.1306367865128681e+05 -1.0497882326341712e+08 
+6.2999999999999936e+00 -1.0310263338408987e+00 +2.2848996415918887e+00 +1.9399252262167213e+01 +1.6428060118931060e+02 +2.4526063440682785e+04 -4.7378682902092359e+05 -9.7933022519830868e+07 
+6.3999999999999932e+00 -1.0310263487468081e+00 +2.2850547444577343e+00 +1.9463100922390339e+01 +1.5742628725287975e+02 +2.3097465097004140e+04 -4.3259339288100362e+05 -9.0735031282681346e+07 
+6.4999999999999929e+00 -1.0310264445290402e+00 +2.2852034227045346e+00 +1.9533052861078612e+01 +1.5033745244156759e+02 +2.1608434078054273e+04 -3.8906743554038624e+05 -8.3404734743353248e+07 
+6.5999999999999925e+00 -1.0310266268700321e+00 +2.2853458729054252e+00 +1.9609366368559407e+01 +1.4297332668450446e+02 +2.0059741835588928e+04 -3.4289052509242721e+05 -7.5960825997244462e+07 
+6.6999999999999922e+00 -1.0310268944577348e+00 +2.2854814734482911e+00 +1.9691850969182639e+01 +1.3535836768363066e+02 +1.8454093441964167e+04 -2.9420467356192321e+05 -6.8414081691882849e+07 
+6.7999999999999918e+00 -1.0310272441339730e+00 +2.2856093490774247e+00 +1.9780194730817115e+01 +1.2753648511281062e+02 +1.6794600310040452e+04 -2.4328799879974182e+05 -6.0772175799663730e+07 
+6.8999999999999915e+00 -1.0310276727397885e+00 +2.2857286246731694e+00 +1.9874085604773864e+01 +1.1955158607966365e+02 +1.5084376013190569e+04 -1.9041860314770506e+05 -5.3042792733310744e+07 
+6.9999999999999911e+00 -1.0310281771154057e+00 +2.2858384253423356e+00 +1.9973211413772201e+01 +1.1144757065314721e+02 +1.3326536798734136e+04 -1.3587454392875292e+05 -4.5233630619819097e+07 
+7.0999999999999908e+00 -1.0310287541001986e+00 +2.2859378764143532e+00 +2.0077259845844065e+01 +1.0326833201165708e+02 +1.1524201717396994e+04 -7.9933834362879381e+04 -3.7352401957646057e+07 
+7.1999999999999904e+00 -1.0310294005326692e+00 +2.2860261034668943e+00 +2.0185918450896928e+01 +9.5057755684659156e+01 +9.6804926907887220e+03 -2.2874439070361863e+04 -2.9406833948085092e+07 
+7.2999999999999901e+00 -1.0310301132504265e+00 +2.2861022323259257e+00 +2.0298874637268895e+01 +8.6859719566651080e+01 +7.7985345887759131e+03 +3.5025725835160549e+04 -2.1404668902510349e+07 
+7.3999999999999897e+00 -1.0310308890901223e+00 +2.2861653890796458e+00 +2.0415815660647631e+01 +7.8718093521146685e+01 +5.8814554556713829e+03 +9.3488795085308564e+04 -1.3353665363036120e+07 
+7.4999999999999893e+00 -1.0310317248874667e+00 +2.2862147000909672e+00 +2.0536428626070911e+01 +7.0676739011766244e+01 +3.9323864731795429e+03 +1.5223695644987596e+05 -5.2615979349817839e+06 
+7.5999999999999890e+00 -1.0310326174771482e+00 +2.2862492920135367e+00 +2.0660400475899571e+01 +6.2779508659610720e+01 +1.9544622048801536e+03 +2.1099245330219276e+05 +2.8637415013904879e+06 
+7.6999999999999886e+00 -1.0310335636928720e+00 +2.2862682917847152e+00 +2.0787417993530809e+01 +5.5070246436702149e+01 -4.9179468102365647e+01 +2.6947758356149046e+05 +1.1014544075974338e+07 
+7.7999999999999883e+00 -1.0310345603672710e+00 +2.2862708266589311e+00 +2.0917167790468529e+01 +4.7592786718574871e+01 -2.0753970893324636e+03 +3.2741470518683654e+05 +1.9182982664874922e+07 
+7.8999999999999879e+00 -1.0310356043319187e+00 +2.2862560242087375e+00 +2.1049336307403390e+01 +4.0390954247148294e+01 -4.1210456421307372e+03 +3.8452623645596602e+05 +2.7361211941218000e+07 
+7.9999999999999876e+00 -1.0310366924172416e+00 +2.2862230123263481e+00 +2.1183609800462978e+01 +3.3508564096513240e+01 -6.1829762707930613e+03 +4.4053465618485090e+05 +3.5541366998572275e+07 
+8.0999999999999872e+00 -1.0310378214525822e+00 +2.2861709192553010e+00 +2.1319674349383792e+01 +2.6989420763815694e+01 -8.2580364364097186e+03 +4.9516250902246608e+05 +4.3715564086282715e+07 
+8.1999999999999869e+00 -1.0310389882660553e+00 +2.2860988735812304e+00 +2.1457215836477051e+01 +2.0877318436951921e+01 -1.0343069495775448e+04 +5.4813240393904259e+05 +5.1875898545628384e+07 
+8.2999999999999865e+00 -1.0310401896846364e+00 +2.2860060042577222e+00 +2.1595919957864016e+01 +1.5216040247579450e+01 -1.2434914919254699e+04 +5.9916701861378516e+05 +6.0014445852244735e+07 
+8.3999999999999861e+00 -1.0310414225340661e+00 +2.2858914406085300e+00 +2.1735472209116789e+01 +1.0049358226448714e+01 -1.4530407995151849e+04 +6.4798909967167675e+05 +6.8123260140704006e+07 
+8.4999999999999858e+00 -1.0310426836387532e+00 +2.2857543123242570e+00 +2.1875557870836708e+01 +5.4210336813887245e+00 -1.6626379503929642e+04 +6.9432145989559544e+05 +7.6194372490442261e+07 
+8.5999999999999854e+00 -1.0310439689145858e+00 +2.2855944175533378e+00 +2.2015790443970424e+01 +1.3616585818962179e+00 -1.8718534346523626e+04 +7.3794476332361030e+05 +8.4215368120941743e+07 
+8.6999999999999851e+00 -1.0310452710724742e+00 +2.2854142597786966e+00 +2.2155486584052767e+01 -2.1506057739961824e+00 -2.0797926928985940e+04 +7.7886169933453924e+05 +9.2156198806726307e+07 
+8.7999999999999847e+00 -1.0310465821166037e+00 +2.2852170303018946e+00 +2.2293884156034157e+01 -5.1505911000963911e+00 -2.2854375589095736e+04 +8.1712702381017280e+05 +9.9982324991533205e+07 
+8.8999999999999844e+00 -1.0310478940524355e+00 +2.2850059209094122e+00 +2.2430221091676728e+01 -7.6731400507261585e+00 -2.4877699731493700e+04 +8.5279553399198409e+05 +1.0765921390928203e+08 
+8.9999999999999840e+00 -1.0310491988866972e+00 +2.2847841238915865e+00 +2.2563735388551066e+01 -9.7531077828522506e+00 -2.6857719705546915e+04 +8.8592208453881019e+05 +1.1515233826922286e+08 
+9.0999999999999837e+00 -1.0310504886274652e+00 +2.2845548320478133e+00 +2.2693665118654859e+01 -1.1425362032742864e+01 -2.8784256968239337e+04 +9.1656158747564862e+05 +1.2242717708787775e+08 
+9.1999999999999833e+00 -1.0310517552841516e+00 +2.2843212387025855e+00 +2.2819248422367018e+01 -1.2724783510267864e+01 -3.0647133950670250e+04 +9.4476901394583296e+05 +1.2944921506011118e+08 
+9.2999999999999829e+00 -1.0310529908676322e+00 +2.2840865377203312e+00 +2.2939723525130464e+01 -1.3686266258038243e+01 -3.2436174384474674e+04 +9.7059939581019164e+05 +1.3618394419044495e+08 
+9.3999999999999826e+00 -1.0310541873902217e+00 +2.2838539235110806e+00 +2.3054328728835035e+01 -1.4344717743536833e+01 -3.4141203118352525e+04 +9.9410782565837982e+05 +1.4259686292950115e+08 
+9.4999999999999822e+00 -1.0310553368657207e+00 +2.2836265910542726e+00 +2.3162302417484362e+01 -1.4735059474495891e+01 -3.5752046226532308e+04 +1.0153494598583286e+06 +1.4865347674472988e+08 
+9.5999999999999819e+00 -1.0310564313095183e+00 +2.2834077358984382e+00 +2.3262883066392678e+01 -1.4892226921978651e+01 -3.7258531176121396e+04 +1.0343795176150724e+06 +1.5431929895598599e+08 
+9.6999999999999815e+00 -1.0310574627385687e+00 +2.2832005541851919e+00 +2.3355309237611575e+01 -1.4851170136489465e+01 -3.8650486733553334e+04 +1.0512532840046482e+06 +1.5955985032809210e+08 
+9.7999999999999812e+00 -1.0310584231714532e+00 +2.2830082426523117e+00 +2.3438819584082143e+01 -1.4646853774000709e+01 -3.9917743031032405e+04 +1.0660261096473937e+06 +1.6434065941012219e+08 
+9.8999999999999808e+00 -1.0310593046284828e+00 +2.2828339986518777e+00 +2.3512652861713306e+01 -1.4314257546958162e+01 -4.1050131801715856e+04 +1.0787534127928894e+06 +1.6862726372777212e+08 
+9.9999999999999805e+00 -1.0310600991316181e+00 +2.2826810201634631e+00 +2.3576047915234518e+01 -1.3888376525280330e+01 -4.2037486092060710e+04 +1.0894906805339416e+06 +1.7238520841965079e+08 
+1.0099999999999980e+01 -1.0310607987046558e+00 +2.2825525057989675e+00 +2.3628243700665049e+01 -1.3404221224282463e+01 -4.2869640693040783e+04 +1.0982934688607124e+06 +1.7558004835741550e+08 
