# multipoles
# s[mm] polynom_b[n=0][T/m^n] polynom_b[n=1][T/m^n] polynom_b[n=2][T/m^n] polynom_b[n=3][T/m^n] polynom_b[n=4][T/m^n] polynom_b[n=5][T/m^n] polynom_b[n=6][T/m^n] 
+0.0000000000000000e+00 -1.0331207570505987e+00 +2.2928279464759584e+00 +1.6908374481183223e+01 -4.1142038897546989e+01 +4.9595504282819398e+04 +1.1113265901584087e+06 -2.2168234251582438e+08 
-1.0000000000000001e-01 -1.0331234016561437e+00 +2.2931443920311985e+00 +1.6993299397441110e+01 -4.5769100909670911e+01 +4.8205013146133526e+04 +1.1309982850362787e+06 -2.1521600842755651e+08 
-2.0000000000000001e-01 -1.0331259958926577e+00 +2.2934493393581548e+00 +1.7072050440065819e+01 -5.0280901228365117e+01 +4.6918854906422661e+04 +1.1504018926703802e+06 -2.0916079628909871e+08 
-3.0000000000000004e-01 -1.0331285353637263e+00 +2.2937412873210863e+00 +1.7144292452123238e+01 -5.4652296427732431e+01 +4.5741750958265067e+04 +1.1694569853894096e+06 -2.0353694884200031e+08 
-4.0000000000000002e-01 -1.0331310156728957e+00 +2.2940187348760470e+00 +1.7209690283519112e+01 -5.8858146207385019e+01 +4.4678422460760747e+04 +1.1880831546831038e+06 -1.9836470737805527e+08 
-5.0000000000000000e-01 -1.0331334324236410e+00 +2.2942801810780393e+00 +1.7267908787262922e+01 -6.2873313551355274e+01 +4.3733590406680829e+04 +1.2062000120030339e+06 -1.9366431207146555e+08 
-5.9999999999999998e-01 -1.0331357812193989e+00 +2.2945241250862405e+00 +1.7318612826036400e+01 -6.6672664821713596e+01 +4.2911975474202423e+04 +1.2237271891622175e+06 -1.8945600121215749e+08 
-6.9999999999999996e-01 -1.0331380576634794e+00 +2.2947490661607697e+00 +1.7361467261222355e+01 -7.0231069632030838e+01 +4.2218298231348374e+04 +1.2405843375333678e+06 -1.8576001217286453e+08 
-7.9999999999999993e-01 -1.0331402573591404e+00 +2.2949535036741695e+00 +1.7396136964269452e+01 -7.3523401131694939e+01 +4.1657278903373081e+04 +1.2566911295819327e+06 -1.8259658026407295e+08 
-8.9999999999999991e-01 -1.0331423759095024e+00 +2.2951359371090034e+00 +1.7422286806784296e+01 -7.6524535885354553e+01 +4.1233637551846790e+04 +1.2719672580399935e+06 -1.7998593956512865e+08 
-9.9999999999999989e-01 -1.0331444089175590e+00 +2.2952948660617079e+00 +1.7439581664035696e+01 -7.9209353942727006e+01 +4.0952093985179417e+04 +1.2863324362188438e+06 -1.7794832243954262e+08 
-1.0999999999999999e+00 -1.0331463519862134e+00 +2.2954287902514410e+00 +1.7447686419277105e+01 -8.1552739046413464e+01 +4.0817367679377043e+04 +1.2997063990986475e+06 -1.7650395917319271e+08 
-1.2000000000000000e+00 -1.0331482007181423e+00 +2.2955362095128784e+00 +1.7446265949869218e+01 -8.3529578372531958e+01 +4.0834178015481892e+04 +1.3120089016956186e+06 -1.7567307903760228e+08 
-1.3000000000000000e+00 -1.0331499507159307e+00 +2.2956156238159320e+00 +1.7434985143589817e+01 -8.5114763079206142e+01 +4.1007243964728972e+04 +1.3231597222124191e+06 -1.7547590878163862e+08 
-1.4000000000000001e+00 -1.0331515975819323e+00 +2.2956655332522975e+00 +1.7413508883504402e+01 -8.6283187836567961e+01 +4.1341284361429243e+04 +1.3330786590940012e+06 -1.7593267389733410e+08 
-1.5000000000000002e+00 -1.0331531369183573e+00 +2.2956844380465613e+00 +1.7381502060511846e+01 -8.7009751109585977e+01 +4.1841017648427980e+04 +1.3416855325676398e+06 -1.7706359737103480e+08 
-1.6000000000000003e+00 -1.0331545660845938e+00 +2.2956715452754350e+00 +1.7338829988971128e+01 -8.7279872687515464e+01 +4.2508022995915344e+04 +1.3489304788342752e+06 -1.7887604507429296e+08 
-1.7000000000000004e+00 -1.0331558894555075e+00 +2.2956288589064289e+00 +1.7286144640542922e+01 -8.7120919139883384e+01 +4.3331558553960087e+04 +1.3548858973213106e+06 -1.8132672484876466e+08 
-1.8000000000000005e+00 -1.0331571131569941e+00 +2.2955590748149675e+00 +1.7224291015907887e+01 -8.6570708541191081e+01 +4.4297859071444298e+04 +1.3596549569121723e+06 -1.8435986329865691e+08 
-1.9000000000000006e+00 -1.0331582433149398e+00 +2.2954648888493518e+00 +1.7154114110616771e+01 -8.5667057720610487e+01 +4.5393159443575416e+04 +1.3633408177602945e+06 -1.8791968787803507e+08 
-2.0000000000000004e+00 -1.0331592860552181e+00 +2.2953489968106946e+00 +1.7076458911911690e+01 -8.4447781614169358e+01 +4.6603694797722237e+04 +1.3660466273433492e+06 -1.9195042737414613e+08 
-2.1000000000000005e+00 -1.0331602475038111e+00 +2.2952140944348347e+00 +1.6992170411107669e+01 -8.2950692674711874e+01 +4.7915700288955144e+04 +1.3678755168648132e+06 -1.9639631102381605e+08 
-2.2000000000000006e+00 -1.0331611337866189e+00 +2.2950628773749928e+00 +1.6902093576458643e+01 -8.1213600293632851e+01 +4.9315411643412437e+04 +1.3689305976589329e+06 -2.0120157117372671e+08 
-2.3000000000000007e+00 -1.0331619510296692e+00 +2.2948980411791258e+00 +1.6807073376431127e+01 -7.9274310066939975e+01 +5.0789064747564138e+04 +1.3693149567263545e+06 -2.0631044141829318e+08 
-2.4000000000000008e+00 -1.0331627053590566e+00 +2.2947222812836534e+00 +1.6707954769486829e+01 -7.7170623542919529e+01 +5.2322895867701191e+04 +1.3691316550494393e+06 -2.1166715771477568e+08 
-2.5000000000000009e+00 -1.0331634029009324e+00 +2.2945382929763558e+00 +1.6605582699522628e+01 -7.4940337075558617e+01 +5.3903141769910268e+04 +1.3684837207408168e+06 -2.1721595905101311e+08 
-2.6000000000000010e+00 -1.0331640497815844e+00 +2.2943487713953270e+00 +1.6500802102279522e+01 -7.2621241720823974e+01 +5.5516039629101317e+04 +1.3674741482229233e+06 -2.2290108709589925e+08 
-2.7000000000000011e+00 -1.0331646521273936e+00 +2.2941564115015729e+00 +1.6394457898396730e+01 -7.0251122364300059e+01 +5.7147827182340952e+04 +1.3662058929440349e+06 -2.2866678699389037e+08 
-2.8000000000000012e+00 -1.0331652160648888e+00 +2.2939639080623917e+00 +1.6287394996130313e+01 -6.7867757169836693e+01 +5.8784742713450702e+04 +1.3647818679727912e+06 -2.3445730739231542e+08 
-2.9000000000000012e+00 -1.0331657477207328e+00 +2.2937739556359382e+00 +1.6180458286512305e+01 -6.5508917069517892e+01 +6.0413025174813883e+04 +1.3633049408590002e+06 -2.4021690110542145e+08 
-3.0000000000000013e+00 -1.0331662532217611e+00 +2.2935892485450808e+00 +1.6074492646147430e+01 -6.3212364908313795e+01 +6.2018914157734522e+04 +1.3618779283811590e+06 -2.4588982504120749e+08 
-3.1000000000000014e+00 -1.0331667386950083e+00 +2.2934124808685104e+00 +1.5970342936759350e+01 -6.1015855134226193e+01 +6.3588649934667279e+04 +1.3606035946044317e+06 -2.5142034049707603e+08 
-3.2000000000000015e+00 -1.0331672102676719e+00 +2.2932463464151231e+00 +1.5868853997760390e+01 -5.8957132985844979e+01 +6.5108473630829147e+04 +1.3595846459608686e+06 -2.5675271406295192e+08 
-3.3000000000000016e+00 -1.0331676740672051e+00 +2.2930935387125113e+00 +1.5770870655268778e+01 -5.7073934063932207e+01 +6.6564627077301993e+04 +1.3589237284841225e+06 -2.6183121699173909e+08 
-3.4000000000000017e+00 -1.0331681362212535e+00 +2.2929567509813320e+00 +1.5677237710813978e+01 -5.5403983529332073e+01 +6.7943353059343863e+04 +1.3587234229846837e+06 -2.6660012647646880e+08 
-3.5000000000000018e+00 -1.0331686028576919e+00 +2.2928386761107373e+00 +1.5588799941562206e+01 -5.3984995419966971e+01 +6.9230895341287003e+04 +1.3590862414996794e+06 -2.7100372581276745e+08 
-3.6000000000000019e+00 -1.0331690788510888e+00 +2.2927412771914804e+00 +1.5506209219275942e+01 -5.2843080415969396e+01 +7.0416746900257553e+04 +1.3600761142512173e+06 -2.7499963948218250e+08 
-3.7000000000000020e+00 -1.0331695643881538e+00 +2.2926636901029895e+00 +1.5429423236349377e+01 -5.1958772473442565e+01 +7.1501959447263478e+04 +1.3615998694220178e+06 -2.7859251245437098e+08 
-3.8000000000000020e+00 -1.0331700585569152e+00 +2.2926043632136994e+00 +1.5358244095296794e+01 -5.1301350160035803e+01 +7.2490140890900191e+04 +1.3635241175241398e+06 -2.8179727046574521e+08 
-3.9000000000000021e+00 -1.0331705604452890e+00 +2.2925617449179256e+00 +1.5292473890561032e+01 -5.0840093336045086e+01 +7.3384899195296181e+04 +1.3657154796606509e+06 -2.8462883909519804e+08 
-4.0000000000000018e+00 -1.0331710691410156e+00 +2.2925342836576119e+00 +1.5231914701020498e+01 -5.0544283853587828e+01 +7.4189842514076794e+04 +1.3680405919466561e+06 -2.8710214437448430e+08 
-4.1000000000000014e+00 -1.0331715837316982e+00 +2.2925204279189670e+00 +1.5176368596571697e+01 -5.0383205546568746e+01 +7.4908579041903620e+04 +1.3703661058181215e+06 -2.8923211200265181e+08 
-4.2000000000000011e+00 -1.0331721033048014e+00 +2.2925186262485147e+00 +1.5125637639327513e+01 -5.0326144786182894e+01 +7.5544716979943245e+04 +1.3725586916133692e+06 -2.9103366714225984e+08 
-4.3000000000000007e+00 -1.0331726269475952e+00 +2.2925273272551898e+00 +1.5079523877644673e+01 -5.0342390603562791e+01 +7.6101864633574573e+04 +1.3744850395830912e+06 -2.9252173482861924e+08 
-4.4000000000000004e+00 -1.0331731537471847e+00 +2.2925449796299082e+00 +1.5037829351307385e+01 -5.0401235350209241e+01 +7.6583630296355084e+04 +1.3760118640988751e+06 -2.9371123935648352e+08 
-4.5000000000000000e+00 -1.0331736827904758e+00 +2.2925700321376450e+00 +1.5000356088456375e+01 -5.0471974535959021e+01 +7.6993622291543448e+04 +1.3770059030118403e+06 -2.9461710442084426e+08 
-4.5999999999999996e+00 -1.0331742131641273e+00 +2.2926009336387736e+00 +1.4966906100895530e+01 -5.0523907543228674e+01 +7.7335449049859453e+04 +1.3773339221916082e+06 -2.9525425344724470e+08 
-4.6999999999999993e+00 -1.0331747439546712e+00 +2.2926361330922882e+00 +1.4937281400812109e+01 -5.0526337787862339e+01 +7.7612718767912753e+04 +1.3768627167574379e+06 -2.9563760788577878e+08 
-4.7999999999999989e+00 -1.0331752742483209e+00 +2.2926740795652942e+00 +1.4911283977486690e+01 -5.0448573071279519e+01 +7.7829039843353559e+04 +1.3754591134496122e+06 -2.9578208925321269e+08 
-4.8999999999999986e+00 -1.0331758031311087e+00 +2.2927132222451272e+00 +1.4888715816380245e+01 -5.0259926034706716e+01 +7.7988020490958617e+04 +1.3729899736901820e+06 -2.9570261723585385e+08 
-4.9999999999999982e+00 -1.0331763296887724e+00 +2.2927520104329702e+00 +1.4869378885578369e+01 -4.9929714022356670e+01 +7.8093268987354590e+04 +1.3693221930107945e+06 -2.9541411080728972e+08 
-5.0999999999999979e+00 -1.0331768530068375e+00 +2.2927888935783303e+00 +1.4853075148984066e+01 -4.9427260177062877e+01 +7.8148393394200612e+04 +1.3643227078190104e+06 -2.9493148682706094e+08 
-5.1999999999999975e+00 -1.0331773721705231e+00 +2.2928223212565135e+00 +1.4839606553107510e+01 -4.8721892881616789e+01 +7.8157001813564522e+04 +1.3578584925288670e+06 -2.9426966126027477e+08 
-5.2999999999999972e+00 -1.0331778862647607e+00 +2.2928507432057135e+00 +1.4828775033710999e+01 -4.7782946873167603e+01 +7.8122702224146720e+04 +1.3497965662535781e+06 -2.9344354828077221e+08 
-5.3999999999999968e+00 -1.0331783943742041e+00 +2.2928726093147156e+00 +1.4820382515977389e+01 -4.6579763017266238e+01 +7.8049102476628250e+04 +1.3400039919732455e+06 -2.9246806023489362e+08 
-5.4999999999999964e+00 -1.0331788955832706e+00 +2.2928863696655566e+00 +1.4814230926444324e+01 -4.5081689707482148e+01 +7.7939809995438482e+04 +1.3283478842925229e+06 -2.9135810608413625e+08 
-5.5999999999999961e+00 -1.0331793893400985e+00 +2.2928908311092933e+00 +1.4810126802734706e+01 -4.3267621848940259e+01 +7.7798292472727597e+04 +1.3147439486843226e+06 -2.9012804305793643e+08 
-5.6999999999999957e+00 -1.0331798762277931e+00 +2.2928862576707378e+00 +1.4807825143139778e+01 -4.1154839003515733e+01 +7.7629031072565471e+04 +1.2993054519687444e+06 -2.8879791794302273e+08 
-5.7999999999999954e+00 -1.0331803570402494e+00 +2.2928732925329864e+00 +1.4807051395800562e+01 -3.8770503734065066e+01 +7.7437135467345826e+04 +1.2821971834422841e+06 -2.8739109502884698e+08 
-5.8999999999999950e+00 -1.0331808325715039e+00 +2.2928525789255310e+00 +1.4807531026289134e+01 -3.6141780211866582e+01 +7.7227715131138204e+04 +1.2635839425854771e+06 -2.8593093832822406e+08 
-5.9999999999999947e+00 -1.0331813036157060e+00 +2.2928247601140788e+00 +1.4808989518402241e+01 -3.3295833802097469e+01 +7.7005879292797428e+04 +1.2436305360768333e+06 -2.8444081125562859e+08 
-6.0999999999999943e+00 -1.0331817709671547e+00 +2.2927904793995930e+00 +1.4811152377745630e+01 -3.0259831055826012e+01 +7.6776736877141739e+04 +1.2225017777523121e+06 -2.8294407638820654e+08 
-6.1999999999999940e+00 -1.0331822354202953e+00 +2.2927503801214053e+00 +1.4813745131528417e+01 -2.7060939774231969e+01 +7.6545396515880377e+04 +1.2003624888596253e+06 -2.8146409555258137e+08 
-6.2999999999999936e+00 -1.0331826977697116e+00 +2.2927051056555787e+00 +1.4816493328115508e+01 -2.3726328966791090e+01 +7.6316966558286818e+04 +1.1773774977657804e+06 -2.8002422989789444e+08 
-6.3999999999999932e+00 -1.0331831588102085e+00 +2.2926552994194824e+00 +1.4819122547468016e+01 -2.0283168992929749e+01 +7.6096554877333241e+04 +1.1537116407655671e+06 -2.7864783899892139e+08 
-6.4999999999999929e+00 -1.0331836193366923e+00 +2.2926016048691218e+00 +1.4821358385819362e+01 -1.6758631463290804e+01 +7.5889269172381391e+04 +1.1295297613914770e+06 -2.7735828234892124e+08 
-6.5999999999999925e+00 -1.0331840801443188e+00 +2.2925446655071564e+00 +1.4822926474769135e+01 -1.3179889481377762e+01 +7.5700216603877750e+04 +1.1049967117917053e+06 -2.7617891762474644e+08 
-6.6999999999999922e+00 -1.0331845420283863e+00 +2.2924851248792342e+00 +1.4823552467615926e+01 -9.5741175332504564e+00 +7.5534504064709807e+04 +1.0802773520307622e+06 -2.7513310202724826e+08 
-6.7999999999999918e+00 -1.0331850057844276e+00 +2.2924236265743039e+00 +1.4822962051934509e+01 -5.9684914881995006e+00 +7.5397237941705665e+04 +1.0555365500066967e+06 -2.7424419116593707e+08 
-6.8999999999999915e+00 -1.0331854722081655e+00 +2.2923608142294700e+00 +1.4820880942727628e+01 -2.3901887406554740e+00 +7.5293524253920812e+04 +1.0309391822460326e+06 -2.7353553975097996e+08 
-6.9999999999999911e+00 -1.0331859420955447e+00 +2.2922973315295794e+00 +1.4817034887582485e+01 +1.1336118037387342e+00 +7.5228468562055030e+04 +1.0066501337420359e+06 -2.7303050120269156e+08 
-7.0999999999999908e+00 -1.0331864162427622e+00 +2.2922338222121179e+00 +1.4811149670356137e+01 +4.5757295853613735e+00 +7.5207175896532368e+04 +9.8283429875525134e+05 -2.7275242731431371e+08 
-7.1999999999999904e+00 -1.0331868954461785e+00 +2.2921709300596400e+00 +1.4802951100111288e+01 +7.9089826278229332e+00 +7.5234750979265475e+04 +9.5965657932375860e+05 -2.7272466935809916e+08 
-7.2999999999999901e+00 -1.0331873805024949e+00 +2.2921092989131790e+00 +1.4792165033023476e+01 +1.1106187129433735e+01 +7.5316297815100799e+04 +9.3728188764240511e+05 -2.7297057617948568e+08 
-7.3999999999999897e+00 -1.0331878722085808e+00 +2.2920495726643968e+00 +1.4778517352225350e+01 +1.4140157715241710e+01 +7.5456920067783023e+04 +9.1587514447592432e+05 -2.7351349597732443e+08 
-7.4999999999999893e+00 -1.0331883713616072e+00 +2.2919923952499652e+00 +1.4761733982409236e+01 +1.6983708183974631e+01 +7.5661720888903976e+04 +8.9560127504707419e+05 -2.7437677569987631e+08 
-7.5999999999999890e+00 -1.0331888792242385e+00 +2.2919383189633051e+00 +1.4741653315613146e+01 +1.9615933393497905e+01 +7.5933913584887821e+04 +8.7658375358720717e+05 -2.7557540520183545e+08 
-7.6999999999999886e+00 -1.0331893989516507e+00 +2.2918873536742286e+00 +1.4718578502255244e+01 +2.2043781882680449e+01 +7.6268450470381169e+04 +8.5876577909990773e+05 -2.7708649864436638e+08 
-7.7999999999999883e+00 -1.0331899341873028e+00 +2.2918393227162372e+00 +1.4692934733262831e+01 +2.4282178533282934e+01 +7.6658002947742134e+04 +8.4203973212695878e+05 -2.7887638078915459e+08 
-7.8999999999999879e+00 -1.0331904885745384e+00 +2.2917940491956430e+00 +1.4665147178221623e+01 +2.6346055577032764e+01 +7.7095242798259438e+04 +8.2629794510531460e+05 -2.8091137781752157e+08 
-7.9999999999999876e+00 -1.0331910657565395e+00 +2.2917513560399256e+00 +1.4635640972657368e+01 +2.8250350719533191e+01 +7.7572842522978535e+04 +8.1143271526816674e+05 -2.8315781933043355e+08 
-8.0999999999999872e+00 -1.0331916693762426e+00 +2.2917110659907993e+00 +1.4604841206422465e+01 +3.0010007357617326e+01 +7.8083475569627815e+04 +7.9733630323201953e+05 -2.8558203943671298e+08 
-8.1999999999999869e+00 -1.0331923030764654e+00 +2.2916730015988707e+00 +1.4573172940043566e+01 +3.1639974750834838e+01 +7.8619816019691687e+04 +7.8390093188346224e+05 -2.8815037525268042e+08 
-8.2999999999999865e+00 -1.0331929704998042e+00 +2.2916369852208005e+00 +1.4541061190354128e+01 +3.3155208114381921e+01 +7.9174538865774943e+04 +7.7101878568246961e+05 -2.9082916822062147e+08 
-8.3999999999999861e+00 -1.0331936752886224e+00 +2.2916028390034464e+00 +1.4508930928993664e+01 +3.4570669090453066e+01 +7.9740320040415056e+04 +7.5858200782536436e+05 -2.9358476423904938e+08 
-8.4999999999999858e+00 -1.0331944210851149e+00 +2.2915703848926654e+00 +1.4477207090108738e+01 +3.5901325517408388e+01 +8.0309836270873537e+04 +7.4648270140266581e+05 -2.9638351296938318e+08 
-8.5999999999999854e+00 -1.0331952115312695e+00 +2.2915394446179480e+00 +1.4446314565279271e+01 +3.7162151879759236e+01 +8.0875765171837891e+04 +7.3461292669292027e+05 -2.9919176825189978e+08 
-8.6999999999999851e+00 -1.0331960502688260e+00 +2.2915098396848181e+00 +1.4416678197343181e+01 +3.8368129550518184e+01 +8.1430785373684048e+04 +7.2286469959263981e+05 -3.0197588874383885e+08 
-8.7999999999999847e+00 -1.0331969409392940e+00 +2.2914813913767249e+00 +1.4388722782128864e+01 +3.9534246737786219e+01 +8.1967576485196361e+04 +7.1112999182222376e+05 -3.0470223771652973e+08 
-8.8999999999999844e+00 -1.0331978871839733e+00 +2.2914539207444871e+00 +1.4362873071205593e+01 +4.0675498816485906e+01 +8.2478819041776718e+04 +6.9930072884479444e+05 -3.0733718280399257e+08 
-8.9999999999999840e+00 -1.0331988926439168e+00 +2.2914272485988656e+00 +1.4339553766201334e+01 +4.1806888559840466e+01 +8.2957194617349116e+04 +6.8726878837231034e+05 -3.0984709653661424e+08 
-9.0999999999999837e+00 -1.0331999609599360e+00 +2.2914011955061779e+00 +1.4319189519303940e+01 +4.2943426268006128e+01 +8.3395385813092347e+04 +6.7492599952448276e+05 -3.1219835627451068e+08 
-9.1999999999999833e+00 -1.0332010957725701e+00 +2.2913755817879005e+00 +1.4302204928344080e+01 +4.4100129806517010e+01 +8.3786076358105958e+04 +6.6216414243561111e+05 -3.1435734469635201e+08 
-9.2999999999999829e+00 -1.0332023007221518e+00 +2.2913502275050988e+00 +1.4289024545588598e+01 +4.5292025061792074e+01 +8.4121950934261811e+04 +6.4887494549742411e+05 -3.1629044893678284e+08 
-9.3999999999999826e+00 -1.0332035794486831e+00 +2.2913249524592985e+00 +1.4280072860861374e+01 +4.6534145936342235e+01 +8.4395695505276904e+04 +6.3495008524568169e+05 -3.1796406216474152e+08 
-9.4999999999999822e+00 -1.0332049355918587e+00 +2.2912995761548745e+00 +1.4275774298822903e+01 +4.7841534929006507e+01 +8.4599997345912896e+04 +6.2028118407329556e+05 -3.1934458362259144e+08 
-9.5999999999999819e+00 -1.0332063720483142e+00 +2.2912738451169639e+00 +1.4276470520785045e+01 +4.9228809779913099e+01 +8.4728924912516173e+04 +6.0476625461622083e+05 -3.2040426662149966e+08 
-9.6999999999999815e+00 -1.0332078887807330e+00 +2.2912473103372974e+00 +1.4282184698077572e+01 +5.0707282266843258e+01 +8.4782034596292506e+04 +5.8833269246087968e+05 -3.2113904018308914e+08 
-9.7999999999999812e+00 -1.0332094850037807e+00 +2.2912194997467719e+00 +1.4292859412129802e+01 +5.2286891562704994e+01 +8.4760327712517814e+04 +5.7091700628687930e+05 -3.2155119546579540e+08 
-9.8999999999999808e+00 -1.0332111599314673e+00 +2.2911899415473349e+00 +1.4308437149005718e+01 +5.3977565893383094e+01 +8.4664807686956541e+04 +5.5245577579520899e+05 -3.2164303435520941e+08 
-9.9999999999999805e+00 -1.0332129127773648e+00 +2.2911581641538490e+00 +1.4328860335380952e+01 +5.5789224441235156e+01 +8.4496479255651662e+04 +5.3288564325840841e+05 -3.2141686558073449e+08 
-1.0099999999999980e+01 -1.0332147427545275e+00 +2.2911236962131043e+00 +1.4354071327800490e+01 +5.7731776693842001e+01 +8.4256348685762976e+04 +5.1214331765231659e+05 -3.2087500581753391e+08 
