# multipoles
# s[mm] polynom_b[n=0][T/m^n] polynom_b[n=1][T/m^n] polynom_b[n=2][T/m^n] polynom_b[n=3][T/m^n] polynom_b[n=4][T/m^n] polynom_b[n=5][T/m^n] polynom_b[n=6][T/m^n] 
+0.0000000000000000e+00 -1.0352343545056730e+00 +2.2857625425294628e+00 +2.4987084445074540e+01 +1.9746871504292966e+02 -1.1326923954186626e+05 -3.8167499146690837e+05 +5.9675000056824863e+08 
+1.0000000000000001e-01 -1.0352355583778561e+00 +2.2853908069035462e+00 +2.4980936462969982e+01 +2.0284108536009794e+02 -1.1352055641104013e+05 -4.2028209741351876e+05 +5.9829257779433751e+08 
+2.0000000000000001e-01 -1.0352366485164366e+00 +2.2850126480962358e+00 +2.4966383112587366e+01 +2.0854191701158084e+02 -1.1365775313943569e+05 -4.6051098851281678e+05 +5.9938389239825201e+08 
+3.0000000000000004e-01 -1.0352376133468784e+00 +2.2846273964939865e+00 +2.4942664255278874e+01 +2.1459638106418521e+02 -1.1366818082888037e+05 -5.0239318316436838e+05 +5.9996950085918987e+08 
+4.0000000000000002e-01 -1.0352384412946631e+00 +2.2842343825644926e+00 +2.4909019757711985e+01 +2.2102964684010564e+02 -1.1353919084434761e+05 -5.4596019174695946e+05 +5.9999496152699339e+08 
+5.0000000000000000e-01 -1.0352391207853149e+00 +2.2838329368742656e+00 +2.4864689496919738e+01 +2.2786688137141908e+02 -1.1325813495587726e+05 -5.9124351328502141e+05 +5.9940583545616972e+08 
+5.9999999999999998e-01 -1.0352396443577858e+00 +2.2834228097785769e+00 +2.4809152156398095e+01 +2.3511960366272925e+02 -1.1281574995530707e+05 -6.3822022649027861e+05 +5.9816128984398854e+08 
+6.9999999999999996e-01 -1.0352400210157386e+00 +2.2830054337522268e+00 +2.4742840581589761e+01 +2.4274462166792296e+02 -1.1221625850533567e+05 -6.8664895349860890e+05 +5.9627472701025152e+08 
+7.9999999999999993e-01 -1.0352402638820408e+00 +2.2825826626843568e+00 +2.4666425934932150e+01 +2.5068503210757058e+02 -1.1146724227447469e+05 -7.3623349633937527e+05 +5.9377306694670963e+08 
+8.9999999999999991e-01 -1.0352403860797030e+00 +2.2821563505211100e+00 +2.4580579399899797e+01 +2.5888393000046165e+02 -1.1057628347550356e+05 -7.8667764699537354e+05 +5.9068323276244473e+08 
+9.9999999999999989e-01 -1.0352404007318594e+00 +2.2817283512706781e+00 +2.4485972177770442e+01 +2.6728440837899251e+02 -1.0955096478630406e+05 -8.3768518526243023e+05 +5.8703215024111891e+08 
+1.0999999999999999e+00 -1.0352403209618630e+00 +2.2813005189789215e+00 +2.4383275499511292e+01 +2.7582955882708171e+02 -1.0839886956245353e+05 -8.8895988130924955e+05 +5.8284674879523170e+08 
+1.2000000000000000e+00 -1.0352401598932279e+00 +2.2808747077356455e+00 +2.4273160617818622e+01 +2.8446247114530178e+02 -1.0712758166715881e+05 -9.4020549320657167e+05 +5.7815396058690691e+08 
+1.3000000000000000e+00 -1.0352399306496740e+00 +2.2804527716558365e+00 +2.4156298811348325e+01 +2.9312623374955359e+02 -1.0574468553260759e+05 -9.9112576875515655e+05 +5.7298072074970651e+08 
+1.4000000000000001e+00 -1.0352396463552302e+00 +2.2800365648789578e+00 +2.4033361398965468e+01 +3.0176393353217816e+02 -1.0425776642505260e+05 -1.0414244441267896e+06 +5.6735396861481893e+08 
+1.5000000000000002e+00 -1.0352393201341277e+00 +2.2796279415517744e+00 +2.3905019724010959e+01 +3.1031865620123358e+02 -1.0267441011900721e+05 -1.0908052453076662e+06 +5.6130064606897104e+08 
+1.6000000000000003e+00 -1.0352389651109000e+00 +2.2792287558339641e+00 +2.3771945167564819e+01 +3.1873348596018747e+02 -1.0100220313774011e+05 -1.1389718856961946e+06 +5.5484769864789450e+08 
+1.7000000000000004e+00 -1.0352385944103588e+00 +2.2788408618754543e+00 +2.3634809144310708e+01 +3.2695150603183129e+02 -9.9248732660450958e+04 -1.1856280686876413e+06 +5.4802207503587675e+08 
+1.8000000000000005e+00 -1.0352382211576898e+00 +2.2784661138174878e+00 +2.3494283114062949e+01 +3.3491579843976450e+02 -9.7421586722139531e+04 -1.2304774857804822e+06 +5.4085072794881308e+08 
+1.9000000000000006e+00 -1.0352378584783717e+00 +2.2781063657791831e+00 +2.3351038571137249e+01 +3.4256944428241655e+02 -9.5528353995879865e+04 -1.2732238177570901e+06 +5.3336061303247947e+08 
+2.0000000000000004e+00 -1.0352375194983119e+00 +2.2777634718519475e+00 +2.3205747061300077e+01 +3.4985552370220205e+02 -9.3576624102252506e+04 -1.3135707338687151e+06 +5.2557869028204709e+08 
+2.1000000000000005e+00 -1.0352372173437430e+00 +2.2774392860937911e+00 +2.3059080167320801e+01 +3.5671711592040913e+02 -9.1573987312843325e+04 -1.3512218915769991e+06 +5.1753192255398369e+08 
+2.2000000000000006e+00 -1.0352369651413575e+00 +2.2771356625150734e+00 +2.2911709526004046e+01 +3.6309729949151603e+02 -8.9528034863437220e+04 -1.3858809375067472e+06 +5.0924727700898379e+08 
+2.3000000000000007e+00 -1.0352367760182668e+00 +2.2768544550737166e+00 +2.2764306822839604e+01 +3.6893915228362306e+02 -8.7446358835657666e+04 -1.4172515067757557e+06 +5.0075172448111415e+08 
+2.4000000000000008e+00 -1.0352366631020078e+00 +2.2765975176684612e+00 +2.2617543791364895e+01 +3.7418575151392241e+02 -8.5336552123402129e+04 -1.4450372226821205e+06 +4.9207223924249917e+08 
+2.5000000000000009e+00 -1.0352366395206398e+00 +2.2763667041273870e+00 +2.2472092225372197e+01 +3.7878017394097679e+02 -8.3206208655847935e+04 -1.4689416974093320e+06 +4.8323580001403314e+08 
+2.6000000000000010e+00 -1.0352367168290777e+00 +2.2761633728382882e+00 +2.2328611200134262e+01 +3.8267789206887920e+02 -8.1063570759949347e+04 -1.4887318687697803e+06 +4.7427338182152873e+08 
+2.7000000000000011e+00 -1.0352369001470030e+00 +2.2759868185053418e+00 +2.2187704430976090e+01 +3.8588636989336158e+02 -7.8919460471668557e+04 -1.5044375984786327e+06 +4.6523193078252912e+08 
+2.8000000000000012e+00 -1.0352371929511439e+00 +2.2758357989587172e+00 +2.2049961040768384e+01 +3.8842668364734863e+02 -7.6785350070437358e+04 -1.5161569180565039e+06 +4.5616242072760606e+08 
+2.9000000000000012e+00 -1.0352375987182634e+00 +2.2757090718733828e+00 +2.1915970165820688e+01 +3.9031991432825782e+02 -7.4672712172909523e+04 -1.5239878875077786e+06 +4.4711582728280181e+08 
+3.0000000000000013e+00 -1.0352381209252763e+00 +2.2756053947529131e+00 +2.1786320971434506e+01 +3.9158714828638466e+02 -7.2593020034011686e+04 -1.5280285993539372e+06 +4.3814312933658093e+08 
+3.1000000000000014e+00 -1.0352387630492128e+00 +2.2755235249161863e+00 +2.1661602647343447e+01 +3.9224947775068057e+02 -7.0557747457108242e+04 -1.5283771821744847e+06 +4.2929530860030365e+08 
+3.2000000000000015e+00 -1.0352395285671527e+00 +2.2754622194875034e+00 +2.1542404402096974e+01 +3.9232800123537146e+02 -6.8578368708644237e+04 -1.5251318033844118e+06 +4.2062334926475501e+08 
+3.3000000000000016e+00 -1.0352404209562911e+00 +2.2754202353827200e+00 +2.1429315470518997e+01 +3.9184382406980461e+02 -6.6666358652080860e+04 -1.5183906727603548e+06 +4.1217823861421835e+08 
+3.4000000000000017e+00 -1.0352414436938366e+00 +2.2753963292951838e+00 +2.1322925102472901e+01 +3.9081805894620243e+02 -6.4833192544392965e+04 -1.5082520461028451e+06 +4.0401096608744007e+08 
+3.5000000000000018e+00 -1.0352426002570518e+00 +2.2753892576820429e+00 +2.1223822568724046e+01 +3.8927182642718287e+02 -6.3090346152378756e+04 -1.4948142285771763e+06 +3.9617252384262085e+08 
+3.6000000000000019e+00 -1.0352438941232447e+00 +2.2753977767573677e+00 +2.1132597160764607e+01 +3.8722625528670505e+02 -6.1449295758138214e+04 -1.4781755771774261e+06 +3.8871390681092536e+08 
+3.7000000000000020e+00 -1.0352453287697152e+00 +2.2754206424715036e+00 +2.1049838184843498e+01 +3.8470248323647888e+02 -5.9921518044603719e+04 -1.4584345053948865e+06 +3.8168611214672142e+08 
+3.8000000000000020e+00 -1.0352469076737798e+00 +2.2754566105018621e+00 +2.0976134966119432e+01 +3.8172165731535637e+02 -5.8518490187556839e+04 -1.4356894859032833e+06 +3.7514013970412999e+08 
+3.9000000000000021e+00 -1.0352486343127230e+00 +2.2755044362407748e+00 +2.0912076842813114e+01 +3.7830493437341954e+02 -5.7251689741097180e+04 -1.4100390538325075e+06 +3.6912699148071790e+08 
+4.0000000000000018e+00 -1.0352505121637847e+00 +2.2755628747828540e+00 +2.0858253166470615e+01 +3.7447348157014585e+02 -5.6132594656971502e+04 -1.3815818101145416e+06 +3.6369767175083375e+08 
+4.1000000000000014e+00 -1.0352525447041925e+00 +2.2756306809078573e+00 +2.0815253306184317e+01 +3.7024847698990021e+02 -5.5172683366136720e+04 -1.3504164254784351e+06 +3.5890318745760071e+08 
+4.2000000000000011e+00 -1.0352547354110944e+00 +2.2757066090747657e+00 +2.0783666640852051e+01 +3.6565110995214258e+02 -5.4383434633809047e+04 -1.3166416427275133e+06 +3.5479454752833551e+08 
+4.3000000000000007e+00 -1.0352570877615488e+00 +2.2757894134040466e+00 +2.0764082559398922e+01 +3.6070258164730762e+02 -5.3776327576420357e+04 -1.2803562808615309e+06 +3.5142276299284440e+08 
+4.4000000000000004e+00 -1.0352596052325804e+00 +2.2758778476661514e+00 +2.0757090468321774e+01 +3.5542410561423026e+02 -5.3362841806902128e+04 -1.2416592383390998e+06 +3.4883884767821103e+08 
+4.5000000000000000e+00 -1.0352622913010103e+00 +2.2759706652610436e+00 +2.0763279770120494e+01 +3.4983690848220243e+02 -5.3154457009196849e+04 -1.2006494970480041e+06 +3.4709381620966089e+08 
+4.5999999999999996e+00 -1.0352651463359277e+00 +2.2760666608416535e+00 +2.0782966871916688e+01 +3.4396554389187588e+02 -5.3157882701329239e+04 -1.1574540305331536e+06 +3.4621793927914375e+08 
+4.6999999999999993e+00 -1.0352681579797758e+00 +2.2761649310189136e+00 +2.0815330886715280e+01 +3.3784445343298313e+02 -5.3360056959276037e+04 -1.1123011310617912e+06 +3.4615578020939827e+08 
+4.7999999999999989e+00 -1.0352713106113576e+00 +2.2762646836924896e+00 +2.0859253674457808e+01 +3.3150969982363176e+02 -5.3742768076026638e+04 -1.0654419129658011e+06 +3.4682964588020676e+08 
+4.8999999999999986e+00 -1.0352745886091115e+00 +2.2763651270029439e+00 +2.0913617036811633e+01 +3.2499733839395066e+02 -5.4287803156838265e+04 -1.0171274459339959e+06 +3.4816183751950562e+08 
+4.9999999999999982e+00 -1.0352779763510704e+00 +2.2764654693379427e+00 +2.0977302713396352e+01 +3.1834341676848618e+02 -5.4976948038863695e+04 -9.6760875186145713e+05 +3.5007465021522343e+08 
+5.0999999999999979e+00 -1.0352814582149248e+00 +2.2765649193544841e+00 +2.1049192388498337e+01 +3.1158397415385969e+02 -5.5791987414372219e+04 -9.1713680041837227e+05 +3.5249037349953681e+08 
+5.1999999999999975e+00 -1.0352850185778797e+00 +2.2766626859922736e+00 +2.1128167672159140e+01 +3.0475504093756098e+02 -5.6714704461995592e+04 -8.6596250660747488e+05 +3.5533128957405227e+08 
+5.2999999999999972e+00 -1.0352886418167764e+00 +2.2767579785062493e+00 +2.1213110114406621e+01 +2.9789263769801653e+02 -5.7726881108702728e+04 -8.1433672479379794e+05 +3.5851967454234529e+08 
+5.3999999999999968e+00 -1.0352923123079261e+00 +2.2768500064737358e+00 +2.1302901183779770e+01 +2.9103277494219907e+02 -5.8810297615760923e+04 -7.6251024694067612e+05 +3.6197779642904061e+08 
+5.4999999999999964e+00 -1.0352960144271737e+00 +2.2769379798165721e+00 +2.1396422273519445e+01 +2.8421145245215700e+02 -5.9946732681615489e+04 -7.1073379869692179e+05 +3.6562791563651526e+08 
+5.5999999999999961e+00 -1.0352997325498561e+00 +2.2770211088248522e+00 +2.1492554696560930e+01 +2.7746465853708861e+02 -6.1117963348879945e+04 -6.5925803479472408e+05 +3.6939228451617455e+08 
+5.6999999999999957e+00 -1.0353034510507604e+00 +2.2770986041681538e+00 +2.1590179678261418e+01 +2.7082836968290417e+02 -6.2305764850027932e+04 -6.0833353687098366e+05 +3.7319314659658080e+08 
+5.7999999999999954e+00 -1.0353071543041181e+00 +2.2771696769263436e+00 +2.1688178355002474e+01 +2.6433854960888715e+02 -6.3491910574049063e+04 -5.5821080774992239e+05 +3.7695273641386622e+08 
+5.8999999999999950e+00 -1.0353108266835760e+00 +2.2772335385989990e+00 +2.1785431769968383e+01 +2.5803114895490501e+02 -6.4658171982628854e+04 -5.0914026943412062e+05 +3.8059327911040437e+08 
+5.9999999999999947e+00 -1.0353144525621796e+00 +2.2772894011287361e+00 +2.1880820869977679e+01 +2.5194210457826850e+02 -6.5786318538471358e+04 -4.6137225885884790e+05 +3.8403699006819123e+08 
+6.0999999999999943e+00 -1.0353180163123048e+00 +2.2773364769193942e+00 +2.1973226495289552e+01 +2.4610733898195147e+02 -6.6858117503426678e+04 -4.1515702436551754e+05 +3.8720607393647295e+08 
+6.1999999999999940e+00 -1.0353215023057236e+00 +2.2773739788591927e+00 +2.2061529387783079e+01 +2.4056275959369628e+02 -6.7855334085807990e+04 -3.7074472128218558e+05 +3.9002272531235206e+08 
+6.2999999999999936e+00 -1.0353248949134763e+00 +2.2774011203338902e+00 +2.2144610173177163e+01 +2.3534425836195970e+02 -6.8759731095109935e+04 -3.2838540943563433e+05 +3.9240912709038365e+08 
+6.3999999999999932e+00 -1.0353281785059563e+00 +2.2774171152508247e+00 +2.2221349371220850e+01 +2.3048771100956347e+02 -6.9553069128519317e+04 -2.8832904859008943e+05 +3.9428745133384895e+08 
+6.4999999999999929e+00 -1.0353313374527831e+00 +2.2774211780675895e+00 +2.2290627379867935e+01 +2.2602897593974734e+02 -7.0217106303092121e+04 -2.5082549249137257e+05 +3.9557985801896608e+08 
+6.5999999999999925e+00 -1.0353343596745905e+00 +2.2774129451154637e+00 +2.2351560162582999e+01 +2.2199009790295941e+02 -7.0737391094137318e+04 -2.1604118732014412e+05 +3.9622459474309099e+08 
+6.6999999999999922e+00 -1.0353372479810461e+00 +2.2773936805885104e+00 +2.2404269727090966e+01 +2.1833963882792420e+02 -7.1115507095951558e+04 -1.8381238403737749e+05 +3.9622731670730734e+08 
+6.7999999999999918e+00 -1.0353400090858178e+00 +2.2773650401941237e+00 +2.2449147285289641e+01 +2.1503315719945545e+02 -7.1357302088248238e+04 -1.5389287233362722e+05 +3.9561144806669080e+08 
+6.8999999999999915e+00 -1.0353426497031697e+00 +2.2773286795189711e+00 +2.2486584113174406e+01 +2.1202621414982937e+02 -7.1468624869773630e+04 -1.2603645137379851e+05 +3.9440041688804197e+08 
+6.9999999999999911e+00 -1.0353451765478996e+00 +2.2772862540397187e+00 +2.2516971541284658e+01 +2.0927437345526513e+02 -7.1455325091651379e+04 -9.9996932640079744e+04 +3.9261765460086977e+08 
+7.0999999999999908e+00 -1.0353475963353780e+00 +2.2772394191078966e+00 +2.2540700957487967e+01 +2.0673320199406317e+02 -7.1323253292460096e+04 -7.5528142617805206e+04 +3.9028659610472351e+08 
+7.1999999999999904e+00 -1.0353499157816000e+00 +2.2771898299602089e+00 +2.2558163814568832e+01 +2.0435826939530020e+02 -7.1078261046219573e+04 -5.2383920575775701e+04 +3.8743068047522116e+08 
+7.2999999999999901e+00 -1.0353521416031439e+00 +2.2771391416889797e+00 +2.2569751624345624e+01 +2.0210514892581691e+02 -7.0726200841624275e+04 -3.0318123789753005e+04 +3.8407335035737872e+08 
+7.3999999999999897e+00 -1.0353542805172524e+00 +2.2770890092552767e+00 +2.2575855967013677e+01 +1.9992941707800523e+02 -7.0272926252817997e+04 -9.0846250205202159e+03 +3.8023805274874014e+08 
+7.4999999999999893e+00 -1.0353563392418452e+00 +2.2770410874724898e+00 +2.2576868492558798e+01 +1.9778665402449082e+02 -6.9724291958804082e+04 +1.1562684927299995e+04 +3.7594823906215900e+08 
+7.5999999999999890e+00 -1.0353583244954851e+00 +2.2769970310036660e+00 +2.2573180916601736e+01 +1.9563244371114743e+02 -6.9086153661558492e+04 +3.1869896644823846e+04 +3.7122736472095692e+08 
+7.6999999999999886e+00 -1.0353602429975208e+00 +2.2769584943539560e+00 +2.2565185037073899e+01 +1.9342237404126266e+02 -6.8364368395386569e+04 +5.2083081180199122e+04 +3.6609889059977984e+08 
+7.7999999999999883e+00 -1.0353621014679841e+00 +2.2769271318620579e+00 +2.2553272721963324e+01 +1.9111203712695530e+02 -6.7564794288655074e+04 +7.2448288590294804e+04 +3.6058628186675251e+08 
+7.8999999999999879e+00 -1.0353639066277220e+00 +2.2769045976976949e+00 +2.2537835924700538e+01 +1.8865702933911396e+02 -6.6693290849800251e+04 +9.3211547740371039e+04 +3.5471300931966084e+08 
+7.9999999999999876e+00 -1.0353656651983303e+00 +2.2768925458510494e+00 +2.2519266675838281e+01 +1.8601295160532308e+02 -6.5755718802785515e+04 +1.1461886463428187e+05 +3.4850254857431668e+08 
+8.0999999999999872e+00 -1.0353673839022501e+00 +2.2768926301304644e+00 +2.2497957094864379e+01 +1.8313540947880833e+02 -6.4757940307206452e+04 +1.3691622201880466e+05 +3.4197838109248102e+08 
+8.1999999999999869e+00 -1.0353690694627395e+00 +2.2769065041490761e+00 +2.2474299386132667e+01 +1.7998001349822678e+02 -6.3705818874669472e+04 +1.6034957741305986e+05 +3.3516399375705737e+08 
+8.2999999999999865e+00 -1.0353707286039162e+00 +2.2769358213305457e+00 +2.2448685843346929e+01 +1.7650237901207134e+02 -6.2605219441469264e+04 +1.8516486417622675e+05 +3.2808287917331189e+08 
+8.3999999999999861e+00 -1.0353723680508125e+00 +2.2769822348857538e+00 +2.2421508857359189e+01 +1.7265812685203713e+02 -6.1462008524933226e+04 +2.1160798762346839e+05 +3.2075853642919195e+08 
+8.4999999999999858e+00 -1.0353739945293237e+00 +2.2770473978202972e+00 +2.2393160906765360e+01 +1.6840288265454248e+02 -6.0282054053687054e+04 +2.3992483358296534e+05 +3.1321447063258678e+08 
+8.5999999999999854e+00 -1.0353756138641654e+00 +2.2771324760943021e+00 +2.2363994730705823e+01 +1.6370574226993298e+02 -5.9071099062846311e+04 +2.7029114447054797e+05 +3.0547562107987875e+08 
+8.6999999999999851e+00 -1.0353772281110747e+00 +2.2772365306237305e+00 +2.2334234363767546e+01 +1.5859711634402117e+02 -5.7835438587727869e+04 +3.0254852013621491e+05 +2.9757847152372128e+08 
+8.7999999999999847e+00 -1.0353788383408538e+00 +2.2773580448048309e+00 +2.2304080124938579e+01 +1.5312506457400076e+02 -5.6581816139365983e+04 +3.3643902938563196e+05 +2.8956418783512926e+08 
+8.8999999999999844e+00 -1.0353804456237343e+00 +2.2774955020027323e+00 +2.2273732274124015e+01 +1.4733765198445201e+02 -5.5316974655909537e+04 +3.7170468935346120e+05 +2.8147393515770787e+08 
+8.9999999999999840e+00 -1.0353820510293501e+00 +2.2776473856486645e+00 +2.2243390997227362e+01 +1.4128294461517100e+02 -5.4047655951150766e+04 +4.0808749357357534e+05 +2.7334887447286707e+08 
+9.0999999999999837e+00 -1.0353836556266796e+00 +2.2778121792455046e+00 +2.2213256397912069e+01 +1.3500900946967189e+02 -5.2780600560984909e+04 +4.4532941168750025e+05 +2.6523016189061916e+08 
+9.1999999999999833e+00 -1.0353852604840548e+00 +2.2779883663594513e+00 +2.2183528500250446e+01 +1.2856391483249880e+02 -5.1522547810886201e+04 +4.8317238710157794e+05 +2.5715894902782160e+08 
+9.2999999999999829e+00 -1.0353868666691057e+00 +2.2781744306389884e+00 +2.2154407241448393e+01 +1.2199572979421910e+02 -5.0280235684778425e+04 +5.2135833925809938e+05 +2.4917638241748950e+08 
+9.3999999999999826e+00 -1.0353884752487732e+00 +2.2783688558022259e+00 +2.2126092473164899e+01 +1.1535252472785359e+02 -4.9060400857910521e+04 +5.5962916026331589e+05 +2.4132360369818968e+08 
+9.4999999999999822e+00 -1.0353900872892872e+00 +2.2785701256444346e+00 +2.2098783960186431e+01 +1.0868237115886808e+02 -4.7869778688165010e+04 +5.9772671512613981e+05 +2.3364174963064548e+08 
+9.5999999999999819e+00 -1.0353917038560936e+00 +2.2787767240421264e+00 +2.2072681369940987e+01 +1.0203334171006418e+02 -4.6715103015166642e+04 +6.3539284160358168e+05 +2.2617195114842775e+08 
+9.6999999999999815e+00 -1.0353933260139145e+00 +2.2789871349504240e+00 +2.2047984281307460e+01 +9.5453510305015868e+01 -4.5603106348004068e+04 +6.7236934838656685e+05 +2.1895533432036290e+08 
+9.7999999999999812e+00 -1.0353949548266623e+00 +2.2791998424062236e+00 +2.2024892173747027e+01 +8.8990952121660499e+01 -4.4540519664771644e+04 +7.0839801494964131e+05 +2.1203301942582101e+08 
+9.8999999999999808e+00 -1.0353965913574514e+00 +2.2794133305374218e+00 +2.2003604429052622e+01 +8.2693743452838788e+01 -4.3534072454950052e+04 +7.4322059172322473e+05 +2.0544612119170180e+08 
+9.9999999999999805e+00 -1.0353982366685770e+00 +2.2796260835511006e+00 +2.1984320327946907e+01 +7.6609962101786508e+01 -4.2590492660805161e+04 +7.7657879736235761e+05 +1.9923574854428831e+08 
+1.0099999999999980e+01 -1.0353998918214653e+00 +2.2798365857494995e+00 +2.1967239046371436e+01 +7.0787687040324897e+01 -4.1716506628803108e+04 +8.0821432010945212e+05 +1.9344300444877452e+08 
