# trajectory
# s[mm] rx[mm] ry[mm] rz[mm] px[rad] py[rad] pz[rad]
0.0000000000000000e+00 +9.0449999999999999e+00 +0.0000000000000000e+00 +0.0000000000000000e+00 +0.0000000000000000e+00 +0.0000000000000000e+00 +1.0000000000000000e+00
1.0000000000000001e-01 +9.0449994827334272e+00 +0.0000000000000000e+00 +9.9999999998216238e-02 -1.0345333189899162e-05 +0.0000000000000000e+00 +9.9999999994648703e-01
2.0000000000000001e-01 +9.0449979309330359e+00 +0.0000000000000000e+00 +1.9999999998572987e-01 -2.0690676153024128e-05 +0.0000000000000000e+00 +9.9999999978594800e-01
3.0000000000000004e-01 +9.0449953445979201e+00 +0.0000000000000000e+00 +2.9999999995183829e-01 -3.1036027420519698e-05 +0.0000000000000000e+00 +9.9999999951838259e-01
4.0000000000000002e-01 +9.0449917237273283e+00 +0.0000000000000000e+00 +3.9999999988583884e-01 -4.1381385373844871e-05 +0.0000000000000000e+00 +9.9999999914379056e-01
5.0000000000000000e-01 +9.0449870683206814e+00 +0.0000000000000000e+00 +4.9999999977702886e-01 -5.1726748244757270e-05 +0.0000000000000000e+00 +9.9999999866217182e-01
5.9999999999999998e-01 +9.0449813783775799e+00 +0.0000000000000000e+00 +5.9999999961470563e-01 -6.2072114130367711e-05 +0.0000000000000000e+00 +9.9999999807352635e-01
6.9999999999999996e-01 +9.0449746538978175e+00 +0.0000000000000000e+00 +6.9999999938816648e-01 -7.2417481158917351e-05 +0.0000000000000000e+00 +9.9999999737785428e-01
7.9999999999999993e-01 +9.0449668948813660e+00 +0.0000000000000000e+00 +7.9999999908670882e-01 -8.2762847655560169e-05 +0.0000000000000000e+00 +9.9999999657515559e-01
8.9999999999999991e-01 +9.0449581013283531e+00 +0.0000000000000000e+00 +8.9999999869962999e-01 -9.3108212157427345e-05 +0.0000000000000000e+00 +9.9999999566543052e-01
9.9999999999999989e-01 +9.0449482732390436e+00 +0.0000000000000000e+00 +9.9999999821622731e-01 -1.0345357341362191e-04 +0.0000000000000000e+00 +9.9999999464867917e-01
1.0999999999999999e+00 +9.0449374106138141e+00 +0.0000000000000000e+00 +1.0999999976257981e+00 -1.1379893038521605e-04 +0.0000000000000000e+00 +9.9999999352490176e-01
1.2000000000000000e+00 +9.0449255134531370e+00 +0.0000000000000000e+00 +1.1999999969176400e+00 -1.2414428224525082e-04 +0.0000000000000000e+00 +9.9999999229409864e-01
1.3000000000000000e+00 +9.0449125817575560e+00 +0.0000000000000000e+00 +1.2999999960810504e+00 -1.3448962837873848e-04 +0.0000000000000000e+00 +9.9999999095627001e-01
1.4000000000000001e+00 +9.0448986155276661e+00 +0.0000000000000000e+00 +1.3999999951053266e+00 -1.4483496838266731e-04 +0.0000000000000000e+00 +9.9999998951141600e-01
1.5000000000000002e+00 +9.0448836147640908e+00 +0.0000000000000000e+00 +1.4999999939797661e+00 -1.5518030206600894e-04 +0.0000000000000000e+00 +9.9999998795953693e-01
1.6000000000000003e+00 +9.0448675794674624e+00 +0.0000000000000000e+00 +1.5999999926936666e+00 -1.6552562944972829e-04 +0.0000000000000000e+00 +9.9999998630063303e-01
1.7000000000000004e+00 +9.0448505096384029e+00 +0.0000000000000000e+00 +1.6999999912363253e+00 -1.7587095076679592e-04 +0.0000000000000000e+00 +9.9999998453470429e-01
1.8000000000000005e+00 +9.0448324052774964e+00 +0.0000000000000000e+00 +1.7999999895970400e+00 -1.8621626646220303e-04 +0.0000000000000000e+00 +9.9999998266175094e-01
1.9000000000000006e+00 +9.0448132663852761e+00 +0.0000000000000000e+00 +1.8999999877651081e+00 -1.9656157719297890e-04 +0.0000000000000000e+00 +9.9999998068177309e-01
2.0000000000000004e+00 +9.0447930929621947e+00 +0.0000000000000000e+00 +1.9999999857298272e+00 -2.0690688382821090e-04 +0.0000000000000000e+00 +9.9999997859477052e-01
2.1000000000000005e+00 +9.0447718850086112e+00 +0.0000000000000000e+00 +2.0999999834804948e+00 -2.1725218744906698e-04 +0.0000000000000000e+00 +9.9999997640074334e-01
2.2000000000000006e+00 +9.0447496425247635e+00 +0.0000000000000000e+00 +2.1999999810064086e+00 -2.2759748934882083e-04 +0.0000000000000000e+00 +9.9999997409969121e-01
2.3000000000000007e+00 +9.0447263655107495e+00 +0.0000000000000000e+00 +2.2999999782968659e+00 -2.3794279103287933e-04 +0.0000000000000000e+00 +9.9999997169161381e-01
2.4000000000000008e+00 +9.0447020539665068e+00 +0.0000000000000000e+00 +2.3999999753411640e+00 -2.4828809421881276e-04 +0.0000000000000000e+00 +9.9999996917651079e-01
2.5000000000000009e+00 +9.0446767078917905e+00 +0.0000000000000000e+00 +2.4999999721286006e+00 -2.5863340083638739e-04 +0.0000000000000000e+00 +9.9999996655438161e-01
2.6000000000000010e+00 +9.0446503272861527e+00 +0.0000000000000000e+00 +2.5999999686484729e+00 -2.6897871301839185e-04 +0.0000000000000000e+00 +9.9999996382522549e-01
2.7000000000000011e+00 +9.0446229121489257e+00 +0.0000000000000000e+00 +2.6999999648900781e+00 -2.7932403299937392e-04 +0.0000000000000000e+00 +9.9999996098904176e-01
2.8000000000000012e+00 +9.0445944624792176e+00 +0.0000000000000000e+00 +2.7999999608427135e+00 -2.8966936301436785e-04 +0.0000000000000000e+00 +9.9999995804582942e-01
2.9000000000000012e+00 +9.0445649782759130e+00 +0.0000000000000000e+00 +2.8999999564956762e+00 -3.0001470528970498e-04 +0.0000000000000000e+00 +9.9999995499558747e-01
3.0000000000000013e+00 +9.0445344595376760e+00 +0.0000000000000000e+00 +2.9999999518382632e+00 -3.1036006204303366e-04 +0.0000000000000000e+00 +9.9999995183831492e-01
3.1000000000000014e+00 +9.0445029062629487e+00 +0.0000000000000000e+00 +3.0999999468597714e+00 -3.2070543548333940e-04 +0.0000000000000000e+00 +9.9999994857401064e-01
3.2000000000000015e+00 +9.0444703184499513e+00 +0.0000000000000000e+00 +3.1999999415494975e+00 -3.3105082781096566e-04 +0.0000000000000000e+00 +9.9999994520267332e-01
3.3000000000000016e+00 +9.0444366960966853e+00 +0.0000000000000000e+00 +3.2999999358967385e+00 -3.4139624121763516e-04 +0.0000000000000000e+00 +9.9999994172430162e-01
3.4000000000000017e+00 +9.0444020392009339e+00 +0.0000000000000000e+00 +3.3999999298907904e+00 -3.5174167788647160e-04 +0.0000000000000000e+00 +9.9999993813889421e-01
3.5000000000000018e+00 +9.0443663477602616e+00 +0.0000000000000000e+00 +3.4999999235209494e+00 -3.6208713999202180e-04 +0.0000000000000000e+00 +9.9999993444644952e-01
3.6000000000000019e+00 +9.0443296217720164e+00 +0.0000000000000000e+00 +3.5999999167765120e+00 -3.7243262970027853e-04 +0.0000000000000000e+00 +9.9999993064696591e-01
3.7000000000000020e+00 +9.0442918612333294e+00 +0.0000000000000000e+00 +3.6999999096467744e+00 -3.8277814916870372e-04 +0.0000000000000000e+00 +9.9999992674044169e-01
3.8000000000000020e+00 +9.0442530661411187e+00 +0.0000000000000000e+00 +3.7999999021210322e+00 -3.9312370054625203e-04 +0.0000000000000000e+00 +9.9999992272687521e-01
3.9000000000000021e+00 +9.0442132364920855e+00 +0.0000000000000000e+00 +3.8999998941885812e+00 -4.0346928597339519e-04 +0.0000000000000000e+00 +9.9999991860626447e-01
4.0000000000000018e+00 +9.0441723722827181e+00 +0.0000000000000000e+00 +3.9999998858387169e+00 -4.1381490758214657e-04 +0.0000000000000000e+00 +9.9999991437860758e-01
4.1000000000000014e+00 +9.0441304735092913e+00 +0.0000000000000000e+00 +4.0999998770607347e+00 -4.2416056749608640e-04 +0.0000000000000000e+00 +9.9999991004390254e-01
4.2000000000000011e+00 +9.0440875401678706e+00 +0.0000000000000000e+00 +4.1999998678439292e+00 -4.3450626783038729e-04 +0.0000000000000000e+00 +9.9999990560214724e-01
4.3000000000000007e+00 +9.0440435722543082e+00 +0.0000000000000000e+00 +4.2999998581775953e+00 -4.4485201069184062e-04 +0.0000000000000000e+00 +9.9999990105333947e-01
4.4000000000000004e+00 +9.0439985697642449e+00 +0.0000000000000000e+00 +4.3999998480510278e+00 -4.5519779817888286e-04 +0.0000000000000000e+00 +9.9999989639747699e-01
4.5000000000000000e+00 +9.0439525326931154e+00 +0.0000000000000000e+00 +4.4999998374535215e+00 -4.6554363238162299e-04 +0.0000000000000000e+00 +9.9999989163455738e-01
4.5999999999999996e+00 +9.0439054610361431e+00 +0.0000000000000000e+00 +4.5999998263743702e+00 -4.7588951537409964e-04 +0.0000000000000000e+00 +9.9999988676457829e-01
4.6999999999999993e+00 +9.0438573547883490e+00 +0.0000000000000000e+00 +4.6999998148028679e+00 -4.8623544912882854e-04 +0.0000000000000000e+00 +9.9999988178753718e-01
4.7999999999999989e+00 +9.0438082139445655e+00 +0.0000000000000000e+00 +4.7999998027283084e+00 -4.9658143543131336e-04 +0.0000000000000000e+00 +9.9999987670343160e-01
4.8999999999999986e+00 +9.0437580384994583e+00 +0.0000000000000000e+00 +4.8999997901399848e+00 -5.0692747587223789e-04 +0.0000000000000000e+00 +9.9999987151225911e-01
4.9999999999999982e+00 +9.0437068284475401e+00 +0.0000000000000000e+00 +4.9999997770271909e+00 -5.1727357184742386e-04 +0.0000000000000000e+00 +9.9999986621401726e-01
5.0999999999999979e+00 +9.0436545837831979e+00 +0.0000000000000000e+00 +5.0999997633792189e+00 -5.2761972455778660e-04 +0.0000000000000000e+00 +9.9999986080870373e-01
5.1999999999999975e+00 +9.0436013045007044e+00 +0.0000000000000000e+00 +5.1999997491853618e+00 -5.3796593500928663e-04 +0.0000000000000000e+00 +9.9999985529631619e-01
5.2999999999999972e+00 +9.0435469905942441e+00 +0.0000000000000000e+00 +5.2999997344349126e+00 -5.4831220401287942e-04 +0.0000000000000000e+00 +9.9999984967685240e-01
5.3999999999999968e+00 +9.0434916420579299e+00 +0.0000000000000000e+00 +5.3999997191171634e+00 -5.5865853218446118e-04 +0.0000000000000000e+00 +9.9999984395031027e-01
5.4999999999999964e+00 +9.0434352588858218e+00 +0.0000000000000000e+00 +5.4999997032214054e+00 -5.6900491994481208e-04 +0.0000000000000000e+00 +9.9999983811668769e-01
5.5999999999999961e+00 +9.0433778410719476e+00 +0.0000000000000000e+00 +5.5999996867369317e+00 -5.7935136751953659e-04 +0.0000000000000000e+00 +9.9999983217598265e-01
5.6999999999999957e+00 +9.0433193886103229e+00 +0.0000000000000000e+00 +5.6999996696530326e+00 -5.8969787493900073e-04 +0.0000000000000000e+00 +9.9999982612819327e-01
5.7999999999999954e+00 +9.0432599014949702e+00 +0.0000000000000000e+00 +5.7999996519590002e+00 -6.0004444203826612e-04 +0.0000000000000000e+00 +9.9999981997331777e-01
5.8999999999999950e+00 +9.0431993797199368e+00 +0.0000000000000000e+00 +5.8999996336441267e+00 -6.1039106845702125e-04 +0.0000000000000000e+00 +9.9999981371135460e-01
5.9999999999999947e+00 +9.0431378232793183e+00 +0.0000000000000000e+00 +5.9999996146977024e+00 -6.2073775363950974e-04 +0.0000000000000000e+00 +9.9999980734230220e-01
6.0999999999999943e+00 +9.0430752321672738e+00 +0.0000000000000000e+00 +6.0999995951090176e+00 -6.3108449683445559e-04 +0.0000000000000000e+00 +9.9999980086615925e-01
6.1999999999999940e+00 +9.0430116063780481e+00 +0.0000000000000000e+00 +6.1999995748673644e+00 -6.4143129709498526e-04 +0.0000000000000000e+00 +9.9999979428292451e-01
6.2999999999999936e+00 +9.0429469459059906e+00 +0.0000000000000000e+00 +6.2999995539620333e+00 -6.5177815327854707e-04 +0.0000000000000000e+00 +9.9999978759259700e-01
6.3999999999999932e+00 +9.0428812507455731e+00 +0.0000000000000000e+00 +6.3999995323823144e+00 -6.6212506404682747e-04 +0.0000000000000000e+00 +9.9999978079517582e-01
6.4999999999999929e+00 +9.0428145208914135e+00 +0.0000000000000000e+00 +6.4999995101174983e+00 -6.7247202786566423e-04 +0.0000000000000000e+00 +9.9999977389066041e-01
6.5999999999999925e+00 +9.0427467563382891e+00 +0.0000000000000000e+00 +6.5999994871568761e+00 -6.8281904301533943e-04 +0.0000000000000000e+00 +9.9999976687905023e-01
6.6999999999999922e+00 +9.0426779570811586e+00 +0.0000000000000000e+00 +6.6999994634897382e+00 -6.9316610770471206e-04 +0.0000000000000000e+00 +9.9999975976034483e-01
6.7999999999999918e+00 +9.0426081231151549e+00 +0.0000000000000000e+00 +6.7999994391053749e+00 -7.0351322018540540e-04 +0.0000000000000000e+00 +9.9999975253454398e-01
6.8999999999999915e+00 +9.0425372544355849e+00 +0.0000000000000000e+00 +6.8999994139930765e+00 -7.1386037876219454e-04 +0.0000000000000000e+00 +9.9999974520164747e-01
6.9999999999999911e+00 +9.0424653510379205e+00 +0.0000000000000000e+00 +6.9999993881421343e+00 -7.2420758179301344e-04 +0.0000000000000000e+00 +9.9999973776165496e-01
7.0999999999999908e+00 +9.0423924129177973e+00 +0.0000000000000000e+00 +7.0999993615418378e+00 -7.3455482768896283e-04 +0.0000000000000000e+00 +9.9999973021456623e-01
7.1999999999999904e+00 +9.0423184400710053e+00 +0.0000000000000000e+00 +7.1999993341814772e+00 -7.4490211491431871e-04 +0.0000000000000000e+00 +9.9999972256038117e-01
7.2999999999999901e+00 +9.0422434324934855e+00 +0.0000000000000000e+00 +7.2999993060503439e+00 -7.5524944198654192e-04 +0.0000000000000000e+00 +9.9999971479909955e-01
7.3999999999999897e+00 +9.0421673901813264e+00 +0.0000000000000000e+00 +7.3999992771377272e+00 -7.6559680747628842e-04 +0.0000000000000000e+00 +9.9999970693072127e-01
7.4999999999999893e+00 +9.0420903131307551e+00 +0.0000000000000000e+00 +7.4999992474329185e+00 -7.7594421000742029e-04 +0.0000000000000000e+00 +9.9999969895524621e-01
7.5999999999999890e+00 +9.0420122013381334e+00 +0.0000000000000000e+00 +7.5999992169252071e+00 -7.8629164825701800e-04 +0.0000000000000000e+00 +9.9999969087267415e-01
7.6999999999999886e+00 +9.0419330547999550e+00 +0.0000000000000000e+00 +7.6999991856038834e+00 -7.9663912095539265e-04 +0.0000000000000000e+00 +9.9999968268300510e-01
7.7999999999999883e+00 +9.0418528735128358e+00 +0.0000000000000000e+00 +7.7999991534582378e+00 -8.0698662688609998e-04 +0.0000000000000000e+00 +9.9999967438623893e-01
7.8999999999999879e+00 +9.0417716574735092e+00 +0.0000000000000000e+00 +7.8999991204775606e+00 -8.1733416488595457e-04 +0.0000000000000000e+00 +9.9999966598237555e-01
7.9999999999999876e+00 +9.0416894066788256e+00 +0.0000000000000000e+00 +7.9999990866511430e+00 -8.2768173384504509e-04 +0.0000000000000000e+00 +9.9999965747141495e-01
8.0999999999999872e+00 +9.0416061211257421e+00 +0.0000000000000000e+00 +8.0999990519682736e+00 -8.3802933270675040e-04 +0.0000000000000000e+00 +9.9999964885335701e-01
8.1999999999999869e+00 +9.0415218008113207e+00 +0.0000000000000000e+00 +8.1999990164182446e+00 -8.4837696046775630e-04 +0.0000000000000000e+00 +9.9999964012820164e-01
8.2999999999999865e+00 +9.0414364457327174e+00 +0.0000000000000000e+00 +8.2999989799903453e+00 -8.5872461617807335e-04 +0.0000000000000000e+00 +9.9999963129594871e-01
8.3999999999999861e+00 +9.0413500558871842e+00 +0.0000000000000000e+00 +8.3999989426738644e+00 -8.6907229894105543e-04 +0.0000000000000000e+00 +9.9999962235659823e-01
8.4999999999999858e+00 +9.0412626312720565e+00 +0.0000000000000000e+00 +8.4999989044580939e+00 -8.7942000791341884e-04 +0.0000000000000000e+00 +9.9999961331014997e-01
8.5999999999999854e+00 +9.0411741718847551e+00 +0.0000000000000000e+00 +8.5999988653323243e+00 -8.8976774230524903e-04 +0.0000000000000000e+00 +9.9999960415660394e-01
8.6999999999999851e+00 +9.0410846777227736e+00 +0.0000000000000000e+00 +8.6999988252858458e+00 -9.0011550137987246e-04 +0.0000000000000000e+00 +9.9999959489595991e-01
8.7999999999999847e+00 +9.0409941487836800e+00 +0.0000000000000000e+00 +8.7999987843079470e+00 -9.1046328445372579e-04 +0.0000000000000000e+00 +9.9999958552821777e-01
8.8999999999999844e+00 +9.0409025850651048e+00 +0.0000000000000000e+00 +8.8999987423879201e+00 -9.2081109089636075e-04 +0.0000000000000000e+00 +9.9999957605337741e-01
8.9999999999999840e+00 +9.0408099865647404e+00 +0.0000000000000000e+00 +8.9999986995150536e+00 -9.3115892013046256e-04 +0.0000000000000000e+00 +9.9999956647143862e-01
9.0999999999999837e+00 +9.0407163532803363e+00 +0.0000000000000000e+00 +9.0999986556786379e+00 -9.4150677163186880e-04 +0.0000000000000000e+00 +9.9999955678240116e-01
9.1999999999999833e+00 +9.0406216852096879e+00 +0.0000000000000000e+00 +9.1999986108679632e+00 -9.5185464492958990e-04 +0.0000000000000000e+00 +9.9999954698626470e-01
9.2999999999999829e+00 +9.0405259823506370e+00 +0.0000000000000000e+00 +9.2999985650723200e+00 -9.6220253960582899e-04 +0.0000000000000000e+00 +9.9999953708302913e-01
9.3999999999999826e+00 +9.0404292447010661e+00 +0.0000000000000000e+00 +9.3999985182809986e+00 -9.7255045529600378e-04 +0.0000000000000000e+00 +9.9999952707269402e-01
9.4999999999999822e+00 +9.0403314722588881e+00 +0.0000000000000000e+00 +9.4999984704832894e+00 -9.8289839168876829e-04 +0.0000000000000000e+00 +9.9999951695525902e-01
9.5999999999999819e+00 +9.0402326650220477e+00 +0.0000000000000000e+00 +9.5999984216684808e+00 -9.9324634852603522e-04 +0.0000000000000000e+00 +9.9999950673072380e-01
9.6999999999999815e+00 +9.0401328229885092e+00 +0.0000000000000000e+00 +9.6999983718258633e+00 -1.0035943256029994e-03 +0.0000000000000000e+00 +9.9999949639908792e-01
9.7999999999999812e+00 +9.0400319461562582e+00 +0.0000000000000000e+00 +9.7999983209447272e+00 -1.0139423227681623e-03 +0.0000000000000000e+00 +9.9999948596035082e-01
9.8999999999999808e+00 +9.0399300345232891e+00 +0.0000000000000000e+00 +9.8999982690143629e+00 -1.0242903399233559e-03 +0.0000000000000000e+00 +9.9999947541451206e-01
9.9999999999999805e+00 +9.0398270880876073e+00 +0.0000000000000000e+00 +9.9999982160240588e+00 -1.0346383770237684e-03 +0.0000000000000000e+00 +9.9999946476157109e-01
1.0099999999999980e+01 +9.0397231068472195e+00 +0.0000000000000000e+00 +1.0099998161963105e+01 -1.0449864340779703e-03 +0.0000000000000000e+00 +9.9999945400152712e-01
1.0199999999999980e+01 +9.0396180908001256e+00 +0.0000000000000000e+00 +1.0199998106820793e+01 -1.0553345111479413e-03 +0.0000000000000000e+00 +9.9999944313437961e-01
1.0299999999999979e+01 +9.0395120399443183e+00 +0.0000000000000000e+00 +1.0299998050586410e+01 -1.0656826083490971e-03 +0.0000000000000000e+00 +9.9999943216012777e-01
1.0399999999999979e+01 +9.0394049542777779e+00 +0.0000000000000000e+00 +1.0399997993249247e+01 -1.0760307258503184e-03 +0.0000000000000000e+00 +9.9999942107877082e-01
1.0499999999999979e+01 +9.0392968337984634e+00 +0.0000000000000000e+00 +1.0499997934798595e+01 -1.0863788638739785e-03 +0.0000000000000000e+00 +9.9999940989030789e-01
1.0599999999999978e+01 +9.0391876785043088e+00 +0.0000000000000000e+00 +1.0599997875223739e+01 -1.0967270226926787e-03 +0.0000000000000000e+00 +9.9999939859473796e-01
1.0699999999999978e+01 +9.0390774883932217e+00 +0.0000000000000000e+00 +1.0699997814513971e+01 -1.1070752025930206e-03 +0.0000000000000000e+00 +9.9999938719206005e-01
1.0799999999999978e+01 +9.0389662634630792e+00 +0.0000000000000000e+00 +1.0799997752658580e+01 -1.1174234038393556e-03 +0.0000000000000000e+00 +9.9999937568227326e-01
1.0899999999999977e+01 +9.0388540037117338e+00 +0.0000000000000000e+00 +1.0899997689646856e+01 -1.1277716266704779e-03 +0.0000000000000000e+00 +9.9999936406537671e-01
1.0999999999999977e+01 +9.0387407091370182e+00 +0.0000000000000000e+00 +1.0999997625468087e+01 -1.1381198712996131e-03 +0.0000000000000000e+00 +9.9999935234136939e-01
1.1099999999999977e+01 +9.0386263797367423e+00 +0.0000000000000000e+00 +1.1099997560111561e+01 -1.1484681379144051e-03 +0.0000000000000000e+00 +9.9999934051025052e-01
1.1199999999999976e+01 +9.0385110155086981e+00 +0.0000000000000000e+00 +1.1199997493566567e+01 -1.1588164266769045e-03 +0.0000000000000000e+00 +9.9999932857201912e-01
1.1299999999999976e+01 +9.0383946164506650e+00 +0.0000000000000000e+00 +1.1299997425822394e+01 -1.1691647377235553e-03 +0.0000000000000000e+00 +9.9999931652667440e-01
1.1399999999999975e+01 +9.0382771825604085e+00 +0.0000000000000000e+00 +1.1399997356868331e+01 -1.1795130711651817e-03 +0.0000000000000000e+00 +9.9999930437421547e-01
1.1499999999999975e+01 +9.0381587138356831e+00 +0.0000000000000000e+00 +1.1499997286693667e+01 -1.1898614270869751e-03 +0.0000000000000000e+00 +9.9999929211464156e-01
1.1599999999999975e+01 +9.0380392102742402e+00 +0.0000000000000000e+00 +1.1599997215287688e+01 -1.2002098055484800e-03 +0.0000000000000000e+00 +9.9999927974795189e-01
1.1699999999999974e+01 +9.0379186718738218e+00 +0.0000000000000000e+00 +1.1699997142639686e+01 -1.2105582065835797e-03 +0.0000000000000000e+00 +9.9999926727414568e-01
1.1799999999999974e+01 +9.0377970986321703e+00 +0.0000000000000000e+00 +1.1799997068738948e+01 -1.2209066302004828e-03 +0.0000000000000000e+00 +9.9999925469322226e-01
