# multipoles
# s[mm] polynom_b[n=0][T/m^n] polynom_b[n=1][T/m^n] polynom_b[n=2][T/m^n] polynom_b[n=3][T/m^n] polynom_b[n=4][T/m^n] polynom_b[n=5][T/m^n] polynom_b[n=6][T/m^n] 
+0.0000000000000000e+00 -5.1490072368603410e-02 +1.1518571007489570e-01 +1.0329999451168008e+00 +8.8534247434082562e+00 -1.2912002656649593e+01 -9.7147188400127761e+03 +1.3398430024166636e+06 
-1.0000000000000001e-01 -5.1490111001853647e-02 +1.1518451605754108e-01 +1.0323476731745489e+00 +8.8650818159958682e+00 +3.4438753752636622e+00 -9.8219614401248127e+03 +1.2486472862179854e+06 
-2.0000000000000001e-01 -5.1490148692001171e-02 +1.1518352010049518e-01 +1.0316514528032168e+00 +8.8721784599975724e+00 +2.0512218618715703e+01 -9.9046565881683546e+03 +1.1544119916494505e+06 
-3.0000000000000004e-01 -5.1490185420661277e-02 +1.1518270133599147e-01 +1.0309184325386493e+00 +8.8749580503128485e+00 +3.8142745646367423e+01 -9.9634704873712690e+03 +1.0578914453056573e+06 
-4.0000000000000002e-01 -5.1490221169451310e-02 +1.1518203889687860e-01 +1.0301557611370713e+00 +8.8736639447061325e+00 +5.6185171505753111e+01 -9.9990692444716187e+03 +9.5983998731977411e+05 
-5.0000000000000000e-01 -5.1490255919990228e-02 +1.1518151191620721e-01 +1.0293705875432178e+00 +8.8685394955732963e+00 +7.4489208057945248e+01 -1.0012118937961288e+04 +8.6101197052889375e+05 
-5.9999999999999998e-01 -5.1490289653896043e-02 +1.1518109952749174e-01 +1.0285700605588244e+00 +8.8598280432726657e+00 +9.2904570570452648e+01 -1.0003285583238279e+04 +7.6216172792745719e+05 
-6.9999999999999996e-01 -5.1490322352786090e-02 +1.1518078086452950e-01 +1.0277613289512797e+00 +8.8477729215738012e+00 +1.1128097497206191e+02 -9.9732351653042606e+03 +6.6404358767945890e+05 
-7.9999999999999993e-01 -5.1490353998279961e-02 +1.1518053506145676e-01 +1.0269515418051318e+00 +8.8326174561414472e+00 +1.2946813147933068e+02 -9.9226336316737197e+03 +5.6741190236125572e+05 
-8.9999999999999991e-01 -5.1490384571998386e-02 +1.1518034125252877e-01 +1.0261478483728212e+00 +8.8146049721766015e+00 +1.4731574730943905e+02 -9.8521469413564682e+03 +4.7302103641472582e+05 
-9.9999999999999989e-01 -5.1490414055557494e-02 +1.1518017857266398e-01 +1.0253573974674615e+00 +8.7939787779405876e+00 +1.6467353764725803e+02 -9.7624409673526297e+03 +3.8162531523689977e+05 
-1.0999999999999999e+00 -5.1490442430577030e-02 +1.1518002615661777e-01 +1.0245873384060376e+00 +8.7709821905878851e+00 +1.8139120822533710e+02 -9.6541816538269777e+03 +2.9397910673315177e+05 
-1.2000000000000000e+00 -5.1490469678672789e-02 +1.1517986313959280e-01 +1.0238448201582282e+00 +8.7458585173388101e+00 +1.9731847096353314e+02 -9.5280349039604262e+03 +2.1083674809714407e+05 
-1.3000000000000000e+00 -5.1490495781463308e-02 +1.1517966865690540e-01 +1.0231369921713807e+00 +8.7188510669462822e+00 +2.1230502826359967e+02 -9.3846666530701532e+03 +1.3295262060682900e+05 
-1.4000000000000001e+00 -5.1490520720562469e-02 +1.1517942184419024e-01 +1.0224710034623594e+00 +8.6902031431015736e+00 +2.2620059027365812e+02 -9.2247428287531438e+03 +6.1081067303409996e+04 
-1.5000000000000002e+00 -5.1490544477585221e-02 +1.1517910183719782e-01 +1.0218540033603536e+00 +8.6601580518076187e+00 +2.3885486055858874e+02 -9.0489293993028932e+03 -4.0235383327113341e+03 
-1.6000000000000003e+00 -5.1490567034142606e-02 +1.1517868777180328e-01 +1.0212931409168111e+00 +8.6289591002672168e+00 +2.5011754712017927e+02 -8.8578923658526637e+03 -6.1606844460940316e+04 
-1.7000000000000004e+00 -5.1490588371848049e-02 +1.1517815878409242e-01 +1.0207955656936569e+00 +8.5968495964377443e+00 +2.5983834741750462e+02 -8.6522977661698624e+03 -1.1091444969902428e+05 
-1.8000000000000005e+00 -5.1490608472309102e-02 +1.1517749401024675e-01 +1.0203684267596542e+00 +8.5640728511307351e+00 +2.6786696729452740e+02 -8.4328116846014618e+03 -1.5119199289262391e+05 
-1.9000000000000006e+00 -5.1490627317132422e-02 +1.1517667258650585e-01 +1.0200188733295590e+00 +8.5308721807686538e+00 +2.7405310867854342e+02 -8.2001002737713352e+03 -1.8168509425293125e+05 
-2.0000000000000004e+00 -5.1490644887922585e-02 +1.1517567364926931e-01 +1.0197540546293209e+00 +8.4974909045396885e+00 +2.7824647221771852e+02 -7.9548297396376774e+03 -2.0163936841749208e+05 
-2.1000000000000005e+00 -5.1490661188510853e-02 +1.1517448156671160e-01 +1.0195793869924257e+00 +8.4641577780321757e+00 +2.8033938461501339e+02 -7.6978767792690496e+03 -2.1052720406411693e+05 
-2.2000000000000006e+00 -5.1490676311439956e-02 +1.1517310366943941e-01 +1.0194931901969555e+00 +8.4309964274418494e+00 +2.8039577369293431e+02 -7.4306768883338909e+03 -2.0872667074970485e+05 
-2.3000000000000007e+00 -5.1490690371384866e-02 +1.1517155353751470e-01 +1.0194919660584589e+00 +8.3980927408444579e+00 +2.7852280142883353e+02 -7.1547365107328078e+03 -1.9684227518296160e+05 
-2.4000000000000008e+00 -5.1490703483018721e-02 +1.1516984475066018e-01 +1.0195722161374714e+00 +8.3655326097999527e+00 +2.7482763364002074e+02 -6.8715620855249090e+03 -1.7547853605938522e+05 
-2.5000000000000009e+00 -5.1490715761014799e-02 +1.1516799088845549e-01 +1.0197304420368736e+00 +8.3334019227188616e+00 +2.6941743400000593e+02 -6.5826600056489206e+03 -1.4523995412125255e+05 
-2.6000000000000010e+00 -5.1490727320051589e-02 +1.1516600553045463e-01 +1.0199631459550980e+00 +8.3017865602977228e+00 +2.6239935380509667e+02 -6.2895365860898064e+03 -1.0673096354349148e+05 
-2.7000000000000011e+00 -5.1490738274805728e-02 +1.1516390225564650e-01 +1.0202668298283166e+00 +8.2707724099369173e+00 +2.5388054795798692e+02 -5.9936981430744372e+03 -6.0556006471891698e+04 
-2.8000000000000012e+00 -5.1490748739958299e-02 +1.1516169464288677e-01 +1.0206379960946312e+00 +8.2404453524293526e+00 +2.4396816046221801e+02 -5.6966509127606896e+03 -7.3194635121379024e+03 
-2.9000000000000012e+00 -5.1490758830192253e-02 +1.1515939627066214e-01 +1.0210731473373653e+00 +8.2108912670707852e+00 +2.3276933125766294e+02 -5.3999010739934101e+03 +5.2374314216658953e+04 
-3.0000000000000013e+00 -5.1490768660192004e-02 +1.1515702071731038e-01 +1.0215687862544418e+00 +8.1821960250923382e+00 +2.2039119654759330e+02 -5.1049547088007184e+03 +1.1792100485795538e+05 
-3.1000000000000014e+00 -5.1490778344644855e-02 +1.1515458156037113e-01 +1.0221214157755276e+00 +8.1544455068842137e+00 +2.0694088672370418e+02 -4.8133178958299413e+03 +1.8871632588372848e+05 
-3.2000000000000015e+00 -5.1490787998241874e-02 +1.1515209237725139e-01 +1.0227275391994741e+00 +8.1277255812269988e+00 +1.9252552350907754e+02 -4.5264965839832803e+03 +2.6415604895272705e+05 
-3.3000000000000016e+00 -5.1490797735676469e-02 +1.1514956674495876e-01 +1.0233836599571968e+00 +8.1021221128218990e+00 +1.7725222460181757e+02 -4.2459966342388307e+03 +3.4363597809031920e+05 
-3.4000000000000017e+00 -5.1490807671645780e-02 +1.1514701823965560e-01 +1.0240862818383423e+00 +8.0777209732479154e+00 +1.6122809897027298e+02 -3.9733238760135955e+03 +4.2655197368370555e+05 
-3.5000000000000018e+00 -5.1490817920850251e-02 +1.1514446043730783e-01 +1.0248319088236786e+00 +8.0546080215690274e+00 +1.4456025052763738e+02 -3.7099839910283390e+03 +5.1229993435054075e+05 
-3.6000000000000019e+00 -5.1490828597994323e-02 +1.1514190691320406e-01 +1.0256170452469271e+00 +8.0328691172514688e+00 +1.2735577441260565e+02 -3.4574825844056650e+03 +6.0027581701846956e+05 
-3.7000000000000020e+00 -5.1490839817786481e-02 +1.1513937124200883e-01 +1.0264381957543922e+00 +8.0125901169906317e+00 +1.0972175793721441e+02 -3.2173251594941785e+03 +6.8987563246144692e+05 
-3.8000000000000020e+00 -5.1490851694939208e-02 +1.1513686699768050e-01 +1.0272918652420686e+00 +7.9938568766364542e+00 +9.1765282023005653e+01 -2.9910171267152732e+03 +7.8049543846730294e+05 
-3.9000000000000021e+00 -5.1490864344170606e-02 +1.1513440775365673e-01 +1.0281745591108549e+00 +7.9767552441636855e+00 +7.3593415772767500e+01 -2.7800637555929479e+03 +8.7153136782926950e+05 
-4.0000000000000018e+00 -5.1490877880200708e-02 +1.1513200708283294e-01 +1.0290827827665334e+00 +7.9613710566624638e+00 +5.5313225761535257e+01 -2.5859701432632451e+03 +9.6237958599046734e+05 
-4.1000000000000014e+00 -5.1490892390630157e-02 +1.1512967647962952e-01 +1.0300127362391296e+00 +7.9477344767422471e+00 +3.7027095328469898e+01 -2.4096636624240723e+03 +1.0524863280852046e+06 
-4.2000000000000011e+00 -5.1490907851232642e-02 +1.1512741723276308e-01 +1.0309590400131932e+00 +7.9357026006103784e+00 +1.8830696687389786e+01 -2.2500853713966062e+03 +1.1414241070106514e+06 
-4.3000000000000007e+00 -5.1490924209034145e-02 +1.1512522765292157e-01 +1.0319158417968823e+00 +7.9250992246648755e+00 +8.2077161471322801e-01 -2.1057443033952673e+03 +1.2287799904984187e+06 
-4.4000000000000004e+00 -5.1490941411057964e-02 +1.1512310605093076e-01 +1.0328772888699091e+00 +7.9157481415960360e+00 -1.6905926629536467e+01 -1.9751495053489762e+03 +1.3141409749859206e+06 
-4.5000000000000000e+00 -5.1490959404323383e-02 +1.1512105073796369e-01 +1.0338375279152685e+00 +7.9074731369673881e+00 -3.4252630297130473e+01 -1.8568100217021577e+03 +1.3970939709161900e+06 
-4.5999999999999996e+00 -5.1490978135846660e-02 +1.1511906002570443e-01 +1.0347907051132594e+00 +7.9000979841550842e+00 -5.1122558461147911e+01 -1.7492348663161204e+03 +1.4772258069856323e+06 
-4.6999999999999993e+00 -5.1490997552643358e-02 +1.1511713222577072e-01 +1.0357309664719290e+00 +7.8934464625890914e+00 -6.7418923434285631e+01 -1.6509331348673620e+03 +1.5541232603170245e+06 
-4.7999999999999989e+00 -5.1491017601725302e-02 +1.1511526565058508e-01 +1.0366524574272067e+00 +7.8873423324970284e+00 -8.3044922682760102e+01 -1.5604138597972044e+03 +1.6273730159914654e+06 
-4.8999999999999986e+00 -5.1491038230098027e-02 +1.1511345861280657e-01 +1.0375493224943129e+00 +7.8816093520535659e+00 -9.7903731930535912e+01 -1.4761861144119291e+03 +1.6965616327859573e+06 
-4.9999999999999982e+00 -5.1491059384768230e-02 +1.1511170942550566e-01 +1.0384157062448449e+00 +7.8760712735989182e+00 -1.1189852378988188e+02 -1.3967589962799461e+03 +1.7612756313214018e+06 
-5.0999999999999979e+00 -5.1491081012734113e-02 +1.1511001640228105e-01 +1.0392457520375407e+00 +7.8705518394103757e+00 -1.2493244295084629e+02 -1.3206416023876370e+03 +1.8211013733924511e+06 
-5.1999999999999975e+00 -5.1491103060993415e-02 +1.1510837785728482e-01 +1.0400336030739543e+00 +7.8648747826170995e+00 -1.3690862645068242e+02 -1.2463430412380512e+03 +1.8756251582935180e+06 
-5.2999999999999972e+00 -5.1491125476536795e-02 +1.1510679210509861e-01 +1.0407734015344408e+00 +7.8588638314820347e+00 -1.4773018678573047e+02 -1.1723724617935077e+03 +1.9244331405319537e+06 
-5.3999999999999968e+00 -5.1491148206352783e-02 +1.1510525746082707e-01 +1.0414592891958885e+00 +7.8523427065220712e+00 -1.5730022343738750e+02 -1.0972390381407654e+03 +1.9671113833183690e+06 
-5.4999999999999964e+00 -5.1491171197423934e-02 +1.1510377224024280e-01 +1.0420854069593366e+00 +7.8451351171621564e+00 -1.6552181366073384e+02 -1.0194519547375239e+03 +2.0032458134317866e+06 
-5.5999999999999961e+00 -5.1491194396726440e-02 +1.1510233475963991e-01 +1.0426458947896005e+00 +7.8370647672931986e+00 -1.7229801121590756e+02 -9.3752044429937621e+02 +2.0324222142417908e+06 
-5.6999999999999957e+00 -5.1491217751235725e-02 +1.1510094333606294e-01 +1.0431348924355757e+00 +7.8279553477608426e+00 -1.7753185979906706e+02 -8.4995374367736895e+02 +2.0542262880178711e+06 
-5.7999999999999954e+00 -5.1491241207918120e-02 +1.1509959628711235e-01 +1.0435465383065390e+00 +7.8176305439799094e+00 -1.8112637108042387e+02 -7.5526114603080941e+02 +2.0682435492899399e+06 
-5.8999999999999950e+00 -5.1491264713734761e-02 +1.1509829193107073e-01 +1.0438749700774246e+00 +7.8059140320753553e+00 -1.8298453665703568e+02 -6.5195197959906614e+02 +2.0740593821096667e+06 
-5.9999999999999947e+00 -5.1491288215642042e-02 +1.1509702858650242e-01 +1.0441143245933158e+00 +7.7926294978589388e+00 -1.8300932434382148e+02 -5.3853575831479009e+02 +2.0712590143334717e+06 
-6.0999999999999943e+00 -5.1491311665427711e-02 +1.1509580271061817e-01 +1.0442603883433919e+00 +7.7777158703730214e+00 -1.8113864432607494e+02 -4.1433455406078917e+02 +2.0595900037792576e+06 
-6.1999999999999940e+00 -5.1491335039927345e-02 +1.1509460015921351e-01 +1.0443165252158131e+00 +7.7616579114455817e+00 -1.7747596204352243e+02 -2.8229701798469517e+02 +2.0395944588128845e+06 
-6.2999999999999936e+00 -5.1491358323479529e-02 +1.1509340320406519e-01 +1.0442882273461478e+00 +7.7451041087043082e+00 -1.7217248442742718e+02 -1.4641199898984843e+02 +2.0120488644930292e+06 
-6.3999999999999932e+00 -5.1491381500418550e-02 +1.1509219411787949e-01 +1.0441809864573770e+00 +7.7287029579450808e+00 -1.6537941615524630e+02 -1.0668441810909858e+01 +1.9777297215527976e+06 
-6.4999999999999929e+00 -5.1491404555076052e-02 +1.1509095517456132e-01 +1.0440002940426920e+00 +7.7131029490007119e+00 -1.5724796242972803e+02 +1.2094469386883056e+02 +1.9374135594890087e+06 
-6.5999999999999925e+00 -5.1491427471776700e-02 +1.1508966864940336e-01 +1.0437516408477288e+00 +7.6989525614070562e+00 -1.4792931921564610e+02 +2.4443845698966274e+02 +1.8918768907025382e+06 
-6.6999999999999922e+00 -5.1491450234841696e-02 +1.1508831681932560e-01 +1.0434405172370971e+00 +7.6869002585111712e+00 -1.3757468018978653e+02 +3.5582393856521077e+02 +1.8418962443968998e+06 
-6.7999999999999918e+00 -5.1491472828588562e-02 +1.1508688196233066e-01 +1.0430724132544107e+00 +7.6775945050090426e+00 -1.2633523844923452e+02 +4.5111216601173419e+02 +1.7882481766336996e+06 
-6.8999999999999915e+00 -5.1491495237327968e-02 +1.1508534635842954e-01 +1.0426528181895451e+00 +7.6716837399343252e+00 -1.1436217830176003e+02 +5.2631426282322116e+02 +1.7317092320128104e+06 
-6.9999999999999911e+00 -5.1491517445365870e-02 +1.1508369228892563e-01 +1.0421872208632057e+00 +7.6698163996471322e+00 -1.0180668102900864e+02 +5.7744131028041670e+02 +1.6730559727227930e+06 
-7.0999999999999908e+00 -5.1491539437003533e-02 +1.1508190203674487e-01 +1.0416811096428149e+00 +7.6726409092517605e+00 -8.8819925436550548e+01 +6.0050439614526510e+02 +1.6130649823322366e+06 
-7.1999999999999904e+00 -5.1491561196536396e-02 +1.1507995788667590e-01 +1.0411399722712138e+00 +7.6808056768210182e+00 -7.5553084552235816e+01 +5.9151464648697265e+02 +1.5525128506530498e+06 
-7.2999999999999901e+00 -5.1491582708254560e-02 +1.1507784212509647e-01 +1.0405692960112103e+00 +7.6949591012757050e+00 -6.2157329201518564e+01 +5.4648318252756303e+02 +1.4921761935644292e+06 
-7.3999999999999897e+00 -5.1491603956442790e-02 +1.1507553704009590e-01 +1.0399745675378145e+00 +7.7157495716461106e+00 -4.8783825353321710e+01 +4.6142111770006557e+02 +1.4328316393440126e+06 
-7.4999999999999893e+00 -5.1491624925380050e-02 +1.1507302492167512e-01 +1.0393612729901003e+00 +7.7438254613897941e+00 -3.5583736091972604e+01 +3.3233959273112663e+02 +1.3752558413757239e+06 
-7.5999999999999890e+00 -5.1491645599338845e-02 +1.1507028806168788e-01 +1.0387348978602515e+00 +7.7798351316187766e+00 -2.2708219504774554e+01 +1.5524975442394580e+02 +1.3202254687003873e+06 
-7.6999999999999886e+00 -5.1491665962585940e-02 +1.1506730875381929e-01 +1.0381009270443708e+00 +7.8244269324253812e+00 -1.0308429537853895e+01 -7.3837252926440456e+01 +1.2685172103439162e+06 
-7.7999999999999883e+00 -5.1491685999382829e-02 +1.1506406929375575e-01 +1.0374648449689903e+00 +7.8782491996598329e+00 +1.4644809568301600e+00 -3.5891027135249050e+02 +1.2209077922045467e+06 
-7.8999999999999879e+00 -5.1491705693983619e-02 +1.1506055197926511e-01 +1.0368321353127457e+00 +7.9419502529578612e+00 +1.2459365319920064e+01 -7.0395811706116729e+02 +1.1781739539440176e+06 
-7.9999999999999876e+00 -5.1491725030639555e-02 +1.1505673911119736e-01 +1.0362082817021050e+00 +8.0161783603346759e+00 +2.2525068024438617e+01 -1.1129692828159079e+03 +1.1410925336368927e+06 
-8.0999999999999872e+00 -5.1491744013770574e-02 +1.1505262224826002e-01 +1.0355990522527965e+00 +8.1013152033361990e+00 +3.1519953284651468e+01 -1.5883566973848187e+03 +1.1103744402709631e+06 
-8.1999999999999869e+00 -5.1491762725546342e-02 +1.1504823437864249e-01 +1.0350099658052083e+00 +8.1965174135311170e+00 +3.9377279870669405e+01 -2.1254433852247189e+03 +1.0862592866895306e+06 
-8.2999999999999865e+00 -5.1491781267333496e-02 +1.1504362025599951e-01 +1.0344461706683772e+00 +8.3005839972681166e+00 +4.6057936434228992e+01 -2.7175078042185278e+03 +1.0688182016434423e+06 
-8.3999999999999861e+00 -5.1491799740512940e-02 +1.1503882463054636e-01 +1.0339128162960822e+00 +8.4123140227437769e+00 +5.1522800724893692e+01 -3.3578287625323587e+03 +1.0581223293074563e+06 
-8.4999999999999858e+00 -5.1491818246486812e-02 +1.1503389224727559e-01 +1.0334150542895659e+00 +8.5305066938283556e+00 +5.5732716710258977e+01 -4.0396858434904575e+03 +1.0542429447296974e+06 
-8.5999999999999854e+00 -5.1491836886675038e-02 +1.1502886784620842e-01 +1.0329580380366135e+00 +8.6539613407098113e+00 +5.8648501186829499e+01 -4.7563593452991272e+03 +1.0572514224686618e+06 
-8.6999999999999851e+00 -5.1491855762514589e-02 +1.1502379616165515e-01 +1.0325469225025050e+00 +8.7814774419661994e+00 +6.0230948687973417e+01 -5.5011304132295900e+03 +1.0672192104023059e+06 
-8.7999999999999847e+00 -5.1491874975464813e-02 +1.1501872192249557e-01 +1.0321868649634363e+00 +8.9118546143212001e+00 +6.0440817203629756e+01 -6.2672809741149067e+03 +1.0842178981146647e+06 
-8.8999999999999844e+00 -5.1491894627003570e-02 +1.1501368985201917e-01 +1.0318830244592971e+00 +9.0438926174466339e+00 +5.9238839091591252e+01 -7.0480937664079111e+03 +1.1083191632568657e+06 
-8.9999999999999840e+00 -5.1491914818629421e-02 +1.1500874466742769e-01 +1.0316405621055438e+00 +9.1763913665446140e+00 +5.6585715173063619e+01 -7.8368524088729746e+03 +1.1395947990828785e+06 
-9.0999999999999837e+00 -5.1491935651863059e-02 +1.1500393107986076e-01 +1.0314646411862751e+00 +9.3081509324487168e+00 +5.2442113525044427e+01 -8.6268414046595117e+03 +1.1781167183122421e+06 
-9.1999999999999833e+00 -5.1491957228247849e-02 +1.1499929379436206e-01 +1.0313604272755115e+00 +9.4379715396371520e+00 +4.6768667068734601e+01 -9.4113461220513000e+03 +1.2239569644376514e+06 
-9.2999999999999829e+00 -5.1491979649347069e-02 +1.1499487750939053e-01 +1.0313330878418165e+00 +9.5646535816275442e+00 +3.9525981517674850e+01 -1.0183652889084451e+04 +1.2771876723583429e+06 
-9.3999999999999826e+00 -5.1492003016750887e-02 +1.1499072691721250e-01 +1.0313877931290467e+00 +9.6869976073358028e+00 +3.0674618734879886e+01 -1.0937048907785040e+04 +1.3378811468060878e+06 
-9.4999999999999822e+00 -5.1492027432069681e-02 +1.1498688670284626e-01 +1.0315297152895997e+00 +9.8038043516409470e+00 +2.0175113532682879e+01 -1.1664822434029466e+04 +1.4061097811902016e+06 
-9.5999999999999819e+00 -5.1492052996940374e-02 +1.1498340154491533e-01 +1.0317640291608836e+00 +9.9138747096723545e+00 +7.9879591476460376e+00 -1.2360262624964027e+04 +1.4819461257137449e+06 
-9.6999999999999815e+00 -5.1492079813023478e-02 +1.1498031611470726e-01 +1.0320959119134259e+00 +1.0016009763354054e+01 -5.9263859113527193e+00 -1.3016659693445814e+04 +1.5654628537066374e+06 
-9.7999999999999812e+00 -5.1492107982005611e-02 +1.1497767507636894e-01 +1.0325305432933176e+00 +1.0109010774269224e+01 -2.1607502081463828e+01 -1.3627304862625129e+04 +1.6567327805196475e+06 
-9.8999999999999808e+00 -5.1492137605598717e-02 +1.1497552308659954e-01 +1.0330731055871583e+00 +1.0191679193274298e+01 -3.9095008168410629e+01 -1.4185490424775824e+04 +1.7558288604056537e+06 
-9.9999999999999805e+00 -5.1492168785539950e-02 +1.1497390479248676e-01 +1.0337287831770485e+00 +1.0262816716854291e+01 -5.8428550854203806e+01 -1.4684510166911781e+04 +1.8628241211432901e+06 
-1.0099999999999980e+01 -5.1492201595479813e-02 +1.1497285379505547e-01 +1.0344994204754685e+00 +1.0321469456348051e+01 -7.9596274954854351e+01 -1.5118958295879571e+04 +1.9775727942828652e+06 
