# multipoles
# s[mm] polynom_b[n=0][T/m^n] polynom_b[n=1][T/m^n] polynom_b[n=2][T/m^n] polynom_b[n=3][T/m^n] polynom_b[n=4][T/m^n] polynom_b[n=5][T/m^n] polynom_b[n=6][T/m^n] 
-0.0000000000000000e+00 -1.0322064756023313e+00 +2.3077024833694630e+00 +2.6142423956782370e+01 -3.8381411501256235e+02 -1.0759247131761187e+05 +3.3151622831246117e+06 +5.2726102926037377e+08 
-1.0005104645227200e-01 -1.0322043626350017e+00 +2.3082313083885908e+00 +2.6103597923181148e+01 -3.9044596683429438e+02 -1.0674465727633760e+05 +3.3171408488877001e+06 +5.2249225295491141e+08 
-2.0010209290454301e-01 -1.0322022518051868e+00 +2.3087548302386161e+00 +2.6061037444744681e+01 -3.9684038721483972e+02 -1.0580801930170813e+05 +3.3177115809560535e+06 +5.1730525624801809e+08 
-3.0015313935681498e-01 -1.0322001455370151e+00 +2.3092711087424433e+00 +2.6014891325647422e+01 -4.0295275197696384e+02 -1.0478643725931055e+05 +3.3166328072931059e+06 +5.1172221033711034e+08 
-4.0020418580908601e-01 -1.0321980462545333e+00 +2.3097782037584462e+00 +2.5965308357463641e+01 -4.0873843863459240e+02 -1.0368379080774772e+05 +3.3136628672818444e+06 +5.0576528561138284e+08 
-5.0025523226135804e-01 -1.0321959563816785e+00 +2.3102741751800724e+00 +2.5912437319906463e+01 -4.1415282637613444e+02 -1.0250395943517622e+05 +3.3085601115163281e+06 +4.9945665190471357e+08 
-6.0030627871362996e-01 -1.0321938783423130e+00 +2.3107570829359956e+00 +2.5856426987086614e+01 -4.1915129602684181e+02 -1.0125082258976350e+05 +3.3010829013822903e+06 +4.9281847916745394e+08 
-7.0035732516590099e-01 -1.0321918145600841e+00 +2.3112249869929427e+00 +2.5797426108129557e+01 -4.2368923011229055e+02 -9.9928259316377153e+04 +3.2909896092331908e+06 +4.8587293577038473e+08 
-8.0040837161817302e-01 -1.0321897674584999e+00 +2.3116759473570103e+00 +2.5735583418226764e+01 -4.2772201288826540e+02 -9.8540148486384176e+04 +3.2780386184391724e+06 +4.7864218966860718e+08 
-9.0045941807044405e-01 -1.0321877394609298e+00 +2.3121080240695808e+00 +2.5671047642439323e+01 -4.3120503017127322e+02 -9.7090368880288428e+04 +3.2619883221838744e+06 +4.7114840884134078e+08 
-1.0005104645227201e+00 -1.0321857329904822e+00 +2.3125192772152809e+00 +2.5603967478446009e+01 -4.3409366956273328e+02 -9.5582798867679900e+04 +3.2425971246079216e+06 +4.6341375981117219e+08 
-1.1005615109749900e+00 -1.0321837504700264e+00 +2.3129077669194560e+00 +2.5534491602329290e+01 -4.3634332035422608e+02 -9.4021316534585610e+04 +3.2196234401162686e+06 +4.5546040831276482e+08 
-1.2006125574272599e+00 -1.0321817943222464e+00 +2.3132715533498285e+00 +2.5462768673909949e+01 -4.3790937353748023e+02 -9.2409799795142651e+04 +3.1928256931929011e+06 +4.4731051987276691e+08 
-1.3006636038795301e+00 -1.0321798669694715e+00 +2.3136086967171039e+00 +2.5388947319804803e+01 -4.3874722181156926e+02 -9.0752126079933005e+04 +3.1619623183450699e+06 +4.3898625837200010e+08 
-1.4007146503318000e+00 -1.0321779708338079e+00 +2.3139172572751820e+00 +2.5313176147852587e+01 -4.3881225956491630e+02 -8.9052172626070096e+04 +3.1267917597927875e+06 +4.3050978748761326e+08 
-1.5007656967840699e+00 -1.0321761083370298e+00 +2.3141952953266252e+00 +2.5235603737552154e+01 -4.3805988299535829e+02 -8.7313816306845663e+04 +3.0870724719795641e+06 +4.2190326993333858e+08 
-1.6008167432363500e+00 -1.0321742805111240e+00 +2.3144413813009370e+00 +2.5156331622343931e+01 -4.3646158554207193e+02 -8.5540208073766073e+04 +3.0426610264445306e+06 +4.1318516796884215e+08 
-1.7008677896886200e+00 -1.0321724829740861e+00 +2.3146560732710086e+00 +2.5075270835044343e+01 -4.3405205327548873e+02 -8.3731421535891350e+04 +2.9938007158910022e+06 +4.0435795075619513e+08 
-1.8009188361408901e+00 -1.0321707100252586e+00 +2.3148404138888754e+00 +2.4992284210965266e+01 -4.3088149927600250e+02 -8.1886718781561518e+04 +2.9408302459791820e+06 +3.9541979994413763e+08 
-1.9009698825931600e+00 -1.0321689559639027e+00 +2.3149954458594739e+00 +2.4907234588979705e+01 -4.2700013807722922e+02 -8.0005362078547652e+04 +2.8840883297532201e+06 +3.8636889832824028e+08 
-2.0010209290454299e+00 -1.0321672150892660e+00 +2.3151222119373074e+00 +2.4819984821607779e+01 -4.2245818551388902e+02 -7.8086614076148093e+04 +2.8239136866288576e+06 +3.7720343082153314e+08 
-2.1010719754977001e+00 -1.0321654817005677e+00 +2.3152217549244001e+00 +2.4730397771944503e+01 -4.1730585856432367e+02 -7.6129737736810886e+04 +2.7606450411954271e+06 +3.6792158406577903e+08 
-2.2011230219499698e+00 -1.0321637500970218e+00 +2.3152951176832612e+00 +2.4638336320764157e+01 -4.1159337568110402e+02 -7.4133996479921319e+04 +2.6946211250624191e+06 +3.5852154711831605e+08 
-2.3011740684022501e+00 -1.0321620145778998e+00 +2.3153433431231205e+00 +2.4543663372872448e+01 -4.0537095629150127e+02 -7.2098654291872605e+04 +2.6261806736904080e+06 +3.4900151191441631e+08 
-2.4012251148545198e+00 -1.0321602694424847e+00 +2.3153674742159676e+00 +2.4446241851971564e+01 -3.9868882122675558e+02 -7.0022975636681324e+04 +2.5556624287830456e+06 +3.3935967283938849e+08 
-2.5012761613067900e+00 -1.0321585089901839e+00 +2.3153685539845030e+00 +2.4345934715895414e+01 -3.9159719225555705e+02 -6.7906225733579267e+04 +2.4834051352787386e+06 +3.2959422798458689e+08 
-2.6013272077590601e+00 -1.0321567275204253e+00 +2.3153476255097614e+00 +2.4242604946853497e+01 -3.8414629227371415e+02 -6.5747670384347701e+04 +2.4097475424157120e+06 +3.1970337833799332e+08 
-2.7013782542113298e+00 -1.0321549193328190e+00 +2.3153057319339783e+00 +2.4136115568609249e+01 -3.7638634528701249e+02 -6.3546576289348865e+04 +2.3350284033235395e+06 +3.0968532922760397e+08 
-2.8014293006636000e+00 -1.0321530787270587e+00 +2.3152439164566814e+00 +2.4026329637101412e+01 -3.6836757623964871e+02 -6.1302210868846341e+04 +2.2595864739098274e+06 +2.9953828944367504e+08 
-2.9014803471158799e+00 -1.0321512000030237e+00 +2.3151632223373038e+00 +2.3913110254576065e+01 -3.6014021101194157e+02 -5.9013842539994104e+04 +2.1837605126453103e+06 +2.8926047255158395e+08 
-3.0015313935681500e+00 -1.0321492774607535e+00 +2.3150646928997367e+00 +2.3796320565297609e+01 -3.5175447648930088e+02 -5.6680740618583783e+04 +2.1078892808118784e+06 +2.7885009634943026e+08 
-3.1015824400204202e+00 -1.0321473054005050e+00 +2.3149493715290506e+00 +2.3675823766249518e+01 -3.4326060037475247e+02 -5.4302175540107375e+04 +2.0323115411673049e+06 +2.6830538394259620e+08 
-3.2016334864726899e+00 -1.0321452781227383e+00 +2.3148183016723860e+00 +2.3551483102353146e+01 -3.3470881116717499e+02 -5.1877418748987795e+04 +1.9573660577047088e+06 +2.5762456313204867e+08 
-3.3016845329249600e+00 -1.0321431899281792e+00 +2.3146725268458215e+00 +2.3423161878510101e+01 -3.2614933827433987e+02 -4.9405742945880374e+04 +1.8833915960895340e+06 +2.4680586761474550e+08 
-3.4017355793772301e+00 -1.0321410351177678e+00 +2.3145130906285205e+00 +2.3290723453511209e+01 -3.1763241176167696e+02 -4.6886421954314566e+04 +1.8107269220094772e+06 +2.3584753627294526e+08 
-3.5017866258295101e+00 -1.0321388079928424e+00 +2.3143410366578645e+00 +2.3154031259914536e+01 -3.0920826175680719e+02 -4.4318731048648413e+04 +1.7397107968120130e+06 +2.2474781456421533e+08 
-3.6018376722817802e+00 -1.0321365045141535e+00 +2.3141570723553317e+00 +2.3013018267785881e+01 -3.0091134678615083e+02 -4.1702508744251987e+04 +1.6705781889829230e+06 +2.1350602846945673e+08 
-3.7018887187340499e+00 -1.0321341265930069e+00 +2.3139606855585835e+00 +2.2867846120093137e+01 -2.9271832476907110e+02 -3.9039382379098490e+04 +1.6031819671975996e+06 +2.0212493053820780e+08 
-3.8019397651863200e+00 -1.0321316774723619e+00 +2.3137510878108283e+00 +2.2718722592722166e+01 -2.8459257106494368e+02 -3.6331324109706387e+04 +1.5372867048294430e+06 +1.9060793904156753e+08 
-3.9019908116385902e+00 -1.0321291603947489e+00 +2.3135274906280303e+00 +2.2565855402346759e+01 -2.7649746044023709e+02 -3.3580304889844330e+04 +1.4726569734732443e+06 +1.7895846604710484e+08 
-4.0020418580908599e+00 -1.0321265786022222e+00 +2.3132891054990981e+00 +2.2409452203895476e+01 -2.6839636710301926e+02 -3.0788294412725794e+04 +1.4090573434014483e+06 +1.6717991710022283e+08 
-4.1020929045431300e+00 -1.0321239353363556e+00 +2.3130351438715131e+00 +2.2249720586148385e+01 -2.6025266432675079e+02 -2.7957261018184752e+04 +1.3462523815894134e+06 +1.5527569075438598e+08 
-4.2021439509954099e+00 -1.0321212338382140e+00 +2.3127648171561312e+00 +2.2086868065794864e+01 -2.5202972462643092e+02 -2.5089171558819256e+04 +1.2840066529504056e+06 +1.4324917786232123e+08 
-4.3021949974476801e+00 -1.0321184773483110e+00 +2.3124773367143843e+00 +2.1921102083361088e+01 -2.4369091942164664e+02 -2.2185991323248971e+04 +1.2220847186103680e+06 +1.3110376120685689e+08 
-4.4022460438999502e+00 -1.0321156691065880e+00 +2.3121719138563543e+00 +2.1752629997184236e+01 -2.3519961900874691e+02 -1.9249683897501971e+04 +1.1602511359315820e+06 +1.1884281476198956e+08 
-4.5022970903522204e+00 -1.0321128123523708e+00 +2.3118477598362026e+00 +2.1581659080043408e+01 -2.2651919246524514e+02 -1.6282211097892476e+04 +1.0982704582122709e+06 +1.0646970335919218e+08 
-4.6023481368044896e+00 -1.0321099103243903e+00 +2.3115040858477682e+00 +2.1408396515093489e+01 -2.1761300757549662e+02 -1.3285532878622364e+04 +1.0359072344585189e+06 +9.3987782194015637e+07 
-4.7023991832567598e+00 -1.0321069662606717e+00 +2.3111401030179164e+00 +2.1233049385850141e+01 -2.0844443064411257e+02 -1.0261607127014648e+04 +9.7292600850529619e+05 +8.1400395805727288e+07 
-4.8024502297090397e+00 -1.0321039833985788e+00 +2.3107550224004152e+00 +2.1055824676896279e+01 -1.9897682636849621e+02 -7.2123896650676606e+03 +9.0909131849100871e+05 +6.8710878036931619e+07 
-4.9025012761613098e+00 -1.0321009649747845e+00 +2.3103480549733457e+00 +2.0876929271167022e+01 -1.8917355780793272e+02 -4.1398341973578854e+03 +8.4416769693090278e+05 +5.5922551782212690e+07 
-5.0025523226135800e+00 -1.0320979142251487e+00 +2.3099184116342344e+00 +2.0696569933112983e+01 -1.7899798625447329e+02 -1.0458919611211488e+03 +7.7791967014663212e+05 +4.3038727225477181e+07 
-5.1026033690658501e+00 -1.0320948343848053e+00 +2.3094653031949339e+00 +2.0514953316852807e+01 -1.6841347114296849e+02 +2.0674881168434285e+03 +7.1011175798110035e+05 +3.0062702586169332e+07 
-5.2026544155181202e+00 -1.0320917286880893e+00 +2.3089879403742479e+00 +2.0332285957536147e+01 -1.5738336985477213e+02 +5.1983596032120486e+03 +6.4050847286876198e+05 +1.6997763184218138e+07 
-5.3027054619703904e+00 -1.0320886003684850e+00 +2.3084855337956838e+00 +2.0148774261220350e+01 -1.4587103769938864e+02 +8.3447787606772108e+03 +5.6887431993690634e+05 +3.8471804404528122e+06 
-5.4027565084226703e+00 -1.0320854526586156e+00 +2.3079572939787965e+00 +1.9964624505867160e+01 -1.3383982768266418e+02 +1.1504804539251823e+04 +4.9497379587949195e+05 -9.3857881196938977e+06 
-5.5028075548749404e+00 -1.0320822887900276e+00 +2.3074024313485193e+00 +1.9780042813316371e+01 -1.2125309105914192e+02 +1.4676499070980570e+04 +4.1857139095232036e+05 -2.2697901294053137e+07 
-5.6028586013272097e+00 -1.0320791123078443e+00 +2.3068206810655694e+00 +1.9595261074785988e+01 -1.0808811749038261e+02 +1.7857340593829595e+04 +3.3950040676962334e+05 -3.6082644258745968e+07 
-5.7029096477794798e+00 -1.0320759283547929e+00 +2.3062136725444624e+00 +1.9410636589283122e+01 -9.4371745888241279e+01 +2.1042236739746371e+04 +2.5783399390661027e+05 -4.9519315593713015e+07 
-5.8029606942317500e+00 -1.0320727425377092e+00 +2.3055834618158006e+00 +1.9226561861569870e+01 -8.0141790331607851e+01 +2.4225417094909972e+04 +1.7369701290828956e+05 -6.2983489624917068e+07 
-5.9030117406840201e+00 -1.0320695604637169e+00 +2.3049321048175351e+00 +1.9043429407426881e+01 -6.5436063423134144e+01 +2.7401111287127489e+04 +8.7214320434861511e+04 -7.6450741164114326e+07 
-6.0030627871363000e+00 -1.0320663877403806e+00 +2.3042616574043686e+00 +1.8861631771029078e+01 -5.0292376687823044e+01 +3.0563548658046264e+04 -1.4892277952891031e+03 -8.9896643954752639e+07 
-6.1031138335885702e+00 -1.0320632299756156e+00 +2.3035741753289338e+00 +1.8681561512807420e+01 -3.4748540046591913e+01 +3.3706958514618171e+04 -9.2288779970508127e+04 -1.0329677190125547e+08 
-6.2031648800408403e+00 -1.0320600927777954e+00 +2.3028717142467374e+00 +1.8503611222753104e+01 -1.8842362034287437e+01 +3.6825569874481866e+04 -1.8505948666193718e+05 -1.1662669782685986e+08 
-6.3032159264931096e+00 -1.0320569817557306e+00 +2.3021563297175183e+00 +1.8328173515226212e+01 -2.6116498687311935e+00 +3.9913611585018545e+04 -2.7967650031904859e+05 -1.2986199407123116e+08 
-6.4032669729453797e+00 -1.0320539025187494e+00 +2.3014300771863359e+00 +1.8155641039543884e+01 +1.3905791033481348e+01 +4.2965312120455339e+04 -3.7601497785189032e+05 -1.4297823149417087e+08 
-6.5033180193976499e+00 -1.0320508606766592e+00 +2.3006950119995944e+00 +1.7986406471298608e+01 +3.0672156534579546e+01 +4.5974899764058136e+04 -4.7395007743244077e+05 -1.5595098036480463e+08 
-6.6033690658499298e+00 -1.0320478618398232e+00 +2.2999531893864211e+00 +1.7820862524507973e+01 +4.7649644287369654e+01 +4.8936602383694044e+04 -5.7335696129332820e+05 -1.6875580928580424e+08 
-6.7034201123021999e+00 -1.0320449116191737e+00 +2.2992066644609621e+00 +1.7659401949307782e+01 +6.4800453601955681e+01 +5.1844647485053036e+04 -6.7411079478650773e+05 -1.8136828544774190e+08 
-6.8034711587544701e+00 -1.0320420156262191e+00 +2.2984574922217860e+00 +1.7502417531643289e+01 +8.2086785411464234e+01 +5.4693262225845356e+04 -7.7608674599289207e+05 -1.9376397469353878e+08 
-6.9035222052067402e+00 -1.0320391794731247e+00 +2.2977077275435280e+00 +1.7350302105253729e+01 +9.9470842473842225e+01 +5.7476673197966236e+04 -8.7915998670609819e+05 -2.0591844048320791e+08 
-7.0035732516590103e+00 -1.0320364087726750e+00 +2.2969594251732630e+00 +1.7203448541866532e+01 +1.1691482941945566e+02 +6.0189106625835753e+04 -9.8320569257011090e+05 -2.1780724484606859e+08 
-7.1036242981112796e+00 -1.0320337091383518e+00 +2.2962146397332042e+00 +1.7062249762811103e+01 +1.3438095261246127e+02 +6.2824788149280837e+04 -1.0880990420256413e+06 -2.2940594733203965e+08 
-7.2036753445635497e+00 -1.0320310861843429e+00 +2.2954754257101033e+00 +1.6927098738024451e+01 +1.5183142043508707e+02 +6.5377942858058952e+04 -1.1937152178682412e+06 -2.4069010519345081e+08 
-7.3037263910158297e+00 -1.0320285455255420e+00 +2.2947438374577511e+00 +1.6798388483711150e+01 +1.6922844313111059e+02 +6.7842795337548727e+04 -1.2999294061006312e+06 -2.5163527357852808e+08 
-7.4037774374680998e+00 -1.0320260927776503e+00 +2.2940219291875383e+00 +1.6676512076452958e+01 +1.8653423305633601e+02 +7.0213569420107830e+04 -1.4066167972348027e+06 -2.6221700438013563e+08 
-7.5038284839203699e+00 -1.0320237335570366e+00 +2.2933117549590940e+00 +1.6561862625890896e+01 +2.0371100176429269e+02 +7.2484488416404783e+04 -1.5136525517076498e+06 -2.7241084543388593e+08 
-7.6038795303726401e+00 -1.0320214714746223e+00 +2.2926148672659581e+00 +1.6454711171967034e+01 +2.2072914223132827e+02 +7.4651290778411014e+04 -1.6209277621276956e+06 -2.8219773601523083e+08 
-7.7039305768249102e+00 -1.0320193029980869e+00 +2.2919309772797276e+00 +1.6354936828536733e+01 +2.3759091003911925e+02 +7.6714377563162387e+04 -1.7284046168782141e+06 -2.9157616159087688e+08 
-7.8039816232771804e+00 -1.0320172230088882e+00 +2.2912593715094647e+00 +1.6262341911678092e+01 +2.5430619930429876e+02 +7.8675000129667431e+04 -1.8360627516167811e+06 -3.0054804148376071e+08 
-7.9040326697294496e+00 -1.0320152263887474e+00 +2.2905993364864328e+00 +1.6176728801627725e+01 +2.7088490562930764e+02 +8.0534408096379411e+04 -1.9438818164988398e+06 -3.0911528523997515e+08 
-8.0040837161817304e+00 -1.0320133080195759e+00 +2.2899501587568198e+00 +1.6097899937550675e+01 +2.8733692652251142e+02 +8.2293849415463977e+04 -2.0518414804022284e+06 -3.1727979279595000e+08 
-8.1041347626340006e+00 -1.0320114627834902e+00 +2.2893111248860896e+00 +1.6025657818078564e+01 +3.0367216140045326e+02 +8.3954570341220300e+04 -2.1599214314030064e+06 -3.2504345426306707e+08 
-8.2041858090862707e+00 -1.0320096855628698e+00 +2.2886815214589329e+00 +1.5959805012365877e+01 +3.1990051164782841e+02 +8.5517815193321250e+04 -2.2681013773268349e+06 -3.3240814872576189e+08 
-8.3042368555385409e+00 -1.0320079712402837e+00 +2.2880606350877861e+00 +1.5900144151504707e+01 +3.3603188048854958e+02 +8.6984826503674194e+04 -2.3763610454156143e+06 -3.3937574489369953e+08 
-8.4042879019908092e+00 -1.0320063146985561e+00 +2.2874477524013042e+00 +1.5846477937581202e+01 +3.5207617339129973e+02 +8.8356844823250271e+04 -2.4846801849499047e+06 -3.4594810011771643e+08 
-8.5043389484430794e+00 -1.0320047108207369e+00 +2.2868421600608291e+00 +1.5798609142966322e+01 +3.6804329770703731e+02 +8.9635108713476613e+04 -2.5930385655115452e+06 -3.5212706028655660e+08 
-8.6043899948953602e+00 -1.0320031544901365e+00 +2.2862431447510563e+00 +1.5756340612114565e+01 +3.8394316299966027e+02 +9.0820854692539069e+04 -2.7014159792055842e+06 -3.5791445951446682e+08 
-8.7044410413476303e+00 -1.0320016405903221e+00 +2.2856499931912015e+00 +1.5719475268214177e+01 +3.9978568085729120e+02 +9.1915317084640032e+04 -2.8097922399305943e+06 -3.6331211935382444e+08 
-8.8044920877999004e+00 -1.0320001640050900e+00 +2.2850619921309980e+00 +1.5687816105916481e+01 +4.1558076505565396e+02 +9.2919728143548040e+04 -2.9181471845932496e+06 -3.6832184933757842e+08 
-8.9045431342521706e+00 -1.0319987196185600e+00 +2.2844784283534336e+00 +1.5661166207880253e+01 +4.3133833160467151e+02 +9.3835317710807605e+04 -3.0264606737646940e+06 -3.7294544527632743e+08 
-9.0045941807044407e+00 -1.0319973023150355e+00 +2.2838985886739431e+00 +1.5639328726746188e+01 +4.4706829884997677e+02 +9.4663313543525321e+04 -3.1347125925737969e+06 -3.7718469077194041e+08 
-9.1046452271567109e+00 -1.0319959069791895e+00 +2.2833217599555327e+00 +1.5622106911781195e+01 +4.6278058713036586e+02 +9.5404940778494492e+04 -3.2428828490533670e+06 -3.8104135458370161e+08 
-9.2046962736089899e+00 -1.0319945284959084e+00 +2.2827472290891047e+00 +1.5609304087800776e+01 +4.7848511943876167e+02 +9.6061422323273393e+04 -3.3509513783062259e+06 -3.8451719246068341e+08 
-9.3047473200612600e+00 -1.0319931617503904e+00 +2.2821742830148306e+00 +1.5600723671568765e+01 +4.9419182089386851e+02 +9.6633978516182658e+04 -3.4588981397529021e+06 -3.8761394544126987e+08 
-9.4047983665135302e+00 -1.0319918016281351e+00 +2.2816022087123558e+00 +1.5596169170058765e+01 +5.0991061912086701e+02 +9.7123827136841952e+04 -3.5667031197011704e+06 -3.9033333983560973e+08 
-9.5048494129658003e+00 -1.0319904430151241e+00 +2.2810302931402062e+00 +1.5595444189499927e+01 +5.2565144527292898e+02 +9.7532183161454945e+04 -3.6743463455800512e+06 -3.9267708665042925e+08 
-9.6049004594180705e+00 -1.0319890821407152e+00 +2.2804583869506128e+00 +1.5598313233029240e+01 +5.4140992690009512e+02 +9.7861563945503964e+04 -3.7817361930244346e+06 -3.9465414197714674e+08 
-9.7049515058703406e+00 -1.0319877202488761e+00 +2.2798886365758499e+00 +1.5604395073429405e+01 +5.5712386238048202e+02 +9.8119518015248716e+04 -3.8884876397158168e+06 -3.9630129284121650e+08 
-9.8050025523226108e+00 -1.0319863597566765e+00 +2.2793237675595224e+00 +1.5613273832248295e+01 +5.7271649992880032e+02 +9.8314822793476415e+04 -3.9941413380126683e+06 -3.9766209955270934e+08 
-9.9050535987748898e+00 -1.0319850030831228e+00 +2.2787665054541106e+00 +1.5624533873808444e+01 +5.8811108701454850e+02 +9.8456251049314378e+04 -4.0982379342466774e+06 -3.9878010062531000e+08 
-1.0005104645227201e+01 -1.0319836526492647e+00 +2.2782195758186323e+00 +1.5637759822478008e+01 +6.0323087044312183e+02 +9.8552570564251277e+04 -4.2003180687720682e+06 -3.9969881121963197e+08 
-1.0105155691679400e+01 -1.0319823108782058e+00 +2.2776857042180456e+00 +1.5652536561148093e+01 +6.1799909635516690e+02 +9.8612544159166428e+04 -4.2999223759525446e+06 -4.0046172327889037e+08 
