# field on trajectory
# s[mm] rx[mm] ry[mm] rz[mm] bx[T] by[T] bz[T]
-0.0000000000000000e+00 +9.1476323485342608e+00 +0.0000000000000000e+00 -0.0000000000000000e+00 +1.1254884075410308e-02 -1.0311792522652343e+00 -5.8816513452456025e-02
-1.0000000000000001e-01 +9.1476318316365202e+00 +0.0000000000000000e+00 -9.9999999998218805e-02 +1.1254993363804767e-02 -1.0311842580327966e+00 -5.8817179485173510e-02
-2.0000000000000001e-01 +9.1476302809427192e+00 +0.0000000000000000e+00 -1.9999999998574999e-01 +1.1255100368828109e-02 -1.0311892789360586e+00 -5.8817851560214317e-02
-2.9999999999999999e-01 +9.1476276964536503e+00 +0.0000000000000000e+00 -2.9999999995190701e-01 +1.1255204766807317e-02 -1.0311943083632416e+00 -5.8818529792252876e-02
-4.0000000000000002e-01 +9.1476240781675404e+00 +0.0000000000000000e+00 -3.9999999988600199e-01 +1.1255306234078156e-02 -1.0311993397034045e+00 -5.8819214295971492e-02
-5.0000000000000000e-01 +9.1476194260861501e+00 +0.0000000000000000e+00 -4.9999999977734699e-01 +1.1255404446984458e-02 -1.0312043663461692e+00 -5.8819905186055149e-02
-5.9999999999999998e-01 +9.1476137402094899e+00 +0.0000000000000000e+00 -5.9999999961525596e-01 +1.1255499081877656e-02 -1.0312093816814554e+00 -5.8820602577187062e-02
-6.9999999999999996e-01 +9.1476070205357907e+00 +0.0000000000000000e+00 -6.9999999938904001e-01 +1.1255589815116224e-02 -1.0312143790992179e+00 -5.8821306584043984e-02
-8.0000000000000004e-01 +9.1475992670650292e+00 +0.0000000000000000e+00 -7.9999999908801400e-01 +1.1255676323064952e-02 -1.0312193519891659e+00 -5.8822017321290922e-02
-9.0000000000000002e-01 +9.1475904798007797e+00 +0.0000000000000000e+00 -8.9999999870148795e-01 +1.1255758282094302e-02 -1.0312242937404903e+00 -5.8822734903576125e-02
-1.0000000000000000e+00 +9.1475806587394892e+00 +0.0000000000000000e+00 -9.9999999821877705e-01 +1.1255835368580174e-02 -1.0312291977416201e+00 -5.8823459445527457e-02
-1.1000000000000001e+00 +9.1475698038829201e+00 +0.0000000000000000e+00 -1.0999999976291901e+00 +1.1255907258902889e-02 -1.0312340573799226e+00 -5.8824191061746231e-02
-1.2000000000000000e+00 +9.1475579152292994e+00 +0.0000000000000000e+00 -1.1999999969220501e+00 +1.1255973629446926e-02 -1.0312388660414582e+00 -5.8824929866803301e-02
-1.3000000000000000e+00 +9.1475449927804107e+00 +0.0000000000000000e+00 -1.2999999960866500e+00 +1.1256034156600054e-02 -1.0312436171106911e+00 -5.8825675975233485e-02
-1.3999999999999999e+00 +9.1475310365362503e+00 +0.0000000000000000e+00 -1.3999999951123201e+00 +1.1256088516752949e-02 -1.0312483039702358e+00 -5.8826429501531399e-02
-1.5000000000000000e+00 +9.1475160464950402e+00 +0.0000000000000000e+00 -1.4999999939883699e+00 +1.1256136386298580e-02 -1.0312529200005842e+00 -5.8827190560146458e-02
-1.6000000000000001e+00 +9.1475000226585603e+00 +0.0000000000000000e+00 -1.5999999927041100e+00 +1.1256177591424757e-02 -1.0312574603847100e+00 -5.8827959159284252e-02
-1.7000000000000000e+00 +9.1474829650268106e+00 +0.0000000000000000e+00 -1.6999999912488499e+00 +1.1256212557489572e-02 -1.0312619275232722e+00 -5.8828734882329016e-02
-1.8000000000000000e+00 +9.1474648735980093e+00 +0.0000000000000000e+00 -1.7999999896119101e+00 +1.1256241859632607e-02 -1.0312663256212928e+00 -5.8829517206432799e-02
-1.8999999999999999e+00 +9.1474457483739400e+00 +0.0000000000000000e+00 -1.8999999877825899e+00 +1.1256266072978005e-02 -1.0312706588835485e+00 -5.8830305608708354e-02
-2.0000000000000000e+00 +9.1474255893528191e+00 +0.0000000000000000e+00 -1.9999999857502100e+00 +1.1256285772632199e-02 -1.0312749315146881e+00 -5.8831099566228215e-02
-2.1000000000000001e+00 +9.1474043965364302e+00 +0.0000000000000000e+00 -2.0999999835040901e+00 +1.1256301533681156e-02 -1.0312791477193166e+00 -5.8831898556022326e-02
-2.2000000000000002e+00 +9.1473821699247697e+00 +0.0000000000000000e+00 -2.1999999810335300e+00 +1.1256313931188110e-02 -1.0312833117021121e+00 -5.8832702055077110e-02
-2.2999999999999998e+00 +9.1473589095160595e+00 +0.0000000000000000e+00 -2.2999999783278602e+00 +1.1256323540191031e-02 -1.0312874276679225e+00 -5.8833509540333707e-02
-2.3999999999999999e+00 +9.1473346153120794e+00 +0.0000000000000000e+00 -2.3999999753763701e+00 +1.1256330935699969e-02 -1.0312914998218585e+00 -5.8834320488685858e-02
-2.5000000000000000e+00 +9.1473092873128206e+00 +0.0000000000000000e+00 -2.4999999721683901e+00 +1.1256336692694754e-02 -1.0312955323694055e+00 -5.8835134376978855e-02
-2.6000000000000001e+00 +9.1472829255165191e+00 +0.0000000000000000e+00 -2.5999999686932198e+00 +1.1256341386122474e-02 -1.0312995295165259e+00 -5.8835950682007913e-02
-2.7000000000000002e+00 +9.1472555299249496e+00 +0.0000000000000000e+00 -2.6999999649401798e+00 +1.1256345590894832e-02 -1.0313034954697455e+00 -5.8836768880516033e-02
-2.7999999999999998e+00 +9.1472271005398795e+00 +0.0000000000000000e+00 -2.7999999608985902e+00 +1.1256349881885768e-02 -1.0313074344362678e+00 -5.8837588449192631e-02
-2.8999999999999999e+00 +9.1471976373559905e+00 +0.0000000000000000e+00 -2.8999999565577501e+00 +1.1256354833929198e-02 -1.0313113506240870e+00 -5.8838408864672911e-02
-3.0000000000000000e+00 +9.1471671403768209e+00 +0.0000000000000000e+00 -2.9999999519069700e+00 +1.1256361021816005e-02 -1.0313152482420564e+00 -5.8839229603534382e-02
-3.1000000000000001e+00 +9.1471356096023904e+00 +0.0000000000000000e+00 -3.0999999469355801e+00 +1.1256369020291944e-02 -1.0313191315000156e+00 -5.8840050142296575e-02
-3.2000000000000002e+00 +9.1471030450308994e+00 +0.0000000000000000e+00 -3.1999999416328699e+00 +1.1256379404055118e-02 -1.0313230046088901e+00 -5.8840869957419335e-02
-3.2999999999999998e+00 +9.1470694466641493e+00 +0.0000000000000000e+00 -3.2999999359881800e+00 +1.1256392747753297e-02 -1.0313268717807784e+00 -5.8841688525300563e-02
-3.3999999999999999e+00 +9.1470348145021205e+00 +0.0000000000000000e+00 -3.3999999299908001e+00 +1.1256409625981607e-02 -1.0313307372290677e+00 -5.8842505322275238e-02
-3.5000000000000000e+00 +9.1469991485430509e+00 +0.0000000000000000e+00 -3.4999999236300501e+00 +1.1256430613280050e-02 -1.0313346051685335e+00 -5.8843319824613813e-02
-3.6000000000000001e+00 +9.1469624487887007e+00 +0.0000000000000000e+00 -3.5999999168952499e+00 +1.1256456099148417e-02 -1.0313384785978326e+00 -5.8844131609685449e-02
-3.7000000000000002e+00 +9.1469247152390807e+00 +0.0000000000000000e+00 -3.6999999097757001e+00 +1.1256485733123607e-02 -1.0313423556462107e+00 -5.8844940659483848e-02
-3.7999999999999998e+00 +9.1468859478924092e+00 +0.0000000000000000e+00 -3.7999999022607200e+00 +1.1256518979777873e-02 -1.0313462332253016e+00 -5.8845747057182429e-02
-3.8999999999999999e+00 +9.1468461467522495e+00 +0.0000000000000000e+00 -3.8999998943396199e+00 +1.1256555303712081e-02 -1.0313501082465448e+00 -5.8846550885978954e-02
-4.0000000000000000e+00 +9.1468053118132708e+00 +0.0000000000000000e+00 -3.9999998860017101e+00 +1.1256594169559569e-02 -1.0313539776211995e+00 -5.8847352229101632e-02
-4.0999999999999996e+00 +9.1467634430807898e+00 +0.0000000000000000e+00 -4.0999998772363098e+00 +1.1256635041988853e-02 -1.0313578382602766e+00 -5.8848151169811194e-02
-4.2000000000000002e+00 +9.1467205405512608e+00 +0.0000000000000000e+00 -4.1999998680327302e+00 +1.1256677385707669e-02 -1.0313616870745614e+00 -5.8848947791407549e-02
-4.2999999999999998e+00 +9.1466766042264602e+00 +0.0000000000000000e+00 -4.2999998583802803e+00 +1.1256720665465882e-02 -1.0313655209745605e+00 -5.8849742177232586e-02
-4.4000000000000004e+00 +9.1466316341046099e+00 +0.0000000000000000e+00 -4.3999998482682798e+00 +1.1256764346059137e-02 -1.0313693368704986e+00 -5.8850534410675510e-02
-4.5000000000000000e+00 +9.1465856301892607e+00 +0.0000000000000000e+00 -4.4999998376860297e+00 +1.1256807892331949e-02 -1.0313731316722785e+00 -5.8851324575176368e-02
-4.5999999999999996e+00 +9.1465385924768707e+00 +0.0000000000000000e+00 -4.5999998266228497e+00 +1.1256850769181485e-02 -1.0313769022894854e+00 -5.8852112754231592e-02
-4.7000000000000002e+00 +9.1464905209674292e+00 +0.0000000000000000e+00 -4.6999998150680504e+00 +1.1256892441560598e-02 -1.0313806456313430e+00 -5.8852899031397503e-02
-4.7999999999999998e+00 +9.1464414156644995e+00 +0.0000000000000000e+00 -4.7999998030109499e+00 +1.1256932374481159e-02 -1.0313843586066900e+00 -5.8853683490294434e-02
-4.9000000000000004e+00 +9.1463912765645095e+00 +0.0000000000000000e+00 -4.8999997904408596e+00 +1.1256970033017838e-02 -1.0313880381239819e+00 -5.8854466214612440e-02
-5.0000000000000000e+00 +9.1463401036692602e+00 +0.0000000000000000e+00 -4.9999997773470897e+00 +1.1257004882311019e-02 -1.0313916810912447e+00 -5.8855247288114365e-02
-5.0999999999999996e+00 +9.1462878969787305e+00 +0.0000000000000000e+00 -5.0999997637189498e+00 +1.1257036387570418e-02 -1.0313952844160641e+00 -5.8856026794640796e-02
-5.2000000000000002e+00 +9.1462346564911599e+00 +0.0000000000000000e+00 -5.1999997495457499e+00 +1.1257064014078456e-02 -1.0313988450055678e+00 -5.8856804818114693e-02
-5.2999999999999998e+00 +9.1461803822083105e+00 +0.0000000000000000e+00 -5.2999997348168204e+00 +1.1257087227193437e-02 -1.0314023597663888e+00 -5.8857581442545041e-02
-5.4000000000000004e+00 +9.1461250741284204e+00 +0.0000000000000000e+00 -5.3999997195214604e+00 +1.1257105492353175e-02 -1.0314058256046610e+00 -5.8858356752032062e-02
-5.5000000000000000e+00 +9.1460687322550296e+00 +0.0000000000000000e+00 -5.4999997036489701e+00 +1.1257118275078033e-02 -1.0314092394259768e+00 -5.8859130830770559e-02
-5.5999999999999996e+00 +9.1460113565845909e+00 +0.0000000000000000e+00 -5.5999996871886903e+00 +1.1257125249862859e-02 -1.0314125992648369e+00 -5.8859903773589149e-02
-5.7000000000000002e+00 +9.1459529471188894e+00 +0.0000000000000000e+00 -5.6999996701299196e+00 +1.1257126926801702e-02 -1.0314159076726224e+00 -5.8860675717505063e-02
-5.7999999999999998e+00 +9.1458935038561293e+00 +0.0000000000000000e+00 -5.7999996524619597e+00 +1.1257124024832798e-02 -1.0314191683286162e+00 -5.8861446810041282e-02
-5.9000000000000004e+00 +9.1458330267980994e+00 +0.0000000000000000e+00 -5.8999996341741401e+00 +1.1257117262831044e-02 -1.0314223849103719e+00 -5.8862217198678450e-02
-6.0000000000000000e+00 +9.1457715159465796e+00 +0.0000000000000000e+00 -5.9999996152557697e+00 +1.1257107359604848e-02 -1.0314255610936522e+00 -5.8862987030853159e-02
-6.0999999999999996e+00 +9.1457089712962301e+00 +0.0000000000000000e+00 -6.0999995956961603e+00 +1.1257095033893112e-02 -1.0314287005523806e+00 -5.8863756453956695e-02
-6.2000000000000002e+00 +9.1456453928523906e+00 +0.0000000000000000e+00 -6.1999995754846200e+00 +1.1257081004361378e-02 -1.0314318069585295e+00 -5.8864525615331044e-02
-6.2999999999999998e+00 +9.1455807806132707e+00 +0.0000000000000000e+00 -6.2999995546104604e+00 +1.1257065989599135e-02 -1.0314348839820946e+00 -5.8865294662268669e-02
-6.4000000000000004e+00 +9.1455151345771100e+00 +0.0000000000000000e+00 -6.3999995330630002e+00 +1.1257050708116348e-02 -1.0314379352910110e+00 -5.8866063742009860e-02
-6.5000000000000000e+00 +9.1454484547456794e+00 +0.0000000000000000e+00 -6.4999995108315600e+00 +1.1257035878340062e-02 -1.0314409645510751e+00 -5.8866833001740095e-02
-6.5999999999999996e+00 +9.1453807411171901e+00 +0.0000000000000000e+00 -6.5999994879054302e+00 +1.1257022218611403e-02 -1.0314439754258971e+00 -5.8867602588588974e-02
-6.7000000000000002e+00 +9.1453119936934399e+00 +0.0000000000000000e+00 -6.6999994642739402e+00 +1.1257010447182043e-02 -1.0314469715768115e+00 -5.8868372649627167e-02
-6.7999999999999998e+00 +9.1452422124761892e+00 +0.0000000000000000e+00 -6.7999994399263999e+00 +1.1257001282211090e-02 -1.0314499566628204e+00 -5.8869143331864895e-02
-6.9000000000000004e+00 +9.1451713974618905e+00 +0.0000000000000000e+00 -6.8999994148521200e+00 +1.1256995441762008e-02 -1.0314529343405394e+00 -5.8869914782250420e-02
-7.0000000000000000e+00 +9.1450995486523308e+00 +0.0000000000000000e+00 -6.9999993890404202e+00 +1.1256993643798984e-02 -1.0314559082641002e+00 -5.8870687147666745e-02
-7.0999999999999996e+00 +9.1450266660474906e+00 +0.0000000000000000e+00 -7.0999993624805997e+00 +1.1256996606183935e-02 -1.0314588820851041e+00 -5.8871460574930513e-02
-7.2000000000000002e+00 +9.1449527496438208e+00 +0.0000000000000000e+00 -7.1999993351619702e+00 +1.1257005046673282e-02 -1.0314618594525546e+00 -5.8872235210789908e-02
-7.2999999999999998e+00 +9.1448777994484391e+00 +0.0000000000000000e+00 -7.2999993070738700e+00 +1.1257019682914255e-02 -1.0314648440127583e+00 -5.8873011201921274e-02
-7.4000000000000004e+00 +9.1448018154560096e+00 +0.0000000000000000e+00 -7.3999992782055797e+00 +1.1257041232442389e-02 -1.0314678394093113e+00 -5.8873788694929444e-02
-7.5000000000000000e+00 +9.1447247976682995e+00 +0.0000000000000000e+00 -7.4999992485464304e+00 +1.1257070412677626e-02 -1.0314708492829820e+00 -5.8874567836343566e-02
-7.5999999999999996e+00 +9.1446467460835503e+00 +0.0000000000000000e+00 -7.5999992180857303e+00 +1.1257107725040500e-02 -1.0314738761636129e+00 -5.8875348643855262e-02
-7.7000000000000002e+00 +9.1445676607035296e+00 +0.0000000000000000e+00 -7.6999991868127999e+00 +1.1257152807393941e-02 -1.0314769181474568e+00 -5.8876130620077793e-02
-7.7999999999999998e+00 +9.1444875415300100e+00 +0.0000000000000000e+00 -7.7999991547169403e+00 +1.1257205081885310e-02 -1.0314799722244024e+00 -5.8876913138935054e-02
-7.9000000000000004e+00 +9.1444063885594495e+00 +0.0000000000000000e+00 -7.8999991217874603e+00 +1.1257263970870828e-02 -1.0314830353866151e+00 -5.8877695574446241e-02
-8.0000000000000000e+00 +9.1443242017936104e+00 +0.0000000000000000e+00 -7.9999990880136904e+00 +1.1257328896922485e-02 -1.0314861046286081e+00 -5.8878477300728260e-02
-8.0999999999999996e+00 +9.1442409812307197e+00 +0.0000000000000000e+00 -8.0999990533849306e+00 +1.1257399282835577e-02 -1.0314891769473653e+00 -5.8879257692000232e-02
-8.1999999999999993e+00 +9.1441567268743391e+00 +0.0000000000000000e+00 -8.1999990178904891e+00 +1.1257474551635723e-02 -1.0314922493424170e+00 -5.8880036122586028e-02
-8.3000000000000007e+00 +9.1440714387209105e+00 +0.0000000000000000e+00 -8.2999989815196997e+00 +1.1257554126586486e-02 -1.0314953188159699e+00 -5.8880811966919105e-02
-8.4000000000000004e+00 +9.1439851167722104e+00 +0.0000000000000000e+00 -8.3999989442618492e+00 +1.1257637431196267e-02 -1.0314983823729773e+00 -5.8881584599544817e-02
-8.5000000000000000e+00 +9.1438977610300203e+00 +0.0000000000000000e+00 -8.4999989061062706e+00 +1.1257723889225713e-02 -1.0315014370212490e+00 -5.8882353395124334e-02
-8.5999999999999996e+00 +9.1438093714890005e+00 +0.0000000000000000e+00 -8.5999988670422596e+00 +1.1257812924695231e-02 -1.0315044797715691e+00 -5.8883117728439099e-02
-8.6999999999999993e+00 +9.1437199481544802e+00 +0.0000000000000000e+00 -8.6999988270591402e+00 +1.1257903961891655e-02 -1.0315075076377520e+00 -5.8883876974392277e-02
-8.8000000000000007e+00 +9.1436294910247007e+00 +0.0000000000000000e+00 -8.7999987861462294e+00 +1.1257996425376093e-02 -1.0315105176367827e+00 -5.8884630508014367e-02
-8.9000000000000004e+00 +9.1435380000978608e+00 +0.0000000000000000e+00 -8.8999987442928301e+00 +1.1258089739990963e-02 -1.0315135067889030e+00 -5.8885377704465891e-02
-9.0000000000000000e+00 +9.1434454753775292e+00 +0.0000000000000000e+00 -8.9999987014882503e+00 +1.1258183330867054e-02 -1.0315164721176922e+00 -5.8886117939040292e-02
-9.0999999999999996e+00 +9.1433519168619295e+00 +0.0000000000000000e+00 -9.0999986577218195e+00 +1.1258276623431158e-02 -1.0315194106501968e+00 -5.8886850587168728e-02
-9.1999999999999993e+00 +9.1432573245492801e+00 +0.0000000000000000e+00 -9.1999986129828297e+00 +1.1258369043413140e-02 -1.0315223194170140e+00 -5.8887575024422989e-02
-9.3000000000000007e+00 +9.1431616984413608e+00 +0.0000000000000000e+00 -9.2999985672606194e+00 +1.1258460016853088e-02 -1.0315251954523845e+00 -5.8888290626518618e-02
-9.4000000000000004e+00 +9.1430650385381700e+00 +0.0000000000000000e+00 -9.3999985205444805e+00 +1.1258548970108733e-02 -1.0315280357943013e+00 -5.8888996769319087e-02
-9.5000000000000000e+00 +9.1429673448397004e+00 +0.0000000000000000e+00 -9.4999984728237195e+00 +1.1258635329862661e-02 -1.0315308374846084e+00 -5.8889692828839095e-02
-9.5999999999999996e+00 +9.1428686173459699e+00 +0.0000000000000000e+00 -9.5999984240876799e+00 +1.1258718682313292e-02 -1.0315335985054941e+00 -5.8890378347768203e-02
-9.6999999999999993e+00 +9.1427688560551807e+00 +0.0000000000000000e+00 -9.6999983743256504e+00 +1.1258799250544184e-02 -1.0315363205868437e+00 -5.8891053535041045e-02
-9.8000000000000007e+00 +9.1426680609726798e+00 +0.0000000000000000e+00 -9.7999983235269408e+00 +1.1258877416575299e-02 -1.0315390063932588e+00 -5.8891718766221179e-02
-9.9000000000000004e+00 +9.1425662320913492e+00 +0.0000000000000000e+00 -9.8999982716808805e+00 +1.1258953562101871e-02 -1.0315416585870325e+00 -5.8892374416963399e-02
-1.0000000000000000e+01 +9.1424633694165305e+00 +0.0000000000000000e+00 -9.9999982187767706e+00 +1.1259028068483839e-02 -1.0315442798280221e+00 -5.8893020863012686e-02
-1.0100000000000000e+01 +9.1423594729446602e+00 +0.0000000000000000e+00 -1.0099998164803900e+01 +1.1259101316736913e-02 -1.0315468727736392e+00 -5.8893658480208159e-02
-1.0199999999999999e+01 +9.1422545426793000e+00 +0.0000000000000000e+00 -1.0199998109751700e+01 +1.1259173687522293e-02 -1.0315494400787411e+00 -5.8894287644482866e-02
-1.0300000000000001e+01 +9.1421485786168795e+00 +0.0000000000000000e+00 -1.0299998053609301e+01 +1.1259245561137457e-02 -1.0315519843956014e+00 -5.8894908731867007e-02
-1.0400000000000000e+01 +9.1420415807609707e+00 +0.0000000000000000e+00 -1.0399997996366100e+01 +1.1259317317505999e-02 -1.0315545083738087e+00 -5.8895522118487989e-02
-1.0500000000000000e+01 +9.1419335491080194e+00 +0.0000000000000000e+00 -1.0499997938011500e+01 +1.1259389336168359e-02 -1.0315570146602360e+00 -5.8896128180573430e-02
-1.0600000000000000e+01 +9.1418244836597893e+00 +0.0000000000000000e+00 -1.0599997878534600e+01 +1.1259461996271777e-02 -1.0315595058989435e+00 -5.8896727294451619e-02
-1.0699999999999999e+01 +9.1417143844180693e+00 +0.0000000000000000e+00 -1.0699997817925000e+01 +1.1259535676560701e-02 -1.0315619847311261e+00 -5.8897319836553511e-02
-1.0800000000000001e+01 +9.1416032513792906e+00 +0.0000000000000000e+00 -1.0799997756171701e+01 +1.1259610755367327e-02 -1.0315644537950617e+00 -5.8897906183415005e-02
-1.0900000000000000e+01 +9.1414910845470292e+00 +0.0000000000000000e+00 -1.0899997693264300e+01 +1.1259687610601428e-02 -1.0315669157260114e+00 -5.8898486711677099e-02
-1.1000000000000000e+01 +9.1413778839177091e+00 +0.0000000000000000e+00 -1.0999997629191901e+01 +1.1259766619741176e-02 -1.0315693731561928e+00 -5.8899061798089097e-02
-1.1100000000000000e+01 +9.1412636494931299e+00 +0.0000000000000000e+00 -1.1099997563943900e+01 +1.1259848159823022e-02 -1.0315718287146787e+00 -5.8899631819508837e-02
-1.1199999999999999e+01 +9.1411483812750394e+00 +0.0000000000000000e+00 -1.1199997497509599e+01 +1.1259932607432157e-02 -1.0315742850273486e+00 -5.8900197152904808e-02
-1.1300000000000001e+01 +9.1410320792599205e+00 +0.0000000000000000e+00 -1.1299997429878401e+01 +1.1260020338693008e-02 -1.0315767447168318e+00 -5.8900758175358267e-02
-1.1400000000000000e+01 +9.1409147434512903e+00 +0.0000000000000000e+00 -1.1399997361039500e+01 +1.1260111729259127e-02 -1.0315792104024137e+00 -5.8901315264063704e-02
-1.1500000000000000e+01 +9.1407963738456193e+00 +0.0000000000000000e+00 -1.1499997290982201e+01 +1.1260207154303975e-02 -1.0315816847000023e+00 -5.8901868796331629e-02
-1.1600000000000000e+01 +9.1406769704464494e+00 +0.0000000000000000e+00 -1.1599997219695799e+01 +1.1260306845561197e-02 -1.0315841688850311e+00 -5.8902419057997299e-02
-1.1699999999999999e+01 +9.1405565332520098e+00 +0.0000000000000000e+00 -1.1699997147169800e+01 +1.1260410462713729e-02 -1.0315866588818208e+00 -5.8902965968628471e-02
