# trajectory
# s[mm] rx[mm] ry[mm] rz[mm] px[rad] py[rad] pz[rad]
-0.0000000000000000e+00 +9.1476323485342608e+00 +0.0000000000000000e+00 -0.0000000000000000e+00 -0.0000000000000000e+00 +0.0000000000000000e+00 +1.0000000000000000e+00
-1.0000000000000001e-01 +9.1476318316365202e+00 +0.0000000000000000e+00 -9.9999999998218805e-02 +1.0337959158503699e-05 +0.0000000000000000e+00 +9.9999999994656297e-01
-2.0000000000000001e-01 +9.1476302809427192e+00 +0.0000000000000000e+00 -1.9999999998574999e-01 +2.0675918315902499e-05 +0.0000000000000000e+00 +9.9999999978625298e-01
-2.9999999999999999e-01 +9.1476276964536503e+00 +0.0000000000000000e+00 -2.9999999995190701e-01 +3.1013877471091700e-05 +0.0000000000000000e+00 +9.9999999951907004e-01
-4.0000000000000002e-01 +9.1476240781675404e+00 +0.0000000000000000e+00 -3.9999999988600199e-01 +4.1351836622966303e-05 +0.0000000000000000e+00 +9.9999999914501303e-01
-5.0000000000000000e-01 +9.1476194260861501e+00 +0.0000000000000000e+00 -4.9999999977734699e-01 +5.1689795770421400e-05 +0.0000000000000000e+00 +9.9999999866408296e-01
-5.9999999999999998e-01 +9.1476137402094899e+00 +0.0000000000000000e+00 -5.9999999961525596e-01 +6.2027754912352296e-05 +0.0000000000000000e+00 +9.9999999807627904e-01
-6.9999999999999996e-01 +9.1476070205357907e+00 +0.0000000000000000e+00 -6.9999999938904001e-01 +7.2365714047654096e-05 +0.0000000000000000e+00 +9.9999999738160195e-01
-8.0000000000000004e-01 +9.1475992670650292e+00 +0.0000000000000000e+00 -7.9999999908801400e-01 +8.2703673175221903e-05 +0.0000000000000000e+00 +9.9999999658005101e-01
-9.0000000000000002e-01 +9.1475904798007797e+00 +0.0000000000000000e+00 -8.9999999870148795e-01 +9.3041632293950900e-05 +0.0000000000000000e+00 +9.9999999567162701e-01
-1.0000000000000000e+00 +9.1475806587394892e+00 +0.0000000000000000e+00 -9.9999999821877705e-01 +1.0337959140273600e-04 +0.0000000000000000e+00 +9.9999999465633005e-01
-1.1000000000000001e+00 +9.1475698038829201e+00 +0.0000000000000000e+00 -1.0999999976291901e+00 +1.1371755050047300e-04 +0.0000000000000000e+00 +9.9999999353415903e-01
-1.2000000000000000e+00 +9.1475579152292994e+00 +0.0000000000000000e+00 -1.1999999969220501e+00 +1.2405550958605600e-04 +0.0000000000000000e+00 +9.9999999230511505e-01
-1.3000000000000000e+00 +9.1475449927804107e+00 +0.0000000000000000e+00 -1.2999999960866500e+00 +1.3439346865838200e-04 +0.0000000000000000e+00 +9.9999999096919800e-01
-1.3999999999999999e+00 +9.1475310365362503e+00 +0.0000000000000000e+00 -1.3999999951123201e+00 +1.4473142771634400e-04 +0.0000000000000000e+00 +9.9999998952640701e-01
-1.5000000000000000e+00 +9.1475160464950402e+00 +0.0000000000000000e+00 -1.4999999939883699e+00 +1.5506938675883801e-04 +0.0000000000000000e+00 +9.9999998797674305e-01
-1.6000000000000001e+00 +9.1475000226585603e+00 +0.0000000000000000e+00 -1.5999999927041100e+00 +1.6540734578475899e-04 +0.0000000000000000e+00 +9.9999998632020504e-01
-1.7000000000000000e+00 +9.1474829650268106e+00 +0.0000000000000000e+00 -1.6999999912488499e+00 +1.7574530479300300e-04 +0.0000000000000000e+00 +9.9999998455679395e-01
-1.8000000000000000e+00 +9.1474648735980093e+00 +0.0000000000000000e+00 -1.7999999896119101e+00 +1.8608326378246400e-04 +0.0000000000000000e+00 +9.9999998268650903e-01
-1.8999999999999999e+00 +9.1474457483739400e+00 +0.0000000000000000e+00 -1.8999999877825899e+00 +1.9642122275203799e-04 +0.0000000000000000e+00 +9.9999998070935103e-01
-2.0000000000000000e+00 +9.1474255893528191e+00 +0.0000000000000000e+00 -1.9999999857502100e+00 +2.0675918170062001e-04 +0.0000000000000000e+00 +9.9999997862531997e-01
-2.1000000000000001e+00 +9.1474043965364302e+00 +0.0000000000000000e+00 -2.0999999835040901e+00 +2.1709714062710401e-04 +0.0000000000000000e+00 +9.9999997643441596e-01
-2.2000000000000002e+00 +9.1473821699247697e+00 +0.0000000000000000e+00 -2.1999999810335300e+00 +2.2743509953038700e-04 +0.0000000000000000e+00 +9.9999997413663699e-01
-2.2999999999999998e+00 +9.1473589095160595e+00 +0.0000000000000000e+00 -2.2999999783278602e+00 +2.3777305840936300e-04 +0.0000000000000000e+00 +9.9999997173198596e-01
-2.3999999999999999e+00 +9.1473346153120794e+00 +0.0000000000000000e+00 -2.3999999753763701e+00 +2.4811101726292701e-04 +0.0000000000000000e+00 +9.9999996922046097e-01
-2.5000000000000000e+00 +9.1473092873128206e+00 +0.0000000000000000e+00 -2.4999999721683901e+00 +2.5844897608997500e-04 +0.0000000000000000e+00 +9.9999996660206303e-01
-2.6000000000000001e+00 +9.1472829255165191e+00 +0.0000000000000000e+00 -2.5999999686932198e+00 +2.6878693488940198e-04 +0.0000000000000000e+00 +9.9999996387679102e-01
-2.7000000000000002e+00 +9.1472555299249496e+00 +0.0000000000000000e+00 -2.6999999649401798e+00 +2.7912489366010198e-04 +0.0000000000000000e+00 +9.9999996104464595e-01
-2.7999999999999998e+00 +9.1472271005398795e+00 +0.0000000000000000e+00 -2.7999999608985902e+00 +2.8946285240097098e-04 +0.0000000000000000e+00 +9.9999995810562803e-01
-2.8999999999999999e+00 +9.1471976373559905e+00 +0.0000000000000000e+00 -2.8999999565577501e+00 +2.9980081111090503e-04 +0.0000000000000000e+00 +9.9999995505973605e-01
-3.0000000000000000e+00 +9.1471671403768209e+00 +0.0000000000000000e+00 -2.9999999519069700e+00 +3.1013876978879700e-04 +0.0000000000000000e+00 +9.9999995190697100e-01
-3.1000000000000001e+00 +9.1471356096023904e+00 +0.0000000000000000e+00 -3.0999999469355801e+00 +3.2047672843354502e-04 +0.0000000000000000e+00 +9.9999994864733199e-01
-3.2000000000000002e+00 +9.1471030450308994e+00 +0.0000000000000000e+00 -3.1999999416328699e+00 +3.3081468704404098e-04 +0.0000000000000000e+00 +9.9999994528082004e-01
-3.2999999999999998e+00 +9.1470694466641493e+00 +0.0000000000000000e+00 -3.2999999359881800e+00 +3.4115264561918301e-04 +0.0000000000000000e+00 +9.9999994180743401e-01
-3.3999999999999999e+00 +9.1470348145021205e+00 +0.0000000000000000e+00 -3.3999999299908001e+00 +3.5149060415786402e-04 +0.0000000000000000e+00 +9.9999993822717603e-01
-3.5000000000000000e+00 +9.1469991485430509e+00 +0.0000000000000000e+00 -3.4999999236300501e+00 +3.6182856265897997e-04 +0.0000000000000000e+00 +9.9999993454004299e-01
-3.6000000000000001e+00 +9.1469624487887007e+00 +0.0000000000000000e+00 -3.5999999168952499e+00 +3.7216652112142699e-04 +0.0000000000000000e+00 +9.9999993074603799e-01
-3.7000000000000002e+00 +9.1469247152390807e+00 +0.0000000000000000e+00 -3.6999999097757001e+00 +3.8250447954409799e-04 +0.0000000000000000e+00 +9.9999992684515904e-01
-3.7999999999999998e+00 +9.1468859478924092e+00 +0.0000000000000000e+00 -3.7999999022607200e+00 +3.9284243792589099e-04 +0.0000000000000000e+00 +9.9999992283740602e-01
-3.8999999999999999e+00 +9.1468461467522495e+00 +0.0000000000000000e+00 -3.8999998943396199e+00 +4.0318039626569799e-04 +0.0000000000000000e+00 +9.9999991872278104e-01
-4.0000000000000000e+00 +9.1468053118132708e+00 +0.0000000000000000e+00 -3.9999998860017101e+00 +4.1351835456241700e-04 +0.0000000000000000e+00 +9.9999991450128201e-01
-4.0999999999999996e+00 +9.1467634430807898e+00 +0.0000000000000000e+00 -4.0999998772363098e+00 +4.2385631281494101e-04 +0.0000000000000000e+00 +9.9999991017290901e-01
-4.2000000000000002e+00 +9.1467205405512608e+00 +0.0000000000000000e+00 -4.1999998680327302e+00 +4.3419427102216700e-04 +0.0000000000000000e+00 +9.9999990573766295e-01
-4.2999999999999998e+00 +9.1466766042264602e+00 +0.0000000000000000e+00 -4.2999998583802803e+00 +4.4453222918298800e-04 +0.0000000000000000e+00 +9.9999990119554405e-01
-4.4000000000000004e+00 +9.1466316341046099e+00 +0.0000000000000000e+00 -4.3999998482682798e+00 +4.5487018729630099e-04 +0.0000000000000000e+00 +9.9999989654655097e-01
-4.5000000000000000e+00 +9.1465856301892607e+00 +0.0000000000000000e+00 -4.4999998376860297e+00 +4.6520814536100101e-04 +0.0000000000000000e+00 +9.9999989179068505e-01
-4.5999999999999996e+00 +9.1465385924768707e+00 +0.0000000000000000e+00 -4.5999998266228497e+00 +4.7554610337598098e-04 +0.0000000000000000e+00 +9.9999988692794495e-01
-4.7000000000000002e+00 +9.1464905209674292e+00 +0.0000000000000000e+00 -4.6999998150680504e+00 +4.8588406134013898e-04 +0.0000000000000000e+00 +9.9999988195833200e-01
-4.7999999999999998e+00 +9.1464414156644995e+00 +0.0000000000000000e+00 -4.7999998030109499e+00 +4.9622201925236895e-04 +0.0000000000000000e+00 +9.9999987688184599e-01
-4.9000000000000004e+00 +9.1463912765645095e+00 +0.0000000000000000e+00 -4.8999997904408596e+00 +5.0655997711156599e-04 +0.0000000000000000e+00 +9.9999987169848703e-01
-5.0000000000000000e+00 +9.1463401036692602e+00 +0.0000000000000000e+00 -4.9999997773470897e+00 +5.1689793491662501e-04 +0.0000000000000000e+00 +9.9999986640825400e-01
-5.0999999999999996e+00 +9.1462878969787305e+00 +0.0000000000000000e+00 -5.0999997637189498e+00 +5.2723589266644101e-04 +0.0000000000000000e+00 +9.9999986101114702e-01
-5.2000000000000002e+00 +9.1462346564911599e+00 +0.0000000000000000e+00 -5.1999997495457499e+00 +5.3757385035991005e-04 +0.0000000000000000e+00 +9.9999985550716697e-01
-5.2999999999999998e+00 +9.1461803822083105e+00 +0.0000000000000000e+00 -5.2999997348168204e+00 +5.4791180799592699e-04 +0.0000000000000000e+00 +9.9999984989631396e-01
-5.4000000000000004e+00 +9.1461250741284204e+00 +0.0000000000000000e+00 -5.3999997195214604e+00 +5.5824976557338596e-04 +0.0000000000000000e+00 +9.9999984417858701e-01
-5.5000000000000000e+00 +9.1460687322550296e+00 +0.0000000000000000e+00 -5.4999997036489701e+00 +5.6858772309118302e-04 +0.0000000000000000e+00 +9.9999983835398798e-01
-5.5999999999999996e+00 +9.1460113565845909e+00 +0.0000000000000000e+00 -5.5999996871886903e+00 +5.7892568054821304e-04 +0.0000000000000000e+00 +9.9999983242251400e-01
-5.7000000000000002e+00 +9.1459529471188894e+00 +0.0000000000000000e+00 -5.6999996701299196e+00 +5.8926363794337198e-04 +0.0000000000000000e+00 +9.9999982638416696e-01
-5.7999999999999998e+00 +9.1458935038561293e+00 +0.0000000000000000e+00 -5.7999996524619597e+00 +5.9960159527555395e-04 +0.0000000000000000e+00 +9.9999982023894696e-01
-5.9000000000000004e+00 +9.1458330267980994e+00 +0.0000000000000000e+00 -5.8999996341741401e+00 +6.0993955254365502e-04 +0.0000000000000000e+00 +9.9999981398685400e-01
-6.0000000000000000e+00 +9.1457715159465796e+00 +0.0000000000000000e+00 -5.9999996152557697e+00 +6.2027750974656898e-04 +0.0000000000000000e+00 +9.9999980762788698e-01
-6.0999999999999996e+00 +9.1457089712962301e+00 +0.0000000000000000e+00 -6.0999995956961603e+00 +6.3061546688319200e-04 +0.0000000000000000e+00 +9.9999980116204701e-01
-6.2000000000000002e+00 +9.1456453928523906e+00 +0.0000000000000000e+00 -6.1999995754846200e+00 +6.4095342395241895e-04 +0.0000000000000000e+00 +9.9999979458933297e-01
-6.2999999999999998e+00 +9.1455807806132707e+00 +0.0000000000000000e+00 -6.2999995546104604e+00 +6.5129138095314503e-04 +0.0000000000000000e+00 +9.9999978790974597e-01
-6.4000000000000004e+00 +9.1455151345771100e+00 +0.0000000000000000e+00 -6.3999995330630002e+00 +6.6162933788426598e-04 +0.0000000000000000e+00 +9.9999978112328602e-01
-6.5000000000000000e+00 +9.1454484547456794e+00 +0.0000000000000000e+00 -6.4999995108315600e+00 +6.7196729474467505e-04 +0.0000000000000000e+00 +9.9999977422995201e-01
-6.5999999999999996e+00 +9.1453807411171901e+00 +0.0000000000000000e+00 -6.5999994879054302e+00 +6.8230525153327004e-04 +0.0000000000000000e+00 +9.9999976722974504e-01
-6.7000000000000002e+00 +9.1453119936934399e+00 +0.0000000000000000e+00 -6.6999994642739402e+00 +6.9264320824894397e-04 +0.0000000000000000e+00 +9.9999976012266401e-01
-6.7999999999999998e+00 +9.1452422124761892e+00 +0.0000000000000000e+00 -6.7999994399263999e+00 +7.0298116489059303e-04 +0.0000000000000000e+00 +9.9999975290871002e-01
-6.9000000000000004e+00 +9.1451713974618905e+00 +0.0000000000000000e+00 -6.8999994148521200e+00 +7.1331912145711197e-04 +0.0000000000000000e+00 +9.9999974558788296e-01
-7.0000000000000000e+00 +9.1450995486523308e+00 +0.0000000000000000e+00 -6.9999993890404202e+00 +7.2365707794739599e-04 +0.0000000000000000e+00 +9.9999973816018295e-01
-7.0999999999999996e+00 +9.1450266660474906e+00 +0.0000000000000000e+00 -7.0999993624805997e+00 +7.3399503436034105e-04 +0.0000000000000000e+00 +9.9999973062560898e-01
-7.2000000000000002e+00 +9.1449527496438208e+00 +0.0000000000000000e+00 -7.1999993351619702e+00 +7.4433299069484105e-04 +0.0000000000000000e+00 +9.9999972298416095e-01
-7.2999999999999998e+00 +9.1448777994484391e+00 +0.0000000000000000e+00 -7.2999993070738700e+00 +7.5467094694979195e-04 +0.0000000000000000e+00 +9.9999971523583997e-01
-7.4000000000000004e+00 +9.1448018154560096e+00 +0.0000000000000000e+00 -7.3999992782055797e+00 +7.6500890312408796e-04 +0.0000000000000000e+00 +9.9999970738064603e-01
-7.5000000000000000e+00 +9.1447247976682995e+00 +0.0000000000000000e+00 -7.4999992485464304e+00 +7.7534685921662504e-04 +0.0000000000000000e+00 +9.9999969941857902e-01
-7.5999999999999996e+00 +9.1446467460835503e+00 +0.0000000000000000e+00 -7.5999992180857303e+00 +7.8568481522629796e-04 +0.0000000000000000e+00 +9.9999969134963795e-01
-7.7000000000000002e+00 +9.1445676607035296e+00 +0.0000000000000000e+00 -7.6999991868127999e+00 +7.9602277115200300e-04 +0.0000000000000000e+00 +9.9999968317382404e-01
-7.7999999999999998e+00 +9.1444875415300100e+00 +0.0000000000000000e+00 -7.7999991547169403e+00 +8.0636072699263395e-04 +0.0000000000000000e+00 +9.9999967489113595e-01
-7.9000000000000004e+00 +9.1444063885594495e+00 +0.0000000000000000e+00 -7.8999991217874603e+00 +8.1669868274708601e-04 +0.0000000000000000e+00 +9.9999966650157501e-01
-8.0000000000000000e+00 +9.1443242017936104e+00 +0.0000000000000000e+00 -7.9999990880136904e+00 +8.2703663841425502e-04 +0.0000000000000000e+00 +9.9999965800514101e-01
-8.0999999999999996e+00 +9.1442409812307197e+00 +0.0000000000000000e+00 -8.0999990533849306e+00 +8.3737459399303498e-04 +0.0000000000000000e+00 +9.9999964940183295e-01
-8.1999999999999993e+00 +9.1441567268743391e+00 +0.0000000000000000e+00 -8.1999990178904891e+00 +8.4771254948232296e-04 +0.0000000000000000e+00 +9.9999964069165204e-01
-8.3000000000000007e+00 +9.1440714387209105e+00 +0.0000000000000000e+00 -8.2999989815196997e+00 +8.5805050488101304e-04 +0.0000000000000000e+00 +9.9999963187459795e-01
-8.4000000000000004e+00 +9.1439851167722104e+00 +0.0000000000000000e+00 -8.3999989442618492e+00 +8.6838846018800001e-04 +0.0000000000000000e+00 +9.9999962295067002e-01
-8.5000000000000000e+00 +9.1438977610300203e+00 +0.0000000000000000e+00 -8.4999989061062706e+00 +8.7872641540217905e-04 +0.0000000000000000e+00 +9.9999961391986902e-01
-8.5999999999999996e+00 +9.1438093714890005e+00 +0.0000000000000000e+00 -8.5999988670422596e+00 +8.8906437052244601e-04 +0.0000000000000000e+00 +9.9999960478219396e-01
-8.6999999999999993e+00 +9.1437199481544802e+00 +0.0000000000000000e+00 -8.6999988270591402e+00 +8.9940232554769502e-04 +0.0000000000000000e+00 +9.9999959553764695e-01
-8.8000000000000007e+00 +9.1436294910247007e+00 +0.0000000000000000e+00 -8.7999987861462294e+00 +9.0974028047682300e-04 +0.0000000000000000e+00 +9.9999958618622498e-01
-8.9000000000000004e+00 +9.1435380000978608e+00 +0.0000000000000000e+00 -8.8999987442928301e+00 +9.2007823530872298e-04 +0.0000000000000000e+00 +9.9999957672793105e-01
-9.0000000000000000e+00 +9.1434454753775292e+00 +0.0000000000000000e+00 -8.9999987014882503e+00 +9.3041619004229103e-04 +0.0000000000000000e+00 +9.9999956716276295e-01
-9.0999999999999996e+00 +9.1433519168619295e+00 +0.0000000000000000e+00 -9.0999986577218195e+00 +9.4075414467642299e-04 +0.0000000000000000e+00 +9.9999955749072200e-01
-9.1999999999999993e+00 +9.1432573245492801e+00 +0.0000000000000000e+00 -9.1999986129828297e+00 +9.5109209921001299e-04 +0.0000000000000000e+00 +9.9999954771180699e-01
-9.3000000000000007e+00 +9.1431616984413608e+00 +0.0000000000000000e+00 -9.2999985672606194e+00 +9.6143005364195697e-04 +0.0000000000000000e+00 +9.9999953782601902e-01
-9.4000000000000004e+00 +9.1430650385381700e+00 +0.0000000000000000e+00 -9.3999985205444805e+00 +9.7176800797114905e-04 +0.0000000000000000e+00 +9.9999952783335799e-01
-9.5000000000000000e+00 +9.1429673448397004e+00 +0.0000000000000000e+00 -9.4999984728237195e+00 +9.8210596219648508e-04 +0.0000000000000000e+00 +9.9999951773382301e-01
-9.5999999999999996e+00 +9.1428686173459699e+00 +0.0000000000000000e+00 -9.5999984240876799e+00 +9.9244391631686003e-04 +0.0000000000000000e+00 +9.9999950752741495e-01
-9.6999999999999993e+00 +9.1427688560551807e+00 +0.0000000000000000e+00 -9.6999983743256504e+00 +1.0027818703311701e-03 +0.0000000000000000e+00 +9.9999949721413395e-01
-9.8000000000000007e+00 +9.1426680609726798e+00 +0.0000000000000000e+00 -9.7999983235269408e+00 +1.0131198242383100e-03 +0.0000000000000000e+00 +9.9999948679397899e-01
-9.9000000000000004e+00 +9.1425662320913492e+00 +0.0000000000000000e+00 -9.8999982716808805e+00 +1.0234577780371700e-03 +0.0000000000000000e+00 +9.9999947626695096e-01
-1.0000000000000000e+01 +9.1424633694165305e+00 +0.0000000000000000e+00 -9.9999982187767706e+00 +1.0337957317266501e-03 +0.0000000000000000e+00 +9.9999946563304998e-01
-1.0100000000000000e+01 +9.1423594729446602e+00 +0.0000000000000000e+00 -1.0099998164803900e+01 +1.0441336853056499e-03 +0.0000000000000000e+00 +9.9999945489227504e-01
-1.0199999999999999e+01 +9.1422545426793000e+00 +0.0000000000000000e+00 -1.0199998109751700e+01 +1.0544716387730600e-03 +0.0000000000000000e+00 +9.9999944404462704e-01
-1.0300000000000001e+01 +9.1421485786168795e+00 +0.0000000000000000e+00 -1.0299998053609301e+01 +1.0648095921277701e-03 +0.0000000000000000e+00 +9.9999943309010597e-01
-1.0400000000000000e+01 +9.1420415807609707e+00 +0.0000000000000000e+00 -1.0399997996366100e+01 +1.0751475453686799e-03 +0.0000000000000000e+00 +9.9999942202871095e-01
-1.0500000000000000e+01 +9.1419335491080194e+00 +0.0000000000000000e+00 -1.0499997938011500e+01 +1.0854854984946899e-03 +0.0000000000000000e+00 +9.9999941086044297e-01
-1.0600000000000000e+01 +9.1418244836597893e+00 +0.0000000000000000e+00 -1.0599997878534600e+01 +1.0958234515046901e-03 +0.0000000000000000e+00 +9.9999939958530104e-01
-1.0699999999999999e+01 +9.1417143844180693e+00 +0.0000000000000000e+00 -1.0699997817925000e+01 +1.1061614043975699e-03 +0.0000000000000000e+00 +9.9999938820328704e-01
-1.0800000000000001e+01 +9.1416032513792906e+00 +0.0000000000000000e+00 -1.0799997756171701e+01 +1.1164993571722401e-03 +0.0000000000000000e+00 +9.9999937671439798e-01
-1.0900000000000000e+01 +9.1414910845470292e+00 +0.0000000000000000e+00 -1.0899997693264300e+01 +1.1268373098275799e-03 +0.0000000000000000e+00 +9.9999936511863696e-01
-1.1000000000000000e+01 +9.1413778839177091e+00 +0.0000000000000000e+00 -1.0999997629191901e+01 +1.1371752623624901e-03 +0.0000000000000000e+00 +9.9999935341600199e-01
-1.1100000000000000e+01 +9.1412636494931299e+00 +0.0000000000000000e+00 -1.1099997563943900e+01 +1.1475132147758700e-03 +0.0000000000000000e+00 +9.9999934160649395e-01
-1.1199999999999999e+01 +9.1411483812750394e+00 +0.0000000000000000e+00 -1.1199997497509599e+01 +1.1578511670666100e-03 +0.0000000000000000e+00 +9.9999932969011296e-01
-1.1300000000000001e+01 +9.1410320792599205e+00 +0.0000000000000000e+00 -1.1299997429878401e+01 +1.1681891192336000e-03 +0.0000000000000000e+00 +9.9999931766685801e-01
-1.1400000000000000e+01 +9.1409147434512903e+00 +0.0000000000000000e+00 -1.1399997361039500e+01 +1.1785270712757500e-03 +0.0000000000000000e+00 +9.9999930553673000e-01
-1.1500000000000000e+01 +9.1407963738456193e+00 +0.0000000000000000e+00 -1.1499997290982201e+01 +1.1888650231919400e-03 +0.0000000000000000e+00 +9.9999929329972903e-01
-1.1600000000000000e+01 +9.1406769704464494e+00 +0.0000000000000000e+00 -1.1599997219695799e+01 +1.1992029749810799e-03 +0.0000000000000000e+00 +9.9999928095585400e-01
-1.1699999999999999e+01 +9.1405565332520098e+00 +0.0000000000000000e+00 -1.1699997147169800e+01 +1.2095409266420500e-03 +0.0000000000000000e+00 +9.9999926850510601e-01
