# trajectory
# s[mm] rx[mm] ry[mm] rz[mm] px[rad] py[rad] pz[rad]
0.0000000000000000e+00 +9.1054999999999993e+00 +0.0000000000000000e+00 +0.0000000000000000e+00 +0.0000000000000000e+00 +0.0000000000000000e+00 +1.0000000000000000e+00
1.0000000000000001e-01 +9.1054994835361072e+00 +0.0000000000000000e+00 +9.9999999998221775e-02 -1.0329279681581763e-05 +0.0000000000000000e+00 +9.9999999994665301e-01
2.0000000000000001e-01 +9.1054979341437043e+00 +0.0000000000000000e+00 +1.9999999998577411e-01 -2.0658570125290786e-05 +0.0000000000000000e+00 +9.9999999978661180e-01
3.0000000000000004e-01 +9.1054953518217410e+00 +0.0000000000000000e+00 +2.9999999995198762e-01 -3.0987870815806163e-05 +0.0000000000000000e+00 +9.9999999951987595e-01
4.0000000000000002e-01 +9.1054917365692170e+00 +0.0000000000000000e+00 +3.9999999988619284e-01 -4.1317181245415300e-05 +0.0000000000000000e+00 +9.9999999914644533e-01
5.0000000000000000e-01 +9.1054870883851837e+00 +0.0000000000000000e+00 +4.9999999977772019e-01 -5.1646500914011360e-05 +0.0000000000000000e+00 +9.9999999866631950e-01
5.9999999999999998e-01 +9.1054814072687424e+00 +0.0000000000000000e+00 +5.9999999961590023e-01 -6.1975829330510816e-05 +0.0000000000000000e+00 +9.9999999807949835e-01
6.9999999999999996e-01 +9.1054746932190422e+00 +0.0000000000000000e+00 +6.9999999939006341e-01 -7.2305166028477580e-05 +0.0000000000000000e+00 +9.9999999738598155e-01
7.9999999999999993e-01 +9.1054669462352749e+00 +0.0000000000000000e+00 +7.9999999908954011e-01 -8.2634510581747938e-05 +0.0000000000000000e+00 +9.9999999658576888e-01
8.9999999999999991e-01 +9.1054581663166765e+00 +0.0000000000000000e+00 +8.9999999870366065e-01 -9.2963862605849676e-05 +0.0000000000000000e+00 +9.9999999567886022e-01
9.9999999999999989e-01 +9.1054483534625170e+00 +0.0000000000000000e+00 +9.9999999822175556e-01 -1.0329322175800080e-04 +0.0000000000000000e+00 +9.9999999466525524e-01
1.0999999999999999e+00 +9.1054375076720984e+00 +0.0000000000000000e+00 +1.0999999976331551e+00 -1.1362258773710874e-04 +0.0000000000000000e+00 +9.9999999354495384e-01
1.2000000000000000e+00 +9.1054256289447508e+00 +0.0000000000000000e+00 +1.1999999969271897e+00 -1.2395196028376987e-04 +0.0000000000000000e+00 +9.9999999231795578e-01
1.3000000000000000e+00 +9.1054127172798296e+00 +0.0000000000000000e+00 +1.2999999960931896e+00 -1.3428133918026930e-04 +0.0000000000000000e+00 +9.9999999098426096e-01
1.4000000000000001e+00 +9.1053987726767094e+00 +0.0000000000000000e+00 +1.3999999951204853e+00 -1.4461072425058126e-04 +0.0000000000000000e+00 +9.9999998954386915e-01
1.5000000000000002e+00 +9.1053837951347791e+00 +0.0000000000000000e+00 +1.4999999939984070e+00 -1.5494011536036951e-04 +0.0000000000000000e+00 +9.9999998799678025e-01
1.6000000000000003e+00 +9.1053677846534402e+00 +0.0000000000000000e+00 +1.5999999927162849e+00 -1.6526951241698843e-04 +0.0000000000000000e+00 +9.9999998634299403e-01
1.7000000000000004e+00 +9.1053507412320993e+00 +0.0000000000000000e+00 +1.6999999912634494e+00 -1.7559891536948432e-04 +0.0000000000000000e+00 +9.9999998458251038e-01
1.8000000000000005e+00 +9.1053326648701702e+00 +0.0000000000000000e+00 +1.7999999896292305e+00 -1.8592832420859701e-04 +0.0000000000000000e+00 +9.9999998271532897e-01
1.9000000000000006e+00 +9.1053135555670615e+00 +0.0000000000000000e+00 +1.8999999878029585e+00 -1.9625773896676197e-04 +0.0000000000000000e+00 +9.9999998074144980e-01
2.0000000000000004e+00 +9.1052934133221779e+00 +0.0000000000000000e+00 +1.9999999857739639e+00 -2.0658715971811264e-04 +0.0000000000000000e+00 +9.9999997866087253e-01
2.1000000000000005e+00 +9.1052722381349138e+00 +0.0000000000000000e+00 +2.0999999835315766e+00 -2.1691658657848332e-04 +0.0000000000000000e+00 +9.9999997647359695e-01
2.2000000000000006e+00 +9.1052500300046528e+00 +0.0000000000000000e+00 +2.1999999810651270e+00 -2.2724601970541212e-04 +0.0000000000000000e+00 +9.9999997417962294e-01
2.3000000000000007e+00 +9.1052267889307572e+00 +0.0000000000000000e+00 +2.2999999783639447e+00 -2.3757545929814459e-04 +0.0000000000000000e+00 +9.9999997177895017e-01
2.4000000000000008e+00 +9.1052025149125697e+00 +0.0000000000000000e+00 +2.3999999754173604e+00 -2.4790490559763748e-04 +0.0000000000000000e+00 +9.9999996927157841e-01
2.5000000000000009e+00 +9.1051772079494047e+00 +0.0000000000000000e+00 +2.4999999722147037e+00 -2.5823435888656297e-04 +0.0000000000000000e+00 +9.9999996665750734e-01
2.6000000000000010e+00 +9.1051508680405480e+00 +0.0000000000000000e+00 +2.5999999687453053e+00 -2.6856381948386573e-04 +0.0000000000000000e+00 +9.9999996393673674e-01
2.7000000000000011e+00 +9.1051234951852535e+00 +0.0000000000000000e+00 +2.6999999649984945e+00 -2.7889328768484453e-04 +0.0000000000000000e+00 +9.9999996110926626e-01
2.8000000000000012e+00 +9.1050950893827505e+00 +0.0000000000000000e+00 +2.7999999609636017e+00 -2.8922276370122992e-04 +0.0000000000000000e+00 +9.9999995817509557e-01
2.9000000000000012e+00 +9.1050656506322483e+00 +0.0000000000000000e+00 +2.8999999566299568e+00 -2.9955224765573421e-04 +0.0000000000000000e+00 +9.9999995513422446e-01
3.0000000000000013e+00 +9.1050351789329529e+00 +0.0000000000000000e+00 +2.9999999519868896e+00 -3.0988173958204889e-04 +0.0000000000000000e+00 +9.9999995198665259e-01
3.1000000000000014e+00 +9.1050036742840685e+00 +0.0000000000000000e+00 +3.0999999470237305e+00 -3.2021123942484132e-04 +0.0000000000000000e+00 +9.9999994873237974e-01
3.2000000000000015e+00 +9.1049711366848101e+00 +0.0000000000000000e+00 +3.1999999417298088e+00 -3.3054074703975139e-04 +0.0000000000000000e+00 +9.9999994537140580e-01
3.3000000000000016e+00 +9.1049375661344101e+00 +0.0000000000000000e+00 +3.2999999360944550e+00 -3.4087026219338751e-04 +0.0000000000000000e+00 +9.9999994190373054e-01
3.4000000000000017e+00 +9.1049029626321314e+00 +0.0000000000000000e+00 +3.3999999301069983e+00 -3.5119978456332258e-04 +0.0000000000000000e+00 +9.9999993832935385e-01
3.5000000000000018e+00 +9.1048673261772706e+00 +0.0000000000000000e+00 +3.4999999237567692e+00 -3.6152931373808936e-04 +0.0000000000000000e+00 +9.9999993464827563e-01
3.6000000000000019e+00 +9.1048306567691721e+00 +0.0000000000000000e+00 +3.5999999170330970e+00 -3.7185884921717578e-04 +0.0000000000000000e+00 +9.9999993086049588e-01
3.7000000000000020e+00 +9.1047929544072357e+00 +0.0000000000000000e+00 +3.6999999099253116e+00 -3.8218839041101948e-04 +0.0000000000000000e+00 +9.9999992696601459e-01
3.8000000000000020e+00 +9.1047542190909212e+00 +0.0000000000000000e+00 +3.7999999024227429e+00 -3.9251793664100238e-04 +0.0000000000000000e+00 +9.9999992296483187e-01
3.9000000000000021e+00 +9.1047144508197650e+00 +0.0000000000000000e+00 +3.8999998945147212e+00 -4.0284748713944490e-04 +0.0000000000000000e+00 +9.9999991885694783e-01
4.0000000000000018e+00 +9.1046736495933800e+00 +0.0000000000000000e+00 +3.9999998861905759e+00 -4.1317704104959952e-04 +0.0000000000000000e+00 +9.9999991464236282e-01
4.1000000000000014e+00 +9.1046318154114729e+00 +0.0000000000000000e+00 +4.0999998774396369e+00 -4.2350659742564431e-04 +0.0000000000000000e+00 +9.9999991032107705e-01
4.2000000000000011e+00 +9.1045889482738467e+00 +0.0000000000000000e+00 +4.1999998682512345e+00 -4.3383615523267594e-04 +0.0000000000000000e+00 +9.9999990589309085e-01
4.3000000000000007e+00 +9.1045450481804160e+00 +0.0000000000000000e+00 +4.2999998586146981e+00 -4.4416571334670251e-04 +0.0000000000000000e+00 +9.9999990135840477e-01
4.4000000000000004e+00 +9.1045001151312075e+00 +0.0000000000000000e+00 +4.3999998485193581e+00 -4.5449527055463579e-04 +0.0000000000000000e+00 +9.9999989671701928e-01
4.5000000000000000e+00 +9.1044541491263775e+00 +0.0000000000000000e+00 +4.4999998379545447e+00 -4.6482482555428343e-04 +0.0000000000000000e+00 +9.9999989196893502e-01
4.5999999999999996e+00 +9.1044071501662156e+00 +0.0000000000000000e+00 +4.5999998269095883e+00 -4.7515437695914650e-04 +0.0000000000000000e+00 +9.9999988711415277e-01
4.6999999999999993e+00 +9.1043591182511516e+00 +0.0000000000000000e+00 +4.6999998153738192e+00 -4.8548392335127845e-04 +0.0000000000000000e+00 +9.9999988215267321e-01
4.7999999999999989e+00 +9.1043100533817576e+00 +0.0000000000000000e+00 +4.7999998033365667e+00 -4.9581346333415002e-04 +0.0000000000000000e+00 +9.9999987708449734e-01
4.8999999999999986e+00 +9.1042599555587440e+00 +0.0000000000000000e+00 +4.8999997907871622e+00 -5.0614299553745749e-04 +0.0000000000000000e+00 +9.9999987190962591e-01
4.9999999999999982e+00 +9.1042088247829547e+00 +0.0000000000000000e+00 +4.9999997777149359e+00 -5.1647251861712540e-04 +0.0000000000000000e+00 +9.9999986662805995e-01
5.0999999999999979e+00 +9.1041566610553684e+00 +0.0000000000000000e+00 +5.0999997641092181e+00 -5.2680203125530936e-04 +0.0000000000000000e+00 +9.9999986123980045e-01
5.1999999999999975e+00 +9.1041034643770953e+00 +0.0000000000000000e+00 +5.1999997499593400e+00 -5.3713153216039902e-04 +0.0000000000000000e+00 +9.9999985574484829e-01
5.2999999999999972e+00 +9.1040492347493700e+00 +0.0000000000000000e+00 +5.2999997352546320e+00 -5.4746102006702178e-04 +0.0000000000000000e+00 +9.9999985014320458e-01
5.3999999999999968e+00 +9.1039939721735568e+00 +0.0000000000000000e+00 +5.3999997199844252e+00 -5.5779049373604625e-04 +0.0000000000000000e+00 +9.9999984443487056e-01
5.4999999999999964e+00 +9.1039376766511388e+00 +0.0000000000000000e+00 +5.4999997041380499e+00 -5.6811995195458619e-04 +0.0000000000000000e+00 +9.9999983861984720e-01
5.5999999999999961e+00 +9.1038803481837203e+00 +0.0000000000000000e+00 +5.5999996877048384e+00 -5.7844939353600476e-04 +0.0000000000000000e+00 +9.9999983269813575e-01
5.6999999999999957e+00 +9.1038219867730241e+00 +0.0000000000000000e+00 +5.6999996706741207e+00 -5.8877881731991865e-04 +0.0000000000000000e+00 +9.9999982666973730e-01
5.7999999999999954e+00 +9.1037625924208871e+00 +0.0000000000000000e+00 +5.7999996530352291e+00 -5.9910822217220316e-04 +0.0000000000000000e+00 +9.9999982053465319e-01
5.8999999999999950e+00 +9.1037021651292580e+00 +0.0000000000000000e+00 +5.8999996347774948e+00 -6.0943760698499688e-04 +0.0000000000000000e+00 +9.9999981429288454e-01
5.9999999999999947e+00 +9.1036407049001937e+00 +0.0000000000000000e+00 +5.9999996158902498e+00 -6.1976697067670687e-04 +0.0000000000000000e+00 +9.9999980794443277e-01
6.0999999999999943e+00 +9.1035782117358615e+00 +0.0000000000000000e+00 +6.0999995963628253e+00 -6.3009631219201434e-04 +0.0000000000000000e+00 +9.9999980148929912e-01
6.1999999999999940e+00 +9.1035146856385296e+00 +0.0000000000000000e+00 +6.1999995761845534e+00 -6.4042563050188000e-04 +0.0000000000000000e+00 +9.9999979492748503e-01
6.2999999999999936e+00 +9.1034501266105678e+00 +0.0000000000000000e+00 +6.2999995553447663e+00 -6.5075492460355021e-04 +0.0000000000000000e+00 +9.9999978825899183e-01
6.3999999999999932e+00 +9.1033845346544471e+00 +0.0000000000000000e+00 +6.3999995338327960e+00 -6.6108419352056333e-04 +0.0000000000000000e+00 +9.9999978148382085e-01
6.4999999999999929e+00 +9.1033179097727341e+00 +0.0000000000000000e+00 +6.4999995116379745e+00 -6.7141343630275580e-04 +0.0000000000000000e+00 +9.9999977460197353e-01
6.5999999999999925e+00 +9.1032502519680882e+00 +0.0000000000000000e+00 +6.5999994887496349e+00 -6.8174265202769284e-04 +0.0000000000000000e+00 +9.9999976761345133e-01
6.6999999999999922e+00 +9.1031815612432592e+00 +0.0000000000000000e+00 +6.6999994651571093e+00 -6.9207183981633490e-04 +0.0000000000000000e+00 +9.9999976051825568e-01
6.7999999999999918e+00 +9.1031118376010838e+00 +0.0000000000000000e+00 +6.7999994408497306e+00 -7.0240099884870139e-04 +0.0000000000000000e+00 +9.9999975331638802e-01
6.8999999999999915e+00 +9.1030410810444735e+00 +0.0000000000000000e+00 +6.8999994158168318e+00 -7.1273012836529546e-04 +0.0000000000000000e+00 +9.9999974600784980e-01
6.9999999999999911e+00 +9.1029692915764180e+00 +0.0000000000000000e+00 +6.9999993900477451e+00 -7.2305922766710497e-04 +0.0000000000000000e+00 +9.9999973859264246e-01
7.0999999999999908e+00 +9.1028964691999690e+00 +0.0000000000000000e+00 +7.0999993635318042e+00 -7.3338829611560390e-04 +0.0000000000000000e+00 +9.9999973107076734e-01
7.1999999999999904e+00 +9.1028226139182422e+00 +0.0000000000000000e+00 +7.1999993362583430e+00 -7.4371733313275312e-04 +0.0000000000000000e+00 +9.9999972344222587e-01
7.2999999999999901e+00 +9.1027477257344067e+00 +0.0000000000000000e+00 +7.2999993082166945e+00 -7.5404633820100179e-04 +0.0000000000000000e+00 +9.9999971570701940e-01
7.3999999999999897e+00 +9.1026718046516812e+00 +0.0000000000000000e+00 +7.3999992793961917e+00 -7.6437531086328853e-04 +0.0000000000000000e+00 +9.9999970786514925e-01
7.4999999999999893e+00 +9.1025948506733272e+00 +0.0000000000000000e+00 +7.4999992497861685e+00 -7.7470425072304235e-04 +0.0000000000000000e+00 +9.9999969991661675e-01
7.5999999999999890e+00 +9.1025168638026415e+00 +0.0000000000000000e+00 +7.5999992193759596e+00 -7.8503315744418429e-04 +0.0000000000000000e+00 +9.9999969186142323e-01
7.6999999999999886e+00 +9.1024378440429530e+00 +0.0000000000000000e+00 +7.6999991881548979e+00 -7.9536203075112829e-04 +0.0000000000000000e+00 +9.9999968369956982e-01
7.7999999999999883e+00 +9.1023577913976137e+00 +0.0000000000000000e+00 +7.7999991561123183e+00 -8.0569087042878262e-04 +0.0000000000000000e+00 +9.9999967543105783e-01
7.8999999999999879e+00 +9.1022767058699934e+00 +0.0000000000000000e+00 +7.8999991232375546e+00 -8.1601967632255121e-04 +0.0000000000000000e+00 +9.9999966705588839e-01
7.9999999999999876e+00 +9.1021945874634778e+00 +0.0000000000000000e+00 +7.9999990895199407e+00 -8.2634844833833485e-04 +0.0000000000000000e+00 +9.9999965857406259e-01
8.0999999999999872e+00 +9.1021114361814561e+00 +0.0000000000000000e+00 +8.0999990549488121e+00 -8.3667718644253261e-04 +0.0000000000000000e+00 +9.9999964998558155e-01
8.1999999999999869e+00 +9.1020272520273195e+00 +0.0000000000000000e+00 +8.1999990195135020e+00 -8.4700589066204310e-04 +0.0000000000000000e+00 +9.9999964129044627e-01
8.2999999999999865e+00 +9.1019420350044520e+00 +0.0000000000000000e+00 +8.2999989832033467e+00 -8.5733456108426592e-04 +0.0000000000000000e+00 +9.9999963248865764e-01
8.3999999999999861e+00 +9.1018557851162250e+00 +0.0000000000000000e+00 +8.3999989460076794e+00 -8.6766319785710306e-04 +0.0000000000000000e+00 +9.9999962358021666e-01
8.4999999999999858e+00 +9.1017685023659958e+00 +0.0000000000000000e+00 +8.4999989079158347e+00 -8.7799180118896029e-04 +0.0000000000000000e+00 +9.9999961456512421e-01
8.5999999999999854e+00 +9.1016801867570933e+00 +0.0000000000000000e+00 +8.5999988689171492e+00 -8.8832037134675918e-04 +0.0000000000000000e+00 +9.9999960544338107e-01
8.6999999999999851e+00 +9.1015908382928217e+00 +0.0000000000000000e+00 +8.6999988290009558e+00 -8.9864890863405574e-04 +0.0000000000000000e+00 +9.9999959621498802e-01
8.7999999999999847e+00 +9.1015004569764510e+00 +0.0000000000000000e+00 +8.7999987881565911e+00 -9.0897741336916067e-04 +0.0000000000000000e+00 +9.9999958687994572e-01
8.8999999999999844e+00 +9.1014090428112215e+00 +0.0000000000000000e+00 +8.8999987463733898e+00 -9.1930588588315636e-04 +0.0000000000000000e+00 +9.9999957743825485e-01
8.9999999999999840e+00 +9.1013165958003377e+00 +0.0000000000000000e+00 +8.9999987036406868e+00 -9.2963432651990338e-04 +0.0000000000000000e+00 +9.9999956788991617e-01
9.0999999999999837e+00 +9.1012231159469685e+00 +0.0000000000000000e+00 +9.0999986599478184e+00 -9.3996273563604722e-04 +0.0000000000000000e+00 +9.9999955823493025e-01
9.1999999999999833e+00 +9.1011286032542493e+00 +0.0000000000000000e+00 +9.1999986152841178e+00 -9.5029111360102510e-04 +0.0000000000000000e+00 +9.9999954847329775e-01
9.2999999999999829e+00 +9.1010330577252745e+00 +0.0000000000000000e+00 +9.2999985696389231e+00 -9.6061946079707325e-04 +0.0000000000000000e+00 +9.9999953860501933e-01
9.3999999999999826e+00 +9.1009364793631029e+00 +0.0000000000000000e+00 +9.3999985230015675e+00 -9.7094777761923376e-04 +0.0000000000000000e+00 +9.9999952863009545e-01
9.4999999999999822e+00 +9.1008388681707508e+00 +0.0000000000000000e+00 +9.4999984753613873e+00 -9.8127606447536201e-04 +0.0000000000000000e+00 +9.9999951854852676e-01
9.5999999999999819e+00 +9.1007402241511937e+00 +0.0000000000000000e+00 +9.5999984267077174e+00 -9.9160432178613451e-04 +0.0000000000000000e+00 +9.9999950836031370e-01
9.6999999999999815e+00 +9.1006405473073642e+00 +0.0000000000000000e+00 +9.6999983770298943e+00 -1.0019325499850561e-03 +0.0000000000000000e+00 +9.9999949806545674e-01
9.7999999999999812e+00 +9.1005398376421525e+00 +0.0000000000000000e+00 +9.7999983263172545e+00 -1.0122607495184682e-03 +0.0000000000000000e+00 +9.9999948766395630e-01
9.8999999999999808e+00 +9.1004380951584007e+00 +0.0000000000000000e+00 +9.8999982745591311e+00 -1.0225889208455565e-03 +0.0000000000000000e+00 +9.9999947715581283e-01
9.9999999999999805e+00 +9.1003353198589068e+00 +0.0000000000000000e+00 +9.9999982217448622e+00 -1.0329170644383591e-03 +0.0000000000000000e+00 +9.9999946654102678e-01
1.0099999999999980e+01 +9.1002315117464203e+00 +0.0000000000000000e+00 +1.0099998167863783e+01 -1.0432451807817751e-03 +0.0000000000000000e+00 +9.9999945581959837e-01
1.0199999999999980e+01 +9.1001266708236415e+00 +0.0000000000000000e+00 +1.0199998112905227e+01 -1.0535732703735726e-03 +0.0000000000000000e+00 +9.9999944499152804e-01
1.0299999999999979e+01 +9.1000207970932205e+00 +0.0000000000000000e+00 +1.0299998056858533e+01 -1.0639013337243976e-03 +0.0000000000000000e+00 +9.9999943405681602e-01
1.0399999999999979e+01 +9.0999138905577546e+00 +0.0000000000000000e+00 +1.0399997999713035e+01 -1.0742293713577832e-03 +0.0000000000000000e+00 +9.9999942301546252e-01
1.0499999999999979e+01 +9.0998059512197891e+00 +0.0000000000000000e+00 +1.0499997941458069e+01 -1.0845573838101574e-03 +0.0000000000000000e+00 +9.9999941186746777e-01
1.0599999999999978e+01 +9.0996969790818145e+00 +0.0000000000000000e+00 +1.0599997882082972e+01 -1.0948853716283796e-03 +0.0000000000000000e+00 +9.9999940061283199e-01
1.0699999999999978e+01 +9.0995869741462680e+00 +0.0000000000000000e+00 +1.0699997821577080e+01 -1.1052133353425351e-03 +0.0000000000000000e+00 +9.9999938925155529e-01
1.0799999999999978e+01 +9.0994759364155335e+00 +0.0000000000000000e+00 +1.0799997759929727e+01 -1.1155412754387140e-03 +0.0000000000000000e+00 +9.9999937778363790e-01
1.0899999999999977e+01 +9.0993638658919522e+00 +0.0000000000000000e+00 +1.0899997697130251e+01 -1.1258691923565207e-03 +0.0000000000000000e+00 +9.9999936620908003e-01
1.0999999999999977e+01 +9.0992507625778210e+00 +0.0000000000000000e+00 +1.0999997633167988e+01 -1.1361970864890562e-03 +0.0000000000000000e+00 +9.9999935452788202e-01
1.1099999999999977e+01 +9.0991366264754010e+00 +0.0000000000000000e+00 +1.1099997568032272e+01 -1.1465249581828992e-03 +0.0000000000000000e+00 +9.9999934274004409e-01
1.1199999999999976e+01 +9.0990214575869217e+00 +0.0000000000000000e+00 +1.1199997501712442e+01 -1.1568528077380883e-03 +0.0000000000000000e+00 +9.9999933084556669e-01
1.1299999999999976e+01 +9.0989052559145822e+00 +0.0000000000000000e+00 +1.1299997434197831e+01 -1.1671806354081021e-03 +0.0000000000000000e+00 +9.9999931884445015e-01
1.1399999999999975e+01 +9.0987880214605621e+00 +0.0000000000000000e+00 +1.1399997365477777e+01 -1.1775084413998401e-03 +0.0000000000000000e+00 +9.9999930673669490e-01
1.1499999999999975e+01 +9.0986697542270196e+00 +0.0000000000000000e+00 +1.1499997295541615e+01 -1.1878362258736026e-03 +0.0000000000000000e+00 +9.9999929452230141e-01
1.1599999999999975e+01 +9.0985504542161006e+00 +0.0000000000000000e+00 +1.1599997224378683e+01 -1.1981639889430699e-03 +0.0000000000000000e+00 +9.9999928220127021e-01
1.1699999999999974e+01 +9.0984301214299421e+00 +0.0000000000000000e+00 +1.1699997151978316e+01 -1.2084917306752817e-03 +0.0000000000000000e+00 +9.9999926977360187e-01
1.1799999999999974e+01 +9.0983087558706757e+00 +0.0000000000000000e+00 +1.1799997078329849e+01 -1.2188194510906153e-03 +0.0000000000000000e+00 +9.9999925723929706e-01
