# trajectory
# s[mm] rx[mm] ry[mm] rz[mm] px[rad] py[rad] pz[rad]
0.0000000000000000e+00 +9.0851000000000006e+00 +0.0000000000000000e+00 +0.0000000000000000e+00 +0.0000000000000000e+00 +0.0000000000000000e+00 +1.0000000000000000e+00
-1.0000000000000001e-01 +9.0850994834673333e+00 +0.0000000000000000e+00 -9.9999999998221289e-02 +1.0330650432456431e-05 +0.0000000000000000e+00 +9.9999999994663880e-01
-2.0000000000000001e-01 +9.0850979338705056e+00 +0.0000000000000000e+00 -1.9999999998577037e-01 +2.0661283143546733e-05 +0.0000000000000000e+00 +9.9999999978655563e-01
-3.0000000000000004e-01 +9.0850953512113080e+00 +0.0000000000000000e+00 -2.9999999995197502e-01 +3.0991897757973974e-05 +0.0000000000000000e+00 +9.9999999951975105e-01
-4.0000000000000002e-01 +9.0850917354915666e+00 +0.0000000000000000e+00 -3.9999999988616319e-01 +4.1322494006957108e-05 +0.0000000000000000e+00 +9.9999999914622562e-01
-5.0000000000000000e-01 +9.0850870867131253e+00 +0.0000000000000000e+00 -4.9999999977766280e-01 +5.1653071728225967e-05 +0.0000000000000000e+00 +9.9999999866597999e-01
-5.9999999999999998e-01 +9.0850814048778403e+00 +0.0000000000000000e+00 -5.9999999961580186e-01 +6.1983630866016185e-05 +0.0000000000000000e+00 +9.9999999807901463e-01
-6.9999999999999996e-01 +9.0850746899875698e+00 +0.0000000000000000e+00 -6.9999999938990842e-01 +7.2314171471064045e-05 +0.0000000000000000e+00 +9.9999999738533019e-01
-7.9999999999999993e-01 +9.0850669420441594e+00 +0.0000000000000000e+00 -7.9999999908931063e-01 +8.2644693700601292e-05 +0.0000000000000000e+00 +9.9999999658492722e-01
-8.9999999999999991e-01 +9.0850581610494334e+00 +0.0000000000000000e+00 -8.9999999870333658e-01 +9.2975197818349819e-05 +0.0000000000000000e+00 +9.9999999567780617e-01
-9.9999999999999989e-01 +9.0850483470051859e+00 +0.0000000000000000e+00 -9.9999999822131458e-01 +1.0330568419451632e-04 +0.0000000000000000e+00 +9.9999999466396772e-01
-1.0999999999999999e+00 +9.0850374999131684e+00 +0.0000000000000000e+00 -1.0999999976325729e+00 +1.1363615330578690e-04 +0.0000000000000000e+00 +9.9999999354341218e-01
-1.2000000000000000e+00 +9.0850256197750809e+00 +0.0000000000000000e+00 -1.1999999969264399e+00 +1.2396660573532151e-04 +0.0000000000000000e+00 +9.9999999231614012e-01
-1.3000000000000000e+00 +9.0850127065925559e+00 +0.0000000000000000e+00 -1.2999999960922437e+00 +1.3429704217274844e-04 +0.0000000000000000e+00 +9.9999999098215198e-01
-1.4000000000000001e+00 +9.0849987603671529e+00 +0.0000000000000000e+00 -1.3999999951193129e+00 +1.4462746341415865e-04 +0.0000000000000000e+00 +9.9999998954144820e-01
-1.5000000000000002e+00 +9.0849837811003482e+00 +0.0000000000000000e+00 -1.4999999939969761e+00 +1.5495787036210010e-04 +0.0000000000000000e+00 +9.9999998799402900e-01
-1.6000000000000003e+00 +9.0849677687935220e+00 +0.0000000000000000e+00 -1.5999999927145616e+00 +1.6528826402069537e-04 +0.0000000000000000e+00 +9.9999998633989462e-01
-1.7000000000000004e+00 +9.0849507234479514e+00 +0.0000000000000000e+00 -1.6999999912613979e+00 +1.7561864544199507e-04 +0.0000000000000000e+00 +9.9999998457904538e-01
-1.8000000000000005e+00 +9.0849326450648071e+00 +0.0000000000000000e+00 -1.7999999896268135e+00 +1.8594901567233572e-04 +0.0000000000000000e+00 +9.9999998271148149e-01
-1.9000000000000006e+00 +9.0849135336451550e+00 +0.0000000000000000e+00 -1.8999999878001370e+00 +1.9627937574746620e-04 +0.0000000000000000e+00 +9.9999998073720298e-01
-2.0000000000000004e+00 +9.0848933891899613e+00 +0.0000000000000000e+00 -1.9999999857706969e+00 +2.0660972669255218e-04 +0.0000000000000000e+00 +9.9999997865621004e-01
-2.1000000000000005e+00 +9.0848722117000875e+00 +0.0000000000000000e+00 -2.0999999835278218e+00 +2.1694006952218141e-04 +0.0000000000000000e+00 +9.9999997646850269e-01
-2.2000000000000006e+00 +9.0848500011762940e+00 +0.0000000000000000e+00 -2.1999999810608402e+00 +2.2727040524037054e-04 +0.0000000000000000e+00 +9.9999997417408093e-01
-2.3000000000000007e+00 +9.0848267576192434e+00 +0.0000000000000000e+00 -2.2999999783590805e+00 +2.3760073484057275e-04 +0.0000000000000000e+00 +9.9999997177294486e-01
-2.4000000000000008e+00 +9.0848024810294969e+00 +0.0000000000000000e+00 -2.3999999754118719e+00 +2.4793105930568667e-04 +0.0000000000000000e+00 +9.9999996926509427e-01
-2.5000000000000009e+00 +9.0847771714075201e+00 +0.0000000000000000e+00 -2.4999999722085424e+00 +2.5826137960806647e-04 +0.0000000000000000e+00 +9.9999996665052915e-01
-2.6000000000000010e+00 +9.0847508287536822e+00 +0.0000000000000000e+00 -2.5999999687384205e+00 +2.6859169670953310e-04 +0.0000000000000000e+00 +9.9999996392924939e-01
-2.7000000000000011e+00 +9.0847234530682535e+00 +0.0000000000000000e+00 -2.6999999649908348e+00 +2.7892201156138658e-04 +0.0000000000000000e+00 +9.9999996110125478e-01
-2.8000000000000012e+00 +9.0846950443514132e+00 +0.0000000000000000e+00 -2.7999999609551143e+00 +2.8925232510441956e-04 +0.0000000000000000e+00 +9.9999995816654519e-01
-2.9000000000000012e+00 +9.0846656026032448e+00 +0.0000000000000000e+00 -2.8999999566205870e+00 +2.9958263826893196e-04 +0.0000000000000000e+00 +9.9999995512512030e-01
-3.0000000000000013e+00 +9.0846351278237414e+00 +0.0000000000000000e+00 -2.9999999519765814e+00 +3.0991295197474689e-04 +0.0000000000000000e+00 +9.9999995197697977e-01
-3.1000000000000014e+00 +9.0846036200128015e+00 +0.0000000000000000e+00 -3.0999999470124258e+00 +3.2024326713122735e-04 +0.0000000000000000e+00 +9.9999994872212339e-01
-3.2000000000000015e+00 +9.0845710791702370e+00 +0.0000000000000000e+00 -3.1999999417174489e+00 +3.3057358463729460e-04 +0.0000000000000000e+00 +9.9999994536055081e-01
-3.3000000000000016e+00 +9.0845375052957671e+00 +0.0000000000000000e+00 -3.2999999360809791e+00 +3.4090390538144732e-04 +0.0000000000000000e+00 +9.9999994189226171e-01
-3.4000000000000017e+00 +9.0845028983890241e+00 +0.0000000000000000e+00 -3.3999999300923442e+00 +3.5123423024178193e-04 +0.0000000000000000e+00 +9.9999993831725564e-01
-3.5000000000000018e+00 +9.0844672584495534e+00 +0.0000000000000000e+00 -3.4999999237408730e+00 +3.6156456008601428e-04 +0.0000000000000000e+00 +9.9999993463553205e-01
-3.6000000000000019e+00 +9.0844305854768130e+00 +0.0000000000000000e+00 -3.5999999170158934e+00 +3.7189489577118921e-04 +0.0000000000000000e+00 +9.9999993084709060e-01
-3.7000000000000020e+00 +9.0843928794701760e+00 +0.0000000000000000e+00 -3.6999999099067340e+00 +3.8222523814025619e-04 +0.0000000000000000e+00 +9.9999992695193074e-01
-3.8000000000000020e+00 +9.0843541404289336e+00 +0.0000000000000000e+00 -3.7999999024027225e+00 +3.9255558801863145e-04 +0.0000000000000000e+00 +9.9999992295005191e-01
-3.9000000000000021e+00 +9.0843143683522953e+00 +0.0000000000000000e+00 -3.8999998944931868e+00 +4.0288594621388336e-04 +0.0000000000000000e+00 +9.9999991884145356e-01
-4.0000000000000018e+00 +9.0842735632393872e+00 +0.0000000000000000e+00 -3.9999998861674557e+00 +4.1321631351572965e-04 +0.0000000000000000e+00 +9.9999991462613513e-01
-4.1000000000000014e+00 +9.0842317250892624e+00 +0.0000000000000000e+00 -4.0999998774148567e+00 +4.2354669069603429e-04 +0.0000000000000000e+00 +9.9999991030409607e-01
-4.2000000000000011e+00 +9.0841888539008941e+00 +0.0000000000000000e+00 -4.1999998682247179e+00 +4.3387707850880329e-04 +0.0000000000000000e+00 +9.9999990587533560e-01
-4.3000000000000007e+00 +9.0841449496731812e+00 +0.0000000000000000e+00 -4.2999998585863670e+00 +4.4420747769018034e-04 +0.0000000000000000e+00 +9.9999990133985317e-01
-4.4000000000000004e+00 +9.0841000124049529e+00 +0.0000000000000000e+00 -4.3999998484891316e+00 +4.5453788895844134e-04 +0.0000000000000000e+00 +9.9999989669764811e-01
-4.5000000000000000e+00 +9.0840540420949640e+00 +0.0000000000000000e+00 -4.4999998379223394e+00 +4.6486831301398854e-04 +0.0000000000000000e+00 +9.9999989194871963e-01
-4.5999999999999996e+00 +9.0840070387419019e+00 +0.0000000000000000e+00 -4.5999998268753179e+00 +4.7519875053934381e-04 +0.0000000000000000e+00 +9.9999988709306709e-01
-4.6999999999999993e+00 +9.0839590023443861e+00 +0.0000000000000000e+00 -4.6999998153373950e+00 +4.8552920219914150e-04 +0.0000000000000000e+00 +9.9999988213068969e-01
-4.7999999999999989e+00 +9.0839099329009692e+00 +0.0000000000000000e+00 -4.7999998032978981e+00 +4.9585966864012045e-04 +0.0000000000000000e+00 +9.9999987706158666e-01
-4.8999999999999986e+00 +9.0838598304101428e+00 +0.0000000000000000e+00 -4.8999997907461550e+00 +5.0619015049111523e-04 +0.0000000000000000e+00 +9.9999987188575723e-01
-4.9999999999999982e+00 +9.0838086948703367e+00 +0.0000000000000000e+00 -4.9999997776714924e+00 +5.1652064836304708e-04 +0.0000000000000000e+00 +9.9999986660320073e-01
-5.0999999999999979e+00 +9.0837565262799167e+00 +0.0000000000000000e+00 -5.0999997640632380e+00 +5.2685116284891388e-04 +0.0000000000000000e+00 +9.9999986121391615e-01
-5.1999999999999975e+00 +9.0837033246371934e+00 +0.0000000000000000e+00 -5.1999997499107184e+00 +5.3718169452377949e-04 +0.0000000000000000e+00 +9.9999985571790284e-01
-5.2999999999999972e+00 +9.0836490899404208e+00 +0.0000000000000000e+00 -5.2999997352032606e+00 +5.4751224394476250e-04 +0.0000000000000000e+00 +9.9999985011515979e-01
-5.3999999999999968e+00 +9.0835938221877957e+00 +0.0000000000000000e+00 -5.3999997199301921e+00 +5.5784281165102440e-04 +0.0000000000000000e+00 +9.9999984440568634e-01
-5.4999999999999964e+00 +9.0835375213774636e+00 +0.0000000000000000e+00 -5.4999997040808397e+00 +5.6817339816375690e-04 +0.0000000000000000e+00 +9.9999983858948149e-01
-5.5999999999999961e+00 +9.0834801875075186e+00 +0.0000000000000000e+00 -5.5999996876445302e+00 +5.7850400398892147e-04 +0.0000000000000000e+00 +9.9999983266654435e-01
-5.6999999999999957e+00 +9.0834218205760049e+00 +0.0000000000000000e+00 -5.6999996706105902e+00 +5.8883462964751901e-04 +0.0000000000000000e+00 +9.9999982663687415e-01
-5.7999999999999954e+00 +9.0833624205809098e+00 +0.0000000000000000e+00 -5.7999996529683466e+00 +5.9916527570586409e-04 +0.0000000000000000e+00 +9.9999982050046976e-01
-5.8999999999999950e+00 +9.0833019875201639e+00 +0.0000000000000000e+00 -5.8999996347071262e+00 +6.0949594277833320e-04 +0.0000000000000000e+00 +9.9999981425733031e-01
-5.9999999999999947e+00 +9.0832405213916321e+00 +0.0000000000000000e+00 -5.9999996158162547e+00 +6.1982663152735913e-04 +0.0000000000000000e+00 +9.9999980790745469e-01
-6.0999999999999943e+00 +9.0831780221931115e+00 +0.0000000000000000e+00 -6.0999995962850591e+00 +6.3015734266342596e-04 +0.0000000000000000e+00 +9.9999980145084177e-01
-6.1999999999999940e+00 +9.0831144899223268e+00 +0.0000000000000000e+00 -6.1999995761028650e+00 +6.4048807694506310e-04 +0.0000000000000000e+00 +9.9999979488749036e-01
-6.2999999999999936e+00 +9.0830499245769243e+00 +0.0000000000000000e+00 -6.2999995552589994e+00 +6.5081883517883977e-04 +0.0000000000000000e+00 +9.9999978821739921e-01
-6.3999999999999932e+00 +9.0829843261544649e+00 +0.0000000000000000e+00 -6.3999995337427871e+00 +6.6114961821935861e-04 +0.0000000000000000e+00 +9.9999978144056700e-01
-6.4999999999999929e+00 +9.0829176946524228e+00 +0.0000000000000000e+00 -6.4999995115435549e+00 +6.7148042696924947e-04 +0.0000000000000000e+00 +9.9999977455699240e-01
-6.5999999999999925e+00 +9.0828500300681814e+00 +0.0000000000000000e+00 -6.5999994886506279e+00 +6.8181126237916293e-04 +0.0000000000000000e+00 +9.9999976756667397e-01
-6.6999999999999922e+00 +9.0827813323990245e+00 +0.0000000000000000e+00 -6.6999994650533319e+00 +6.9214212544776359e-04 +0.0000000000000000e+00 +9.9999976046961014e-01
-6.7999999999999918e+00 +9.0827116016421350e+00 +0.0000000000000000e+00 -6.7999994407409918e+00 +7.0247301722172286e-04 +0.0000000000000000e+00 +9.9999975326579937e-01
-6.8999999999999915e+00 +9.0826408377945871e+00 +0.0000000000000000e+00 -6.8999994157029336e+00 +7.1280393879571188e-04 +0.0000000000000000e+00 +9.9999974595523988e-01
-6.9999999999999911e+00 +9.0825690408533450e+00 +0.0000000000000000e+00 -6.9999993899284814e+00 +7.2313489131239407e-04 +0.0000000000000000e+00 +9.9999973853793001e-01
-7.0999999999999908e+00 +9.0824962108152540e+00 +0.0000000000000000e+00 -7.0999993634069609e+00 +7.3346587596241739e-04 +0.0000000000000000e+00 +9.9999973101386797e-01
-7.1999999999999904e+00 +9.0824223476770403e+00 +0.0000000000000000e+00 -7.1999993361276964e+00 +7.4379689398440660e-04 +0.0000000000000000e+00 +9.9999972338305176e-01
-7.2999999999999901e+00 +9.0823474514353020e+00 +0.0000000000000000e+00 -7.2999993080800127e+00 +7.5412794666495481e-04 +0.0000000000000000e+00 +9.9999971564547940e-01
-7.3999999999999897e+00 +9.0822715220865078e+00 +0.0000000000000000e+00 -7.3999992792532341e+00 +7.6445903533861538e-04 +0.0000000000000000e+00 +9.9999970780114877e-01
-7.4999999999999893e+00 +9.0821945596269895e+00 +0.0000000000000000e+00 -7.4999992496366845e+00 +7.7479016138789320e-04 +0.0000000000000000e+00 +9.9999969985005766e-01
-7.5999999999999890e+00 +9.0821165640529369e+00 +0.0000000000000000e+00 -7.5999992192196872e+00 +7.8512132623646922e-04 +0.0000000000000000e+00 +9.9999969179220383e-01
-7.6999999999999886e+00 +9.0820375353604010e+00 +0.0000000000000000e+00 -7.6999991879915664e+00 +7.9545253127475540e-04 +0.0000000000000000e+00 +9.9999968362758496e-01
-7.7999999999999883e+00 +9.0819574735452981e+00 +0.0000000000000000e+00 -7.7999991559416451e+00 +8.0578377778545184e-04 +0.0000000000000000e+00 +9.9999967535619882e-01
-7.8999999999999879e+00 +9.0818763786034218e+00 +0.0000000000000000e+00 -7.8999991230592466e+00 +8.1611506693677640e-04 +0.0000000000000000e+00 +9.9999966697804310e-01
-7.9999999999999876e+00 +9.0817942505304536e+00 +0.0000000000000000e+00 -7.9999990893336941e+00 +8.2644639978246115e-04 +0.0000000000000000e+00 +9.9999965849311567e-01
-8.0999999999999872e+00 +9.0817110893219777e+00 +0.0000000000000000e+00 -8.0999990547543099e+00 +8.3677777726174924e-04 +0.0000000000000000e+00 +9.9999964990141432e-01
-8.1999999999999869e+00 +9.0816268949734873e+00 +0.0000000000000000e+00 -8.1999990193104164e+00 +8.4710920019939143e-04 +0.0000000000000000e+00 +9.9999964120293694e-01
-8.2999999999999865e+00 +9.0815416674803995e+00 +0.0000000000000000e+00 -8.2999989829913368e+00 +8.5744066930564270e-04 +0.0000000000000000e+00 +9.9999963239768164e-01
-8.3999999999999861e+00 +9.0814554068380673e+00 +0.0000000000000000e+00 -8.3999989457863933e+00 +8.6777218517625904e-04 +0.0000000000000000e+00 +9.9999962348564631e-01
-8.4999999999999858e+00 +9.0813681130417887e+00 +0.0000000000000000e+00 -8.4999989076849065e+00 +8.7810374829249392e-04 +0.0000000000000000e+00 +9.9999961446682917e-01
-8.5999999999999854e+00 +9.0812797860868208e+00 +0.0000000000000000e+00 -8.5999988686761988e+00 +8.8843535902109457e-04 +0.0000000000000000e+00 +9.9999960534122845e-01
-8.6999999999999851e+00 +9.0811904259683889e+00 +0.0000000000000000e+00 -8.6999988287495924e+00 +8.9876701761429899e-04 +0.0000000000000000e+00 +9.9999959610884237e-01
-8.7999999999999847e+00 +9.0811000326816984e+00 +0.0000000000000000e+00 -8.7999987878944079e+00 +9.0909872420983197e-04 +0.0000000000000000e+00 +9.9999958676966938e-01
-8.8999999999999844e+00 +9.0810086062219462e+00 +0.0000000000000000e+00 -8.8999987460999659e+00 +9.1943047883090196e-04 +0.0000000000000000e+00 +9.9999957732370792e-01
-8.9999999999999840e+00 +9.0809161465843342e+00 +0.0000000000000000e+00 -8.9999987033555886e+00 +9.2976228138619721e-04 +0.0000000000000000e+00 +9.9999956777095655e-01
-9.0999999999999837e+00 +9.0808226537640788e+00 +0.0000000000000000e+00 -9.0999986596505966e+00 +9.4009413166988229e-04 +0.0000000000000000e+00 +9.9999955811141406e-01
-9.1999999999999833e+00 +9.0807281277564211e+00 +0.0000000000000000e+00 -9.1999986149743105e+00 +9.5042602936159441e-04 +0.0000000000000000e+00 +9.9999954834507920e-01
-9.2999999999999829e+00 +9.0806325685566414e+00 +0.0000000000000000e+00 -9.2999985693160525e+00 +9.6075797402643982e-04 +0.0000000000000000e+00 +9.9999953847195100e-01
-9.3999999999999826e+00 +9.0805359761600677e+00 +0.0000000000000000e+00 -9.3999985226651415e+00 +9.7108996511499027e-04 +0.0000000000000000e+00 +9.9999952849202844e-01
-9.4999999999999822e+00 +9.0804383505620923e+00 +0.0000000000000000e+00 -9.4999984750108979e+00 +9.8142200196327896e-04 +0.0000000000000000e+00 +9.9999951840531087e-01
-9.5999999999999819e+00 +9.0803396917581765e+00 +0.0000000000000000e+00 -9.5999984263426441e+00 +9.9175408379834312e-04 +0.0000000000000000e+00 +9.9999950821179751e-01
-9.6999999999999815e+00 +9.0802399997438616e+00 +0.0000000000000000e+00 -9.6999983766496989e+00 +1.0020862097992265e-03 +0.0000000000000000e+00 +9.9999949791148779e-01
-9.7999999999999812e+00 +9.0801392745147727e+00 +0.0000000000000000e+00 -9.7999983259213828e+00 +1.0124183791579960e-03 +0.0000000000000000e+00 +9.9999948750438117e-01
-9.8999999999999808e+00 +9.0800375160666125e+00 +0.0000000000000000e+00 -9.8999982741470163e+00 +1.0227505910853007e-03 +0.0000000000000000e+00 +9.9999947699047720e-01
-9.9999999999999805e+00 +9.0799347243951622e+00 +0.0000000000000000e+00 -9.9999982213159182e+00 +1.0330828448103877e-03 +0.0000000000000000e+00 +9.9999946636977521e-01
-1.0099999999999980e+01 +9.0798308994962813e+00 +0.0000000000000000e+00 -1.0099998167417411e+01 +1.0434151395811164e-03 +0.0000000000000000e+00 +9.9999945564227477e-01
-1.0199999999999980e+01 +9.0797260413659018e+00 +0.0000000000000000e+00 -1.0199998112440813e+01 +1.0537474746639749e-03 +0.0000000000000000e+00 +9.9999944480797542e-01
-1.0299999999999979e+01 +9.0796201500000286e+00 +0.0000000000000000e+00 -1.0299998056375445e+01 +1.0640798493440949e-03 +0.0000000000000000e+00 +9.9999943386687662e-01
-1.0399999999999979e+01 +9.0795132253947362e+00 +0.0000000000000000e+00 -1.0399997999210628e+01 +1.0744122629252693e-03 +0.0000000000000000e+00 +9.9999942281897780e-01
-1.0499999999999979e+01 +9.0794052675461696e+00 +0.0000000000000000e+00 -1.0499997940935680e+01 +1.0847447147299685e-03 +0.0000000000000000e+00 +9.9999941166427864e-01
-1.0599999999999978e+01 +9.0792962764505383e+00 +0.0000000000000000e+00 -1.0599997881539922e+01 +1.0950772040993575e-03 +0.0000000000000000e+00 +9.9999940040277857e-01
-1.0699999999999978e+01 +9.0791862521041189e+00 +0.0000000000000000e+00 -1.0699997821012674e+01 +1.1054097303933141e-03 +0.0000000000000000e+00 +9.9999938903447716e-01
-1.0799999999999978e+01 +9.0790751945032504e+00 +0.0000000000000000e+00 -1.0799997759343258e+01 +1.1157422929904467e-03 +0.0000000000000000e+00 +9.9999937755937396e-01
-1.0899999999999977e+01 +9.0789631036443321e+00 +0.0000000000000000e+00 -1.0899997696520989e+01 +1.1260748912881131e-03 +0.0000000000000000e+00 +9.9999936597746852e-01
-1.0999999999999977e+01 +9.0788499795238220e+00 +0.0000000000000000e+00 -1.0999997632535191e+01 +1.1364075247024394e-03 +0.0000000000000000e+00 +9.9999935428876030e-01
-1.1099999999999977e+01 +9.0787358221382384e+00 +0.0000000000000000e+00 -1.1099997567375182e+01 +1.1467401926683392e-03 +0.0000000000000000e+00 +9.9999934249324895e-01
-1.1199999999999976e+01 +9.0786206314841547e+00 +0.0000000000000000e+00 -1.1199997501030280e+01 +1.1570728946395340e-03 +0.0000000000000000e+00 +9.9999933059093404e-01
-1.1299999999999976e+01 +9.0785044075581958e+00 +0.0000000000000000e+00 -1.1299997433489807e+01 +1.1674056300885732e-03 +0.0000000000000000e+00 +9.9999931858181512e-01
-1.1399999999999975e+01 +9.0783871503570381e+00 +0.0000000000000000e+00 -1.1399997364743083e+01 +1.1777383985068547e-03 +0.0000000000000000e+00 +9.9999930646589175e-01
-1.1499999999999975e+01 +9.0782688598774115e+00 +0.0000000000000000e+00 -1.1499997294779426e+01 +1.1880711994046464e-03 +0.0000000000000000e+00 +9.9999929424316347e-01
-1.1599999999999975e+01 +9.0781495361160900e+00 +0.0000000000000000e+00 -1.1599997223588156e+01 +1.1984040323096226e-03 +0.0000000000000000e+00 +9.9999928191362975e-01
-1.1699999999999974e+01 +9.0780291790698975e+00 +0.0000000000000000e+00 -1.1699997151158593e+01 +1.2087368967505505e-03 +0.0000000000000000e+00 +9.9999926947729023e-01
