# multipoles
# s[mm] polynom_b[n=0][T/m^n] polynom_b[n=1][T/m^n] polynom_b[n=2][T/m^n] polynom_b[n=3][T/m^n] polynom_b[n=4][T/m^n] polynom_b[n=5][T/m^n] polynom_b[n=6][T/m^n] 
+0.0000000000000000e+00 -1.0606704133397185e+00 +2.3549361472591679e+00 +2.0657197647932737e+01 +1.0240881404971562e+02 +1.0666072694275623e+04 -2.3701246524908369e+04 -3.6999303845958032e+07 
+1.0000000000000001e-01 -1.0606702219883895e+00 +2.3549471749643280e+00 +2.0654139880652437e+01 +1.0212558771822684e+02 +1.0769472606866948e+04 -2.2729123076717180e+04 -3.7561457929865450e+07 
+2.0000000000000001e-01 -1.0606700449781741e+00 +2.3549563953201722e+00 +2.0651757770403446e+01 +1.0181010199356697e+02 +1.0867020319549945e+04 -2.1426903845204728e+04 -3.8100271126058534e+07 
+3.0000000000000004e-01 -1.0606698803799344e+00 +2.3549640557441016e+00 +2.0649982556832828e+01 +1.0146312199814766e+02 +1.0959128788399403e+04 -1.9809149853664072e+04 -3.8616742341630705e+07 
+4.0000000000000002e-01 -1.0606697262645004e+00 +2.3549704036561057e+00 +2.0648745477438435e+01 +1.0108541261735041e+02 +1.1046210998864686e+04 -1.7890420268742469e+04 -3.9111870592405848e+07 
+5.0000000000000000e-01 -1.0606695807027424e+00 +2.3549756864812239e+00 +2.0647977777092180e+01 +1.0067773846019563e+02 +1.1128679777100810e+04 -1.5685272289783332e+04 -3.9586654082173124e+07 
+5.9999999999999998e-01 -1.0606694417655238e+00 +2.3549801516443201e+00 +2.0647610701627080e+01 +1.0024086408171895e+02 +1.1206947916083114e+04 -1.3208262658843441e+04 -4.0042090814157039e+07 
+6.9999999999999996e-01 -1.0606693075237696e+00 +2.3549840465689615e+00 +2.0647575505945657e+01 +9.9775554034358692e+01 +1.1281428023690696e+04 -1.0473948052424881e+04 -4.0479177874539927e+07 
+7.9999999999999993e-01 -1.0606691760483427e+00 +2.3549876186855316e+00 +2.0647803437511577e+01 +9.9282572687952879e+01 +1.1352532843488156e+04 -7.4968842055065943e+03 -4.0898912975961275e+07 
+8.9999999999999991e-01 -1.0606690454102121e+00 +2.3549911154171461e+00 +2.0648225758167133e+01 +9.8762684688206335e+01 +1.1420674832032131e+04 -4.2916287531461012e+03 -4.1302292423588119e+07 
+9.9999999999999989e-01 -1.0606689136802532e+00 +2.3549947841935155e+00 +2.0648773717246019e+01 +9.8216654589269069e+01 +1.1486266683383088e+04 -8.7273922285014237e+02 -4.1690313647878565e+07 
+1.0999999999999999e+00 -1.0606687789294755e+00 +2.3549988724410182e+00 +2.0649378580974940e+01 +9.7645247186658537e+01 +1.1549720764036616e+04 +2.7452248921391761e+03 -4.2063972499537691e+07 
+1.2000000000000000e+00 -1.0606686392288398e+00 +2.3550036275850408e+00 +2.0649971608033020e+01 +9.7049227509628409e+01 +1.1611449583818487e+04 +6.5477019611941441e+03 -4.2424265501772024e+07 
+1.3000000000000000e+00 -1.0606684926493248e+00 +2.3550092970537042e+00 +2.0650484058227885e+01 +9.6429360733682643e+01 +1.1671865632731700e+04 +1.0520128654974300e+04 -4.2772189084005326e+07 
+1.4000000000000001e+00 -1.0606683372619372e+00 +2.3550161282708779e+00 +2.0650847192989914e+01 +9.5786412444769752e+01 +1.1731381372424736e+04 +1.4647938194718385e+04 -4.3108739539532430e+07 
+1.5000000000000002e+00 -1.0606681711377275e+00 +2.3550243686562289e+00 +2.0650992276463139e+01 +9.5121148681547666e+01 +1.1790409220364401e+04 +1.8916559970060582e+04 -4.3434912963834658e+07 
+1.6000000000000003e+00 -1.0606679923477291e+00 +2.3550342656325411e+00 +2.0650850569003712e+01 +9.4434335758895102e+01 +1.1849361668930876e+04 +2.3311420427834466e+04 -4.3751705807309099e+07 
+1.7000000000000004e+00 -1.0606677989630313e+00 +2.3550460666172950e+00 +2.0650353333375858e+01 +9.3726740564075314e+01 +1.1908651181490008e+04 +2.7817941179773643e+04 -4.4060114420602918e+07 
+1.8000000000000005e+00 -1.0606675890547121e+00 +2.3550600190271505e+00 +2.0649431828471705e+01 +9.2999130464191666e+01 +1.1968690301090199e+04 +3.2421539408059241e+04 -4.4361135539471485e+07 
+1.9000000000000006e+00 -1.0606673606938974e+00 +2.3550763702739608e+00 +2.0648017314254680e+01 +9.2252273479731343e+01 +1.2029891568579564e+04 +3.7107626663068469e+04 -4.4655765926828332e+07 
+2.0000000000000004e+00 -1.0606671119517319e+00 +2.3550953677684179e+00 +2.0646041049048428e+01 +9.1486938209441604e+01 +1.2092667570365868e+04 +4.1861609201594714e+04 -4.4945002591871291e+07 
+2.1000000000000005e+00 -1.0606668414695053e+00 +2.3551171654013965e+00 +2.0643458920357681e+01 +9.0704696773170468e+01 +1.2157260867454444e+04 +4.6666685789434967e+04 -4.5229459345968463e+07 
+2.2000000000000006e+00 -1.0606665501422041e+00 +2.3551415548547947e+00 +2.0640323820983358e+01 +8.9909861632042876e+01 +1.2223292306663889e+04 +5.1499263678861018e+04 -4.5508549049538784e+07 
+2.3000000000000007e+00 -1.0606662394211144e+00 +2.3551682403054439e+00 +2.0636712437995012e+01 +8.9107306765038103e+01 +1.2290243888611896e+04 +5.6334587975775670e+04 -4.5781476667530447e+07 
+2.4000000000000008e+00 -1.0606659107574594e+00 +2.3551969259269492e+00 +2.0632701449259073e+01 +8.8301906134914702e+01 +1.2357597794118823e+04 +6.1147904365751856e+04 -4.6047448033410855e+07 
+2.5000000000000009e+00 -1.0606655656024333e+00 +2.3552273158889085e+00 +2.0628367529836691e+01 +8.7498533681752534e+01 +1.2424836251402165e+04 +6.5914459307101337e+04 -4.6305669191929519e+07 
+2.6000000000000010e+00 -1.0606652054072414e+00 +2.3552591143529376e+00 +2.0623787355767135e+01 +8.6702063394449056e+01 +1.2491441475290592e+04 +7.0609499787106353e+04 -4.6555346142821006e+07 
+2.7000000000000011e+00 -1.0606648316230176e+00 +2.3552920254752840e+00 +2.0619037594360048e+01 +8.5917369206814001e+01 +1.2556895843967837e+04 +7.5208274046796549e+04 -4.6795685658128783e+07 
+2.8000000000000012e+00 -1.0606644457008572e+00 +2.3553257534050029e+00 +2.0614194908527203e+01 +8.5149324997432643e+01 +1.2620681818914107e+04 +7.9686031784649880e+04 -4.7025894909214586e+07 
+2.9000000000000012e+00 -1.0606640490918284e+00 +2.3553600022858125e+00 +2.0609335958200802e+01 +8.4402804518829313e+01 +1.2682281919607556e+04 +8.4018024653388158e+04 -4.7245181355123788e+07 
+3.0000000000000013e+00 -1.0606636432469190e+00 +2.3553944762539150e+00 +2.0604537394388107e+01 +8.3682681388105735e+01 +1.2741178829509929e+04 +8.8179506565617281e+04 -4.7452753223558731e+07 
+3.1000000000000014e+00 -1.0606632296170915e+00 +2.3554288794371483e+00 +2.0599875865339612e+01 +8.2993829108228681e+01 +1.2796855286203259e+04 +9.2145733631235154e+04 -4.7647819012275629e+07 
+3.2000000000000015e+00 -1.0606628096532396e+00 +2.3554629159548330e+00 +2.0595428011827490e+01 +8.2341121015912890e+01 +1.2848794166632257e+04 +9.5891964653571864e+04 -4.7829587881389260e+07 
+3.3000000000000016e+00 -1.0606623848061740e+00 +2.3554962899161649e+00 +2.0591270465566812e+01 +8.1729430290298723e+01 +1.2896478518954676e+04 +9.9393461246488499e+04 -4.7997269814297132e+07 
+3.4000000000000017e+00 -1.0606619565266759e+00 +2.3555287054255194e+00 +2.0587479855287761e+01 +8.1163629771634078e+01 +1.2939391447060125e+04 +1.0262548899230878e+05 -4.8150075063629508e+07 
+3.5000000000000018e+00 -1.0606615262654484e+00 +2.3555598665769746e+00 +2.0584132802255681e+01 +8.0648592055485722e+01 +1.2977016190473472e+04 +1.0556331714149458e+05 -4.8287214522443704e+07 
+3.6000000000000019e+00 -1.0606610954730644e+00 +2.3555894774510335e+00 +2.0581305912755852e+01 +8.0189189590056486e+01 +1.3008836272588122e+04 +1.0818221806928089e+05 -4.8407900442782648e+07 
+3.7000000000000020e+00 -1.0606606656001019e+00 +2.3556172421236412e+00 +2.0579075795275763e+01 +7.9790294337541170e+01 +1.3034335172484276e+04 +1.1045746951558000e+05 -4.8511344871062204e+07 
+3.8000000000000020e+00 -1.0606602380969830e+00 +2.3556428646567871e+00 +2.0577519040883761e+01 +7.9456778031091645e+01 +1.3052996697826626e+04 +1.1236435318152774e+05 -4.8596761424049042e+07 
+3.9000000000000021e+00 -1.0606598144140820e+00 +2.3556660491041175e+00 +2.0576712237240660e+01 +7.9193511961706719e+01 +1.3064304713963465e+04 +1.1387815614777179e+05 -4.8663363987265170e+07 
+4.0000000000000018e+00 -1.0606593960016393e+00 +2.3556864995076845e+00 +2.0576731956687350e+01 +7.9005367021559337e+01 +1.3067743374501040e+04 +1.1497417065613497e+05 -4.8710367835357904e+07 
+4.1000000000000014e+00 -1.0606589839212199e+00 +2.3557039891956961e+00 +2.0577630782609553e+01 +7.8895227675269695e+01 +1.3062953709769423e+04 +1.1563830583974191e+05 -4.8737168309593342e+07 
+4.2000000000000011e+00 -1.0606585777588458e+00 +2.3557185512162988e+00 +2.0579373229613392e+01 +7.8859094694843961e+01 +1.3050068911310982e+04 +1.1589317025353144e+05 -4.8743246870611854e+07 
+4.3000000000000007e+00 -1.0606581767528585e+00 +2.3557302788701326e+00 +2.0581904025496062e+01 +7.8891522277065889e+01 +1.3029303986924306e+04 +1.1576904867297431e+05 -4.8727909839502171e+07 
+4.4000000000000004e+00 -1.0606577801416086e+00 +2.3557392654605653e+00 +2.0585167901718709e+01 +7.8987064927142342e+01 +1.3000873874357350e+04 +1.1529622266325966e+05 -4.8690463218226403e+07 
+4.5000000000000000e+00 -1.0606573871634573e+00 +2.3557456042954659e+00 +2.0589109593294936e+01 +7.9140277400787653e+01 +1.2964993448610299e+04 +1.1450497076222503e+05 -4.8630212730340153e+07 
+4.5999999999999996e+00 -1.0606569970567725e+00 +2.3557493886926975e+00 +2.0593673839129192e+01 +7.9345714581013624e+01 +1.2921877513002386e+04 +1.1342556905215651e+05 -4.8546463771983303e+07 
+4.6999999999999993e+00 -1.0606566090599590e+00 +2.3557507119790437e+00 +2.0598805384728902e+01 +7.9597931535704376e+01 +1.2871740755966657e+04 +1.1208829070706446e+05 -4.8438521229667492e+07 
+4.7999999999999989e+00 -1.0606562224114195e+00 +2.3557496674866116e+00 +2.0604448978554665e+01 +7.9891483667213109e+01 +1.2814797811168712e+04 +1.1052340496119692e+05 -4.8305689741405673e+07 
+4.8999999999999986e+00 -1.0606558363495517e+00 +2.3557463485618708e+00 +2.0610549371816013e+01 +8.0220926446091809e+01 +1.2751263263158431e+04 +1.0876117861452230e+05 -4.8147273726842992e+07 
+4.9999999999999982e+00 -1.0606554501128471e+00 +2.3557408485557056e+00 +2.0617051329357455e+01 +8.0580815765523951e+01 +1.2681351450952654e+04 +1.0683187375711944e+05 -4.7962576484423622e+07 
+5.0999999999999979e+00 -1.0606550629397762e+00 +2.3557332608329409e+00 +2.0623899617747718e+01 +8.0965707672534009e+01 +1.2605276679958079e+04 +1.0476574925963080e+05 -4.7750901158381738e+07 
+5.1999999999999975e+00 -1.0606546740688092e+00 +2.3557236787705849e+00 +2.0631039006298142e+01 +8.1370158461300718e+01 +1.2523253212069159e+04 +1.0259306007304460e+05 -4.7511550718429036e+07 
+5.2999999999999972e+00 -1.0606542827385304e+00 +2.3557121957555403e+00 +2.0638414282128000e+01 +8.1788724751482363e+01 +1.2435494977051203e+04 +1.0034405670220595e+05 -4.7243826579694383e+07 
+5.3999999999999968e+00 -1.0606538881874623e+00 +2.3556989051900761e+00 +2.0645970228099525e+01 +8.2215963382686709e+01 +1.2342215994102571e+04 +9.8048985620257474e+04 -4.6947030616740629e+07 
+5.4999999999999964e+00 -1.0606534896542237e+00 +2.3556839004873384e+00 +2.0653651642907171e+01 +8.2646431559586404e+01 +1.2243629986752960e+04 +9.5738088345393786e+04 -4.6620463319704078e+07 
+5.5999999999999961e+00 -1.0606530863774488e+00 +2.3556672750754477e+00 +2.0661403330909366e+01 +8.3074686760828172e+01 +1.2139950578613503e+04 +9.3441601848842562e+04 -4.6263424734784596e+07 
+5.6999999999999957e+00 -1.0606526775957954e+00 +2.3556491223989298e+00 +2.0669170103286660e+01 +8.3495286739077386e+01 +1.2031391272629506e+04 +9.1189758397408426e+04 -4.5875214367904902e+07 
+5.7999999999999954e+00 -1.0606522625480221e+00 +2.3556295359164956e+00 +2.0676896788601582e+01 +8.3902789608226826e+01 +1.1918165243209378e+04 +8.9012784938771147e+04 -4.5455130178004496e+07 
+5.8999999999999950e+00 -1.0606518404728329e+00 +2.3556086091015476e+00 +2.0684528211391580e+01 +8.4291753853601776e+01 +1.1800485760711199e+04 +8.6940902931756558e+04 -4.5002470642480530e+07 
+5.9999999999999947e+00 -1.0606514106090763e+00 +2.3555864354394318e+00 +2.0692009219389014e+01 +8.4656738578985312e+01 +1.1678565676041608e+04 +8.5004327435833897e+04 -4.4516532237615153e+07 
+6.0999999999999943e+00 -1.0606509722033806e+00 +2.3555631426709285e+00 +2.0699289314028221e+01 +8.4993221321153499e+01 +1.1552762923080943e+04 +8.3227021500894378e+04 -4.3997685351257600e+07 
+6.1999999999999940e+00 -1.0606505244913014e+00 +2.3555390172395572e+00 +2.0706327845981594e+01 +8.5298775575568158e+01 +1.1424084461616445e+04 +8.1616095600079076e+04 -4.3450811790060721e+07 
+6.2999999999999936e+00 -1.0606500666928920e+00 +2.3555143909246103e+00 +2.0713084026497597e+01 +8.5571121801606125e+01 +1.1293729946768659e+04 +8.0176433692179446e+04 -4.2882042831237458e+07 
+6.3999999999999932e+00 -1.0606495980282549e+00 +2.3554895955236570e+00 +2.0719517062995347e+01 +8.5807979496939296e+01 +1.1162899166320913e+04 +7.8912926520009045e+04 -4.2297510518159911e+07 
+6.4999999999999929e+00 -1.0606491177175521e+00 +2.3554649628601281e+00 +2.0725586161714634e+01 +8.6007066984763355e+01 +1.1032791972239133e+04 +7.7830472982140855e+04 -4.1703347293344989e+07 
+6.5999999999999925e+00 -1.0606486249810529e+00 +2.3554408247694654e+00 +2.0731250533124872e+01 +8.6166101802645443e+01 +1.0904608182681892e+04 +7.6933977923069338e+04 -4.1105685546099849e+07 
+6.6999999999999922e+00 -1.0606481190390984e+00 +2.3554175131141109e+00 +2.0736469387461209e+01 +8.6282800227023358e+01 +1.0779547664000924e+04 +7.6228355023767130e+04 -4.0510657992387608e+07 
+6.7999999999999918e+00 -1.0606475991120992e+00 +2.3553953597688730e+00 +2.0741201933250117e+01 +8.6354877691108541e+01 +1.0658810368751821e+04 +7.5718524408486192e+04 -3.9924397883126013e+07 
+6.8999999999999915e+00 -1.0606470644205888e+00 +2.3553746966345628e+00 +2.0745407384683134e+01 +8.6380048365244818e+01 +1.0543596185911783e+04 +7.5409415153782349e+04 -3.9353038262586549e+07 
+6.9999999999999911e+00 -1.0606465141851606e+00 +2.3553558556299214e+00 +2.0749044951678936e+01 +8.6356025358087123e+01 +1.0435105146453761e+04 +7.5305964237811451e+04 -3.8802712993256889e+07 
+7.0999999999999908e+00 -1.0606459476265102e+00 +2.3553391686970895e+00 +2.0752073847196087e+01 +8.6280520549697144e+01 +1.0334537266646701e+04 +7.5413117535962112e+04 -3.8279555959815368e+07 
+7.1999999999999904e+00 -1.0606453639654458e+00 +2.3553249678014394e+00 +2.0754453285905377e+01 +8.6151244560982647e+01 +1.0243092591142606e+04 +7.5735830118232494e+04 -3.7789701321546696e+07 
+7.2999999999999901e+00 -1.0606447624228705e+00 +2.3553135849305482e+00 +2.0756142482901605e+01 +8.5965906773626244e+01 +1.0161971210459045e+04 +7.6279066166680277e+04 -3.7339283577249758e+07 
+7.3999999999999897e+00 -1.0606441422197839e+00 +2.3553053520925982e+00 +2.0757100652785212e+01 +8.5722215349943738e+01 +1.0092373285882688e+04 +7.7047798954479527e+04 -3.6934437701788440e+07 
+7.4999999999999893e+00 -1.0606435025772936e+00 +2.3553006013278712e+00 +2.0757287011655940e+01 +8.5417876872621676e+01 +1.0035499003001742e+04 +7.8047013023165768e+04 -3.6581298899587527e+07 
+7.5999999999999890e+00 -1.0606428427166146e+00 +2.3552996646919362e+00 +2.0756660775417654e+01 +8.5050596805139676e+01 +9.9925486191168111e+03 +7.9281701600765926e+04 -3.6286002874068886e+07 
+7.6999999999999886e+00 -1.0606421618590833e+00 +2.3553028742720699e+00 +2.0755181162268570e+01 +8.4618079013061177e+01 +9.9647224052389902e+03 +8.0756869399666568e+04 -3.6054685518558703e+07 
+7.7999999999999883e+00 -1.0606414592261735e+00 +2.3553105621809203e+00 +2.0752807393663076e+01 +8.4118025908170580e+01 +9.9532206354991285e+03 +8.2477531901646726e+04 -3.5893482886803158e+07 
+7.8999999999999879e+00 -1.0606407340394290e+00 +2.3553230605532089e+00 +2.0749498685782626e+01 +8.3548138531611386e+01 +9.9592437507566410e+03 +8.4448714931422539e+04 -3.5808531975105830e+07 
+7.9999999999999876e+00 -1.0606399855205424e+00 +2.3553407015685224e+00 +2.0745214259152640e+01 +8.2906115576022344e+01 +9.9839921284409702e+03 +8.6675459161497391e+04 -3.5805969645631514e+07 
+8.0999999999999872e+00 -1.0606392132548699e+00 +2.3553636611096720e+00 +2.0739935714560726e+01 +8.2191474634124305e+01 +1.0028128705287447e+04 +8.9156242697728638e+04 -3.5889314142584145e+07 
+8.1999999999999869e+00 -1.0606384182521773e+00 +2.3553914558828781e+00 +2.0733745900920635e+01 +8.1412882444714000e+01 +1.0090046615949979e+04 +9.1854975066290775e+04 -3.6051269001179546e+07 
+8.2999999999999865e+00 -1.0606376018747774e+00 +2.3554234282662696e+00 +2.0726756691741212e+01 +8.0581735313520980e+01 +1.0167519188035609e+04 +9.4725043952502616e+04 -3.6281644508458339e+07 
+8.3999999999999861e+00 -1.0606367654848505e+00 +2.3554589205811656e+00 +2.0719079960827557e+01 +7.9709431498715531e+01 +1.0258319600461818e+04 +9.7719825991706675e+04 -3.6570249948349722e+07 
+8.4999999999999858e+00 -1.0606359104443586e+00 +2.3554972751144052e+00 +2.0710827568223223e+01 +7.8807370660104326e+01 +1.0360221166586998e+04 +1.0079268866882416e+05 -3.6906894895054102e+07 
+8.5999999999999854e+00 -1.0606350381150484e+00 +2.3555378341128157e+00 +2.0702111362749616e+01 +7.7886954028290120e+01 +1.0470997269823041e+04 +1.0389698931446235e+05 -3.7281388861917041e+07 
+8.6999999999999851e+00 -1.0606341498584475e+00 +2.3555799397839006e+00 +2.0693043181423526e+01 +7.6959584405862813e+01 +1.0588421377999322e+04 +1.0698607504458514e+05 -3.7683541381017730e+07 
+8.7999999999999847e+00 -1.0606332470359037e+00 +2.3556229342879798e+00 +2.0683734854754352e+01 +7.6036666404995387e+01 +1.0710266933984154e+04 +1.1001328135437494e+05 -3.8103161455908321e+07 
+8.8999999999999844e+00 -1.0606323310084540e+00 +2.3556661597450219e+00 +2.0674298190912644e+01 +7.5129606265081208e+01 +1.0834307656943067e+04 +1.1293193314664000e+05 -3.8530058998890698e+07 
+8.9999999999999840e+00 -1.0606314031369719e+00 +2.3557089582296054e+00 +2.0664844995061578e+01 +7.4249812016401577e+01 +1.0958317163167017e+04 +1.1569534372351511e+05 -3.8954042993210979e+07 
+9.0999999999999837e+00 -1.0606304647820528e+00 +2.3557506717677485e+00 +2.0655487054569988e+01 +7.3408693569831314e+01 +1.1080069252587307e+04 +1.1825681429141108e+05 -3.9364922871868797e+07 
+9.1999999999999833e+00 -1.0606295173040645e+00 +2.3557906423397870e+00 +2.0646336147251592e+01 +7.2617662674619865e+01 +1.1197337735615334e+04 +1.2056963408218049e+05 -3.9752507648442782e+07 
+9.2999999999999829e+00 -1.0606285620630878e+00 +2.3558282118730705e+00 +2.0637504032809542e+01 +7.1888133122230926e+01 +1.1307896604556761e+04 +1.2258707920244036e+05 -4.0106606757442027e+07 
+9.3999999999999826e+00 -1.0606276004189641e+00 +2.3558627222505897e+00 +2.0629102460916286e+01 +7.1231520520381977e+01 +1.1409519863663127e+04 +1.2426241388420845e+05 -4.0417029199895270e+07 
+9.4999999999999822e+00 -1.0606266337312571e+00 +2.3558935152946758e+00 +2.0621243165244284e+01 +7.0659242772825081e+01 +1.1499981648831712e+04 +1.2554888767655886e+05 -4.0673584131575376e+07 
+9.5999999999999819e+00 -1.0606256633592741e+00 +2.3559199327804690e+00 +2.0614037868498603e+01 +7.0182719706341871e+01 +1.1577056114978448e+04 +1.2639973757149003e+05 -4.0866080278045401e+07 
+9.6999999999999815e+00 -1.0606246906619821e+00 +2.3559413164308376e+00 +2.0607598270548788e+01 +6.9813373240583786e+01 +1.1638517671758365e+04 +1.2676818696438594e+05 -4.0984327087992772e+07 
+9.7999999999999812e+00 -1.0606237169981427e+00 +2.3559570079032772e+00 +2.0602036067172833e+01 +6.9562627765273319e+01 +1.1682140611909541e+04 +1.2660744346176194e+05 -4.1018132919504896e+07 
+9.8999999999999808e+00 -1.0606227437261451e+00 +2.3559663488063092e+00 +2.0597462929242180e+01 +6.9441909696795491e+01 +1.1705699506248549e+04 +1.2587070138397437e+05 -4.0957306920622125e+07 
+9.9999999999999805e+00 -1.0606217722041196e+00 +2.3559686806749545e+00 +2.0593990516033514e+01 +6.9462648430115067e+01 +1.1706968989205787e+04 +1.2451113695410424e+05 -4.0791658014558889e+07 
+1.0099999999999980e+01 -1.0606208037069724e+00 +2.3559635130187035e+00 +2.0591704064075373e+01 +6.9633168933924168e+01 +1.1684339731350927e+04 +1.2249581336505803e+05 -4.0514006542413369e+07 
