# field on trajectory
# s[mm] rx[mm] ry[mm] rz[mm] bx[T] by[T] bz[T]
-0.0000000000000000e+00 +9.1076201166355002e+00 +0.0000000000000000e+00 -0.0000000000000000e+00 +1.0714414120086287e-02 -1.0342498844700541e+00 -5.8782800264754985e-02
-1.0005104645227200e-01 +9.1076196006322601e+00 +0.0000000000000000e+00 -1.0005104645049701e-01 +1.0714708983462490e-02 -1.0342487675876459e+00 -5.8783463609784363e-02
-2.0010209290454301e-01 +9.1076180526189905e+00 +0.0000000000000000e+00 -2.0010209289035000e-01 +1.0715009543704307e-02 -1.0342475867205085e+00 -5.8784129381538312e-02
-3.0015313935681498e-01 +9.1076154725992300e+00 +0.0000000000000000e+00 -3.0015313930891202e-01 +1.0715314590993582e-02 -1.0342463526059344e+00 -5.8784798291151491e-02
-4.0020418580908601e-01 +9.1076118605712200e+00 +0.0000000000000000e+00 -4.0020418569554000e-01 +1.0715622915453008e-02 -1.0342450759813917e+00 -5.8785471049742022e-02
-5.0025523226135804e-01 +9.1076072165331805e+00 +0.0000000000000000e+00 -5.0025523203958799e-01 +1.0715933307155995e-02 -1.0342437675845830e+00 -5.8786148368400230e-02
-6.0030627871362996e-01 +9.1076015404886608e+00 +0.0000000000000000e+00 -6.0030627833041095e-01 +1.0716244556136505e-02 -1.0342424381535114e+00 -5.8786830958177445e-02
-7.0035732516590099e-01 +9.1075948324376501e+00 +0.0000000000000000e+00 -7.0035732455736299e-01 +1.0716555452399086e-02 -1.0342410984265760e+00 -5.8787519530076507e-02
-8.0040837161817302e-01 +9.1075870923766207e+00 +0.0000000000000000e+00 -8.0040837070980198e-01 +1.0716864785928749e-02 -1.0342397591426440e+00 -5.8788214795040851e-02
-9.0045941807044405e-01 +9.1075783203073204e+00 +0.0000000000000000e+00 -9.0045941677707997e-01 +1.0717171346700806e-02 -1.0342384310411092e+00 -5.8788917463943297e-02
-1.0005104645227201e+00 +9.1075685162297706e+00 +0.0000000000000000e+00 -1.0005104627485499e+00 +1.0717473924690841e-02 -1.0342371248619788e+00 -5.8789628247575859e-02
-1.1005615109749900e+00 +9.1075576801457405e+00 +0.0000000000000000e+00 -1.1005615086135800e+00 +1.0717771309884584e-02 -1.0342358513459458e+00 -5.8790347856638961e-02
-1.2006125574272599e+00 +9.1075458120516792e+00 +0.0000000000000000e+00 -1.2006125543615100e+00 +1.0718062292287903e-02 -1.0342346212344751e+00 -5.8791077001731501e-02
-1.3006636038795301e+00 +9.1075329119511395e+00 +0.0000000000000000e+00 -1.3006635999817000e+00 +1.0718345661936558e-02 -1.0342334452698527e+00 -5.8791816393338921e-02
-1.4007146503318000e+00 +9.1075189798405596e+00 +0.0000000000000000e+00 -1.4007146454635000e+00 +1.0718620208906286e-02 -1.0342323341952926e+00 -5.8792566741824023e-02
-1.5007656967840699e+00 +9.1075040157234994e+00 +0.0000000000000000e+00 -1.5007656907962801e+00 +1.0718884723322629e-02 -1.0342312987549789e+00 -5.8793328757414845e-02
-1.6008167432363500e+00 +9.1074880195981898e+00 +0.0000000000000000e+00 -1.6008167359693799e+00 +1.0719138211549208e-02 -1.0342303490405873e+00 -5.8794102858418844e-02
-1.7008677896886200e+00 +9.1074709914646199e+00 +0.0000000000000000e+00 -1.7008677809721600e+00 +1.0719380525117074e-02 -1.0342294925899038e+00 -5.8794888322429247e-02
-1.8009188361408901e+00 +9.1074529313228005e+00 +0.0000000000000000e+00 -1.8009188257939699e+00 +1.0719611722142411e-02 -1.0342287363176172e+00 -5.8795684148363545e-02
-1.9009698825931600e+00 +9.1074338391727103e+00 +0.0000000000000000e+00 -1.9009698704241800e+00 +1.0719831860866665e-02 -1.0342280871396303e+00 -5.8796489335174257e-02
-2.0010209290454299e+00 +9.1074137150161505e+00 +0.0000000000000000e+00 -2.0010209148521301e+00 +1.0720040999670888e-02 -1.0342275519731203e+00 -5.8797302881864334e-02
-2.1010719754977001e+00 +9.1073925588495506e+00 +0.0000000000000000e+00 -2.1010719590671898e+00 +1.0720239197090219e-02 -1.0342271377366208e+00 -5.8798123787503820e-02
-2.2011230219499698e+00 +9.1073703706746993e+00 +0.0000000000000000e+00 -2.2011230030586999e+00 +1.0720426511828139e-02 -1.0342268513500650e+00 -5.8798951051244483e-02
-2.3011740684022501e+00 +9.1073471504933696e+00 +0.0000000000000000e+00 -2.3011740468160200e+00 +1.0720603002770951e-02 -1.0342266997348626e+00 -5.8799783672336112e-02
-2.4012251148545198e+00 +9.1073228983037797e+00 +0.0000000000000000e+00 -2.4012250903285000e+00 +1.0720768729002191e-02 -1.0342266898139747e+00 -5.8800620650142764e-02
-2.5012761613067900e+00 +9.1072976141041497e+00 +0.0000000000000000e+00 -2.5012761335854998e+00 +1.0720923749816985e-02 -1.0342268285119698e+00 -5.8801460984158109e-02
-2.6013272077590601e+00 +9.1072712978980501e+00 +0.0000000000000000e+00 -2.6013271765763899e+00 +1.0721068124736409e-02 -1.0342271227550792e+00 -5.8802303674020735e-02
-2.7013782542113298e+00 +9.1072439496836903e+00 +0.0000000000000000e+00 -2.7013782192905000e+00 +1.0721201913521976e-02 -1.0342275794712852e+00 -5.8803147719530963e-02
-2.8014293006636000e+00 +9.1072155694610704e+00 +0.0000000000000000e+00 -2.8014292617172001e+00 +1.0721325176189995e-02 -1.0342282055903731e+00 -5.8803992120665970e-02
-2.9014803471158799e+00 +9.1071861572302009e+00 +0.0000000000000000e+00 -2.9014803038458301e+00 +1.0721437973025960e-02 -1.0342290080440000e+00 -5.8804835877595760e-02
-3.0015313935681500e+00 +9.1071557129910694e+00 +0.0000000000000000e+00 -3.0015313456657702e+00 +1.0721540364599000e-02 -1.0342299937657597e+00 -5.8805677990698954e-02
-3.1015824400204202e+00 +9.1071242367454595e+00 +0.0000000000000000e+00 -3.1015823871663502e+00 +1.0721632411776231e-02 -1.0342311696912454e+00 -5.8806517460578342e-02
-3.2016334864726899e+00 +9.1070917284915893e+00 +0.0000000000000000e+00 -3.2016334283369399e+00 +1.0721714175737258e-02 -1.0342325427581291e+00 -5.8807353288077409e-02
-3.3016845329249600e+00 +9.1070581882277004e+00 +0.0000000000000000e+00 -3.3016844691668901e+00 +1.0721785717988538e-02 -1.0342341199062159e+00 -5.8808184474295561e-02
-3.4017355793772301e+00 +9.1070236159573206e+00 +0.0000000000000000e+00 -3.4017355096455599e+00 +1.0721847100377754e-02 -1.0342359080775012e+00 -5.8809010020603562e-02
-3.5017866258295101e+00 +9.1069880116786806e+00 +0.0000000000000000e+00 -3.5017865497623002e+00 +1.0721898385109327e-02 -1.0342379142162361e+00 -5.8809828928662086e-02
-3.6018376722817802e+00 +9.1069513753917892e+00 +0.0000000000000000e+00 -3.6018375895064700e+00 +1.0721939814588455e-02 -1.0342401411658271e+00 -5.8810640528474026e-02
-3.7018887187340499e+00 +9.1069137070966395e+00 +0.0000000000000000e+00 -3.7018886288674100e+00 +1.0721972313183907e-02 -1.0342425762139213e+00 -5.8811445393972935e-02
-3.8019397651863200e+00 +9.1068750067950095e+00 +0.0000000000000000e+00 -3.8019396678344899e+00 +1.0721996966563351e-02 -1.0342452029608744e+00 -5.8812244393785004e-02
-3.9019908116385902e+00 +9.1068352744833394e+00 +0.0000000000000000e+00 -3.9019907063970600e+00 +1.0722014860045863e-02 -1.0342480050056497e+00 -5.8813038396478008e-02
-4.0020418580908599e+00 +9.1067945101634198e+00 +0.0000000000000000e+00 -4.0020417445444796e+00 +1.0722027078568593e-02 -1.0342509659456149e+00 -5.8813828270550497e-02
-4.1020929045431300e+00 +9.1067527138370199e+00 +0.0000000000000000e+00 -4.1020927822660997e+00 +1.0722034706653592e-02 -1.0342540693763720e+00 -5.8814614884422460e-02
-4.2021439509954099e+00 +9.1067098855023705e+00 +0.0000000000000000e+00 -4.2021438195512797e+00 +1.0722038828374665e-02 -1.0342572988915886e+00 -5.8815399106426018e-02
-4.3021949974476801e+00 +9.1066660251594502e+00 +0.0000000000000000e+00 -4.3021948563893604e+00 +1.0722040527324058e-02 -1.0342606380828034e+00 -5.8816181804794927e-02
-4.4022460438999502e+00 +9.1066211328065094e+00 +0.0000000000000000e+00 -4.4022458927697201e+00 +1.0722040886579309e-02 -1.0342640705392556e+00 -5.8816963847655279e-02
-4.5022970903522204e+00 +9.1065752084488594e+00 +0.0000000000000000e+00 -4.5022969286816901e+00 +1.0722040988669865e-02 -1.0342675798476832e+00 -5.8817746103014656e-02
-4.6023481368044896e+00 +9.1065282520811692e+00 +0.0000000000000000e+00 -4.6023479641146396e+00 +1.0722041915544104e-02 -1.0342711495921857e+00 -5.8818529438754354e-02
-4.7023991832567598e+00 +9.1064802637070095e+00 +0.0000000000000000e+00 -4.7023989990579196e+00 +1.0722044748535820e-02 -1.0342747633539964e+00 -5.8819314722617297e-02
-4.8024502297090397e+00 +9.1064312433245895e+00 +0.0000000000000000e+00 -4.8024500335008904e+00 +1.0722050568331185e-02 -1.0342784047113387e+00 -5.8820102822199988e-02
-4.9025012761613098e+00 +9.1063811909321402e+00 +0.0000000000000000e+00 -4.9025010674329002e+00 +1.0722060454935397e-02 -1.0342820572392304e+00 -5.8820894604941942e-02
-5.0025523226135800e+00 +9.1063301065332105e+00 +0.0000000000000000e+00 -5.0025521008432996e+00 +1.0722075487639376e-02 -1.0342857045092937e+00 -5.8821690938115470e-02
-5.1026033690658501e+00 +9.1062779901260207e+00 +0.0000000000000000e+00 -5.1026031337214599e+00 +1.0722096744986635e-02 -1.0342893300895979e+00 -5.8822492688816889e-02
-5.2026544155181202e+00 +9.1062248417123506e+00 +0.0000000000000000e+00 -5.2026541660567203e+00 +1.0722125304739883e-02 -1.0342929175444615e+00 -5.8823300723955876e-02
-5.3027054619703904e+00 +9.1061706612886404e+00 +0.0000000000000000e+00 -5.3027051978384501e+00 +1.0722162243847873e-02 -1.0342964504342882e+00 -5.8824115910246499e-02
-5.4027565084226703e+00 +9.1061154488584606e+00 +0.0000000000000000e+00 -5.4027562290559903e+00 +1.0722208638411959e-02 -1.0342999123153640e+00 -5.8824939114196242e-02
-5.5028075548749404e+00 +9.1060592044200206e+00 +0.0000000000000000e+00 -5.5028072596986997e+00 +1.0722265563647511e-02 -1.0343032867397512e+00 -5.8825771202092259e-02
-5.6028586013272097e+00 +9.1060019279733204e+00 +0.0000000000000000e+00 -5.6028582897559396e+00 +1.0722333826115357e-02 -1.0343065598143246e+00 -5.8826612789724876e-02
-5.7029096477794798e+00 +9.1059436195183707e+00 +0.0000000000000000e+00 -5.7029093192170599e+00 +1.0722413247255810e-02 -1.0343097270540591e+00 -5.8827463572399187e-02
-5.8029606942317500e+00 +9.1058842790551608e+00 +0.0000000000000000e+00 -5.8029603480714202e+00 +1.0722503422365087e-02 -1.0343127861356156e+00 -5.8828323033910938e-02
-5.9030117406840201e+00 +9.1058239065854707e+00 +0.0000000000000000e+00 -5.9030113763083696e+00 +1.0722603946965370e-02 -1.0343157347348022e+00 -5.8829190658067861e-02
-6.0030627871363000e+00 +9.1057625021075204e+00 +0.0000000000000000e+00 -6.0030624039172604e+00 +1.0722714416823303e-02 -1.0343185705265823e+00 -5.8830065928691673e-02
-6.1031138335885702e+00 +9.1057000656213205e+00 +0.0000000000000000e+00 -6.1031134308874604e+00 +1.0722834427968326e-02 -1.0343212911850517e+00 -5.8830948329618687e-02
-6.2031648800408403e+00 +9.1056365971268605e+00 +0.0000000000000000e+00 -6.2031644572083096e+00 +1.0722963576711084e-02 -1.0343238943834414e+00 -5.8831837344701557e-02
-6.3032159264931096e+00 +9.1055720966241402e+00 +0.0000000000000000e+00 -6.3032154828691800e+00 +1.0723101459661852e-02 -1.0343263777941059e+00 -5.8832732457810302e-02
-6.4032669729453797e+00 +9.1055065641149504e+00 +0.0000000000000000e+00 -6.4032665078594100e+00 +1.0723247673748918e-02 -1.0343287390885172e+00 -5.8833633152833700e-02
-6.5033180193976499e+00 +9.1054399995957205e+00 +0.0000000000000000e+00 -6.5033175321683601e+00 +1.0723401816237101e-02 -1.0343309759372750e+00 -5.8834538913681199e-02
-6.6033690658499298e+00 +9.1053724030699996e+00 +0.0000000000000000e+00 -6.6033685557853898e+00 +1.0723563484745985e-02 -1.0343330860100679e+00 -5.8835449224283090e-02
-6.7034201123021999e+00 +9.1053037745378091e+00 +0.0000000000000000e+00 -6.7034195786998501e+00 +1.0723732277268489e-02 -1.0343350669756972e+00 -5.8836363568592787e-02
-6.8034711587544701e+00 +9.1052341139955892e+00 +0.0000000000000000e+00 -6.8034706009011003e+00 +1.0723907792189303e-02 -1.0343369165020673e+00 -5.8837281430588174e-02
-6.9035222052067402e+00 +9.1051634214468908e+00 +0.0000000000000000e+00 -6.9035216223784897e+00 +1.0724089628303155e-02 -1.0343386322561570e+00 -5.8838202294271967e-02
-7.0035732516590103e+00 +9.1050916968899305e+00 +0.0000000000000000e+00 -7.0035726431213803e+00 +1.0724277384833416e-02 -1.0343402119040415e+00 -5.8839125643674162e-02
-7.1036242981112796e+00 +9.1050189403247099e+00 +0.0000000000000000e+00 -7.1036236631191203e+00 +1.0724470661450422e-02 -1.0343416531108716e+00 -5.8840050962852691e-02
-7.2036753445635497e+00 +9.1049451517530091e+00 +0.0000000000000000e+00 -7.2036746823610702e+00 +1.0724669058289943e-02 -1.0343429535408659e+00 -5.8840977735894751e-02
-7.3037263910158297e+00 +9.1048703311712806e+00 +0.0000000000000000e+00 -7.3037257008365799e+00 +1.0724872175971685e-02 -1.0343441108573252e+00 -5.8841905446918870e-02
-7.4037774374680998e+00 +9.1047944785830701e+00 +0.0000000000000000e+00 -7.4037767185350001e+00 +1.0725079615617590e-02 -1.0343451227225937e+00 -5.8842833580074888e-02
-7.5038284839203699e+00 +9.1047175939865994e+00 +0.0000000000000000e+00 -7.5038277354457001e+00 +1.0725290978876511e-02 -1.0343459867981535e+00 -5.8843761619544910e-02
-7.6038795303726401e+00 +9.1046396773836609e+00 +0.0000000000000000e+00 -7.6038787515580202e+00 +1.0725505989307580e-02 -1.0343467021048713e+00 -5.8844689015403719e-02
-7.7039305768249102e+00 +9.1045607287706805e+00 +0.0000000000000000e+00 -7.7039297668613296e+00 +1.0725724803908853e-02 -1.0343472725148264e+00 -5.8845615095946727e-02
-7.8039816232771804e+00 +9.1044807481512198e+00 +0.0000000000000000e+00 -7.8039807813449800e+00 +1.0725947676629346e-02 -1.0343477029803132e+00 -5.8846539162271352e-02
-7.9040326697294496e+00 +9.1043997355235007e+00 +0.0000000000000000e+00 -7.9040317949983097e+00 +1.0726174861889617e-02 -1.0343479984524167e+00 -5.8847460515410885e-02
-8.0040837161817304e+00 +9.1043176908892995e+00 +0.0000000000000000e+00 -8.0040828078106898e+00 +1.0726406614596260e-02 -1.0343481638809759e+00 -5.8848378456331479e-02
-8.1041347626340006e+00 +9.1042346142468507e+00 +0.0000000000000000e+00 -8.1041338197714801e+00 +1.0726643190156541e-02 -1.0343482042145851e+00 -5.8849292285931061e-02
-8.2041858090862707e+00 +9.1041505055961398e+00 +0.0000000000000000e+00 -8.2041848308700196e+00 +1.0726884844492957e-02 -1.0343481244005681e+00 -5.8850201305036980e-02
-8.3042368555385409e+00 +9.1040653649371706e+00 +0.0000000000000000e+00 -8.3042358410956805e+00 +1.0727131834057792e-02 -1.0343479293849644e+00 -5.8851104814404163e-02
-8.4042879019908092e+00 +9.1039791922699393e+00 +0.0000000000000000e+00 -8.4042868504377992e+00 +1.0727384415847755e-02 -1.0343476241125147e+00 -5.8852002114713337e-02
-8.5043389484430794e+00 +9.1038919875980202e+00 +0.0000000000000000e+00 -8.5043378588857408e+00 +1.0727642847418496e-02 -1.0343472135266372e+00 -5.8852892506568721e-02
-8.6043899948953602e+00 +9.1038037509160592e+00 +0.0000000000000000e+00 -8.6043888664288701e+00 +1.0727907386899337e-02 -1.0343467025694422e+00 -5.8853775290497505e-02
-8.7044410413476303e+00 +9.1037144822276108e+00 +0.0000000000000000e+00 -8.7044398730565202e+00 +1.0728178293007680e-02 -1.0343460961816728e+00 -5.8854649766946064e-02
-8.8044920877999004e+00 +9.1036241815309200e+00 +0.0000000000000000e+00 -8.8044908787580596e+00 +1.0728455825063743e-02 -1.0343453993027241e+00 -5.8855515236279611e-02
-8.9045431342521706e+00 +9.1035328488259601e+00 +0.0000000000000000e+00 -8.9045418835228496e+00 +1.0728740243005073e-02 -1.0343446168706092e+00 -5.8856370998779557e-02
-9.0045941807044407e+00 +9.1034404841127508e+00 +0.0000000000000000e+00 -9.0045928873402303e+00 +1.0729031807401158e-02 -1.0343437538219484e+00 -5.8857216354641806e-02
-9.1046452271567109e+00 +9.1033470873930593e+00 +0.0000000000000000e+00 -9.1046438901995597e+00 +1.0729330779468029e-02 -1.0343428150919489e+00 -5.8858050603974747e-02
-9.2046962736089899e+00 +9.1032526586651095e+00 +0.0000000000000000e+00 -9.2046948920902096e+00 +1.0729637421082872e-02 -1.0343418056144018e+00 -5.8858873046797926e-02
-9.3047473200612600e+00 +9.1031571979306793e+00 +0.0000000000000000e+00 -9.3047458930015097e+00 +1.0729951994798589e-02 -1.0343407303216472e+00 -5.8859682983039410e-02
-9.4047983665135302e+00 +9.1030607051879997e+00 +0.0000000000000000e+00 -9.4047968929228301e+00 +1.0730274763858447e-02 -1.0343395941445779e+00 -5.8860479712534733e-02
-9.5048494129658003e+00 +9.1029631804370599e+00 +0.0000000000000000e+00 -9.5048478918435304e+00 +1.0730605992171773e-02 -1.0343384020125550e+00 -5.8861262535046248e-02
-9.6049004594180705e+00 +9.1028646236796291e+00 +0.0000000000000000e+00 -9.6048988897529508e+00 +1.0730945550648170e-02 -1.0343371583426091e+00 -5.8862030971402607e-02
-9.7049515058703406e+00 +9.1027650349139595e+00 +0.0000000000000000e+00 -9.7049498866404598e+00 +1.0731291947976692e-02 -1.0343358657828967e+00 -5.8862785307641434e-02
-9.8050025523226108e+00 +9.1026644141418007e+00 +0.0000000000000000e+00 -9.8050008824953991e+00 +1.0731643397450525e-02 -1.0343345265985036e+00 -5.8863525995257654e-02
-9.9050535987748898e+00 +9.1025627613596107e+00 +0.0000000000000000e+00 -9.9050518773071392e+00 +1.0731998111248104e-02 -1.0343331430535283e+00 -5.8864253485823005e-02
-1.0005104645227201e+01 +9.1024600765709298e+00 +0.0000000000000000e+00 -1.0005102871065001e+01 +1.0732354300400608e-02 -1.0343317174110496e+00 -5.8864968230987282e-02
-1.0105155691679400e+01 +9.1023563597757793e+00 +0.0000000000000000e+00 -1.0105153863758400e+01 +1.0732710174759746e-02 -1.0343302519331494e+00 -5.8865670682482121e-02
-1.0205206738131700e+01 +9.1022516109723703e+00 +0.0000000000000000e+00 -1.0205204855376600e+01 +1.0733063942965403e-02 -1.0343287488809074e+00 -5.8866361292123248e-02
-1.0305257784584001e+01 +9.1021458301607101e+00 +0.0000000000000000e+00 -1.0305255845909100e+01 +1.0733413812413255e-02 -1.0343272105143877e+00 -5.8867040511812692e-02
-1.0405308831036200e+01 +9.1020390173425607e+00 +0.0000000000000000e+00 -1.0405306835345099e+01 +1.0733757989222454e-02 -1.0343256390926410e+00 -5.8867708793541362e-02
-1.0505359877488500e+01 +9.1019311725161600e+00 +0.0000000000000000e+00 -1.0505357823674100e+01 +1.0734094678203295e-02 -1.0343240368737086e+00 -5.8868366589391978e-02
-1.0605410923940800e+01 +9.1018222956832808e+00 +0.0000000000000000e+00 -1.0605408810885301e+01 +1.0734422082824862e-02 -1.0343224061146084e+00 -5.8869014351541113e-02
-1.0705461970393101e+01 +9.1017123868421397e+00 +0.0000000000000000e+00 -1.0705459796968199e+01 +1.0734738405182721e-02 -1.0343207490713446e+00 -5.8869652532262236e-02
-1.0805513016845300e+01 +9.1016014459927401e+00 +0.0000000000000000e+00 -1.0805510781912000e+01 +1.0735041845966553e-02 -1.0343190679988958e+00 -5.8870281583927819e-02
-1.0905564063297600e+01 +9.1014894731368603e+00 +0.0000000000000000e+00 -1.0905561765706199e+01 +1.0735330604427796e-02 -1.0343173651512121e+00 -5.8870901959011838e-02
-1.1005615109749900e+01 +9.1013764682745109e+00 +0.0000000000000000e+00 -1.1005612748340100e+01 +1.0735602878347345e-02 -1.0343156427812172e+00 -5.8871514110092636e-02
-1.1105666156202100e+01 +9.1012624314038906e+00 +0.0000000000000000e+00 -1.1105663729803000e+01 +1.0735856864003248e-02 -1.0343139031408100e+00 -5.8872118489855560e-02
-1.1205717202654400e+01 +9.1011473625250208e+00 +0.0000000000000000e+00 -1.1205714710084401e+01 +1.0736090756138295e-02 -1.0343121484808497e+00 -5.8872715551094919e-02
-1.1305768249106700e+01 +9.1010312616396707e+00 +0.0000000000000000e+00 -1.1305765689173500e+01 +1.0736302747927673e-02 -1.0343103810511560e+00 -5.8873305746716668e-02
-1.1405819295559001e+01 +9.1009141287460693e+00 +0.0000000000000000e+00 -1.1405816667059700e+01 +1.0736491030946734e-02 -1.0343086031005173e+00 -5.8873889529741402e-02
-1.1505870342011200e+01 +9.1007959638459806e+00 +0.0000000000000000e+00 -1.1505867643732399e+01 +1.0736653795261520e-02 -1.0343068168769289e+00 -5.8874467353308979e-02
-1.1605921388463500e+01 +9.1006767669376405e+00 +0.0000000000000000e+00 -1.1605918619181001e+01 +1.0736789952332850e-02 -1.0343050261562836e+00 -5.8875039686955004e-02
-1.1705972434915800e+01 +9.1005565380228095e+00 +0.0000000000000000e+00 -1.1705969593394700e+01 +1.0736900840030768e-02 -1.0343032398497443e+00 -5.8875607055047977e-02
