# field on trajectory
# s[mm] rx[mm] ry[mm] rz[mm] bx[T] by[T] bz[T]
0.0000000000000000e+00 +9.1613000000000007e+00 +0.0000000000000000e+00 +0.0000000000000000e+00 +1.1599811326357956e-02 -1.0327101436527673e+00 -5.9266585169116988e-02
-1.0000000000000001e-01 +9.1612994840026865e+00 +0.0000000000000000e+00 -9.9999999998224981e-02 +1.1599814803840392e-02 -1.0327068374519486e+00 -5.9265648585616497e-02
-2.0000000000000001e-01 +9.1612979360129305e+00 +0.0000000000000000e+00 -1.9999999998579987e-01 +1.1599810623280936e-02 -1.0327036158321239e+00 -5.9264720680161052e-02
-3.0000000000000004e-01 +9.1612953560339534e+00 +0.0000000000000000e+00 -2.9999999995207466e-01 +1.1599799097261177e-02 -1.0327004835144922e+00 -5.9263801835819988e-02
-4.0000000000000002e-01 +9.1612917440688850e+00 +0.0000000000000000e+00 -3.9999999988639945e-01 +1.1599780538362137e-02 -1.0326974452200746e+00 -5.9262892435685312e-02
-5.0000000000000000e-01 +9.1612871001207612e+00 +0.0000000000000000e+00 -4.9999999977812443e-01 +1.1599755259168966e-02 -1.0326945056696666e+00 -5.9261992862863634e-02
-5.9999999999999998e-01 +9.1612814241925182e+00 +0.0000000000000000e+00 -5.9999999961659989e-01 +1.1599723572275665e-02 -1.0326916695837891e+00 -5.9261103500468190e-02
-6.9999999999999996e-01 +9.1612747162869912e+00 +0.0000000000000000e+00 -6.9999999939117619e-01 +1.1599685790289770e-02 -1.0326889416826368e+00 -5.9260224731610661e-02
-7.9999999999999993e-01 +9.1612669764069086e+00 +0.0000000000000000e+00 -7.9999999909120378e-01 +1.1599642225837084e-02 -1.0326863266860336e+00 -5.9259356939393278e-02
-8.9999999999999991e-01 +9.1612582045548816e+00 +0.0000000000000000e+00 -8.9999999870603309e-01 +1.1599593191566367e-02 -1.0326838293133795e+00 -5.9258500506900728e-02
-9.9999999999999989e-01 +9.1612484007334078e+00 +0.0000000000000000e+00 -9.9999999822501473e-01 +1.1599539000154037e-02 -1.0326814542836049e+00 -5.9257655817192070e-02
-1.0999999999999999e+00 +9.1612375649448605e+00 +0.0000000000000000e+00 -1.0999999976374994e+00 +1.1599479964308898e-02 -1.0326792063151198e+00 -5.9256823253292672e-02
-1.2000000000000000e+00 +9.1612256971914867e+00 +0.0000000000000000e+00 -1.1999999969328379e+00 +1.1599416396776823e-02 -1.0326770901257645e+00 -5.9256003198186323e-02
-1.3000000000000000e+00 +9.1612127974754021e+00 +0.0000000000000000e+00 -1.2999999961003808e+00 +1.1599348610345471e-02 -1.0326751104327629e+00 -5.9255196034807021e-02
-1.4000000000000001e+00 +9.1611988657985854e+00 +0.0000000000000000e+00 -1.3999999951294790e+00 +1.1599276917848999e-02 -1.0326732719526721e+00 -5.9254402146030963e-02
-1.5000000000000002e+00 +9.1611839021628771e+00 +0.0000000000000000e+00 -1.4999999940094833e+00 +1.1599201632172762e-02 -1.0326715794013313e+00 -5.9253621914668576e-02
-1.6000000000000003e+00 +9.1611679065699683e+00 +0.0000000000000000e+00 -1.5999999927297446e+00 +1.1599123051139254e-02 -1.0326700354366916e+00 -5.9252855640703816e-02
-1.7000000000000004e+00 +9.1611508790214042e+00 +0.0000000000000000e+00 -1.6999999912796138e+00 +1.1599041412136029e-02 -1.0326686344874276e+00 -5.9252103293067279e-02
-1.8000000000000005e+00 +9.1611328195185866e+00 +0.0000000000000000e+00 -1.7999999896484418e+00 +1.1598956937436849e-02 -1.0326673689243637e+00 -5.9251364757963020e-02
-1.9000000000000006e+00 +9.1611137280627837e+00 +0.0000000000000000e+00 -1.8999999878255796e+00 +1.1598869849311242e-02 -1.0326662311175856e+00 -5.9250639921639946e-02
-2.0000000000000004e+00 +9.1610936046551359e+00 +0.0000000000000000e+00 -1.9999999858003781e+00 +1.1598780370019914e-02 -1.0326652134364114e+00 -5.9249928670401485e-02
-2.1000000000000005e+00 +9.1610724492966611e+00 +0.0000000000000000e+00 -2.0999999835621885e+00 +1.1598688721810189e-02 -1.0326643082493634e+00 -5.9249230890615581e-02
-2.2000000000000006e+00 +9.1610502619882670e+00 +0.0000000000000000e+00 -2.1999999811003614e+00 +1.1598595126911422e-02 -1.0326635079241442e+00 -5.9248546468724336e-02
-2.3000000000000007e+00 +9.1610270427307583e+00 +0.0000000000000000e+00 -2.2999999784042480e+00 +1.1598499807530412e-02 -1.0326628048276036e+00 -5.9247875291253936e-02
-2.4000000000000008e+00 +9.1610027915248384e+00 +0.0000000000000000e+00 -2.3999999754631993e+00 +1.1598402985846858e-02 -1.0326621913257170e+00 -5.9247217244824360e-02
-2.5000000000000009e+00 +9.1609775083711256e+00 +0.0000000000000000e+00 -2.4999999722665662e+00 +1.1598304884008733e-02 -1.0326616597835534e+00 -5.9246572216159248e-02
-2.6000000000000010e+00 +9.1609511932701526e+00 +0.0000000000000000e+00 -2.5999999688036999e+00 +1.1598205724127756e-02 -1.0326612025652495e+00 -5.9245940092095738e-02
-2.7000000000000011e+00 +9.1609238462223814e+00 +0.0000000000000000e+00 -2.6999999650639510e+00 +1.1598105728274771e-02 -1.0326608120339835e+00 -5.9245320759594149e-02
-2.8000000000000012e+00 +9.1608954672282046e+00 +0.0000000000000000e+00 -2.7999999610366708e+00 +1.1598005118475203e-02 -1.0326604805519459e+00 -5.9244714105747977e-02
-2.9000000000000012e+00 +9.1608660562879578e+00 +0.0000000000000000e+00 -2.8999999567112100e+00 +1.1597904116704453e-02 -1.0326602004803116e+00 -5.9244120017793472e-02
-3.0000000000000013e+00 +9.1608356134019235e+00 +0.0000000000000000e+00 -2.9999999520769198e+00 +1.1597802944883327e-02 -1.0326599641792149e+00 -5.9243538383119666e-02
-3.1000000000000014e+00 +9.1608041385703434e+00 +0.0000000000000000e+00 -3.0999999471231510e+00 +1.1597701824873482e-02 -1.0326597640077193e+00 -5.9242969089278071e-02
-3.2000000000000015e+00 +9.1607716317934198e+00 +0.0000000000000000e+00 -3.1999999418392542e+00 +1.1597600978472778e-02 -1.0326595923237913e+00 -5.9242412023992448e-02
-3.3000000000000016e+00 +9.1607380930713305e+00 +0.0000000000000000e+00 -3.2999999362145811e+00 +1.1597500627410795e-02 -1.0326594414842731e+00 -5.9241867075168757e-02
-3.4000000000000017e+00 +9.1607035224042281e+00 +0.0000000000000000e+00 -3.3999999302384820e+00 +1.1597400993344168e-02 -1.0326593038448548e+00 -5.9241334130904842e-02
-3.5000000000000018e+00 +9.1606679197922567e+00 +0.0000000000000000e+00 -3.4999999239003081e+00 +1.1597302297852040e-02 -1.0326591717600468e+00 -5.9240813079500333e-02
-3.6000000000000019e+00 +9.1606312852355511e+00 +0.0000000000000000e+00 -3.5999999171894106e+00 +1.1597204668448859e-02 -1.0326590389182666e+00 -5.9240303783460860e-02
-3.7000000000000020e+00 +9.1605936187342483e+00 +0.0000000000000000e+00 -3.6999999100951402e+00 +1.1597107856663605e-02 -1.0326589043476282e+00 -5.9239806001416546e-02
-3.8000000000000020e+00 +9.1605549202884866e+00 +0.0000000000000000e+00 -3.7999999026068476e+00 +1.1597011520043622e-02 -1.0326587684114126e+00 -5.9239319466010777e-02
-3.9000000000000021e+00 +9.1605151898984065e+00 +0.0000000000000000e+00 -3.8999998947138841e+00 +1.1596915316147607e-02 -1.0326586314731256e+00 -5.9238843909882266e-02
-4.0000000000000018e+00 +9.1604744275641483e+00 +0.0000000000000000e+00 -3.9999998864056003e+00 +1.1596818902547729e-02 -1.0326584938965644e+00 -5.9238379065659645e-02
-4.1000000000000014e+00 +9.1604326332858541e+00 +0.0000000000000000e+00 -4.0999998776713475e+00 +1.1596721936831752e-02 -1.0326583560458849e+00 -5.9237924665955809e-02
-4.2000000000000011e+00 +9.1603898070636660e+00 +0.0000000000000000e+00 -4.1999998685004769e+00 +1.1596624076605158e-02 -1.0326582182856692e+00 -5.9237480443362467e-02
-4.3000000000000007e+00 +9.1603459488977279e+00 +0.0000000000000000e+00 -4.2999998588823392e+00 +1.1596524979493258e-02 -1.0326580809809931e+00 -5.9237046130444546e-02
-4.4000000000000004e+00 +9.1603010587881801e+00 +0.0000000000000000e+00 -4.3999998488062850e+00 +1.1596424303143340e-02 -1.0326579444974913e+00 -5.9236621459734642e-02
-4.5000000000000000e+00 +9.1602551367351630e+00 +0.0000000000000000e+00 -4.4999998382616662e+00 +1.1596321705226750e-02 -1.0326578092014280e+00 -5.9236206163727573e-02
-4.5999999999999996e+00 +9.1602081827388169e+00 +0.0000000000000000e+00 -4.5999998272378333e+00 +1.1596216843441061e-02 -1.0326576754597621e+00 -5.9235799974874742e-02
-4.6999999999999993e+00 +9.1601601967992821e+00 +0.0000000000000000e+00 -4.6999998157241372e+00 +1.1596109375512169e-02 -1.0326575436402134e+00 -5.9235402625578644e-02
-4.7999999999999989e+00 +9.1601111789166936e+00 +0.0000000000000000e+00 -4.7999998037099285e+00 +1.1595998959196399e-02 -1.0326574141113325e+00 -5.9235013848187273e-02
-4.8999999999999986e+00 +9.1600611290911864e+00 +0.0000000000000000e+00 -4.8999997911845590e+00 +1.1595885252282685e-02 -1.0326572872425663e+00 -5.9234633374988674e-02
-4.9999999999999982e+00 +9.1600100473228938e+00 +0.0000000000000000e+00 -4.9999997781373793e+00 +1.1595767912594639e-02 -1.0326571634043262e+00 -5.9234260938205337e-02
-5.0999999999999979e+00 +9.1599579336119437e+00 +0.0000000000000000e+00 -5.0999997645577402e+00 +1.1595646597992700e-02 -1.0326570429680539e+00 -5.9233896269988678e-02
-5.1999999999999975e+00 +9.1599047879584621e+00 +0.0000000000000000e+00 -5.1999997504349933e+00 +1.1595520966376262e-02 -1.0326569263062901e+00 -5.9233539102413517e-02
-5.2999999999999972e+00 +9.1598506103625716e+00 +0.0000000000000000e+00 -5.2999997357584894e+00 +1.1595390675685794e-02 -1.0326568137927425e+00 -5.9233189167472458e-02
-5.3999999999999968e+00 +9.1597954008243914e+00 +0.0000000000000000e+00 -5.3999997205175791e+00 +1.1595255383904967e-02 -1.0326567058023506e+00 -5.9232846197070456e-02
-5.4999999999999964e+00 +9.1597391593440332e+00 +0.0000000000000000e+00 -5.4999997047016134e+00 +1.1595114749062779e-02 -1.0326566027113560e+00 -5.9232509923019303e-02
-5.5999999999999961e+00 +9.1596818859216071e+00 +0.0000000000000000e+00 -5.5999996882999437e+00 +1.1594968590640051e-02 -1.0326565051552743e+00 -5.9232180162821696e-02
-5.6999999999999957e+00 +9.1596235805572164e+00 +0.0000000000000000e+00 -5.6999996713019208e+00 +1.1594817373766327e-02 -1.0326564148024984e+00 -5.9231857077041462e-02
-5.7999999999999954e+00 +9.1595642432509567e+00 +0.0000000000000000e+00 -5.7999996536968963e+00 +1.1594661724962454e-02 -1.0326563335802754e+00 -5.9231540911931890e-02
-5.8999999999999950e+00 +9.1595038740029153e+00 +0.0000000000000000e+00 -5.8999996354742201e+00 +1.1594502270726413e-02 -1.0326562634167844e+00 -5.9231231913639937e-02
-5.9999999999999947e+00 +9.1594424728131703e+00 +0.0000000000000000e+00 -5.9999996166232439e+00 +1.1594339637532246e-02 -1.0326562062411795e+00 -5.9230930328201203e-02
-6.0999999999999943e+00 +9.1593800396817837e+00 +0.0000000000000000e+00 -6.0999995971333192e+00 +1.1594174451828984e-02 -1.0326561639836302e+00 -5.9230636401534545e-02
-6.1999999999999940e+00 +9.1593165746088054e+00 +0.0000000000000000e+00 -6.1999995769937959e+00 +1.1594007340039564e-02 -1.0326561385753608e+00 -5.9230350379437101e-02
-6.2999999999999936e+00 +9.1592520775942656e+00 +0.0000000000000000e+00 -6.2999995561940256e+00 +1.1593838928559738e-02 -1.0326561319486929e+00 -5.9230072507579071e-02
-6.3999999999999932e+00 +9.1591865486381785e+00 +0.0000000000000000e+00 -6.3999995347233591e+00 +1.1593669843757006e-02 -1.0326561460370842e+00 -5.9229803031498551e-02
-6.4999999999999929e+00 +9.1591199877405369e+00 +0.0000000000000000e+00 -6.4999995125711472e+00 +1.1593500711969537e-02 -1.0326561827751697e+00 -5.9229542196596388e-02
-6.5999999999999925e+00 +9.1590523949013125e+00 +0.0000000000000000e+00 -6.5999994897267413e+00 +1.1593332159505077e-02 -1.0326562440988043e+00 -5.9229290248131033e-02
-6.6999999999999922e+00 +9.1589837701204484e+00 +0.0000000000000000e+00 -6.6999994661794924e+00 +1.1593164812639870e-02 -1.0326563319451001e+00 -5.9229047431213336e-02
-6.7999999999999918e+00 +9.1589141133978664e+00 +0.0000000000000000e+00 -6.7999994419187511e+00 +1.1592999297617586e-02 -1.0326564482524705e+00 -5.9228813990801453e-02
-6.8999999999999915e+00 +9.1588434247334565e+00 +0.0000000000000000e+00 -6.8999994169338681e+00 +1.1592836240648221e-02 -1.0326565949606679e+00 -5.9228590171695697e-02
-6.9999999999999911e+00 +9.1587717041270782e+00 +0.0000000000000000e+00 -6.9999993912141942e+00 +1.1592676267907016e-02 -1.0326567740108257e+00 -5.9228376218533239e-02
-7.0999999999999908e+00 +9.1586989515785611e+00 +0.0000000000000000e+00 -7.0999993647490802e+00 +1.1592520005533390e-02 -1.0326569873455003e+00 -5.9228172375783185e-02
-7.1999999999999904e+00 +9.1586251670877008e+00 +0.0000000000000000e+00 -7.1999993375278777e+00 +1.1592368079629821e-02 -1.0326572369087077e+00 -5.9227978887741214e-02
-7.2999999999999901e+00 +9.1585503506542540e+00 +0.0000000000000000e+00 -7.2999993095399365e+00 +1.1592221116260799e-02 -1.0326575246459693e+00 -5.9227795998524554e-02
-7.3999999999999897e+00 +9.1584745022779419e+00 +0.0000000000000000e+00 -7.3999992807746073e+00 +1.1592079741451699e-02 -1.0326578525043479e+00 -5.9227623952066710e-02
-7.4999999999999893e+00 +9.1583976219584446e+00 +0.0000000000000000e+00 -7.4999992512212419e+00 +1.1591944581187714e-02 -1.0326582224324923e+00 -5.9227462992112435e-02
-7.5999999999999890e+00 +9.1583197096953999e+00 +0.0000000000000000e+00 -7.5999992208691900e+00 +1.1591816036402750e-02 -1.0326586354610710e+00 -5.9227313390683912e-02
-7.6999999999999886e+00 +9.1582407654884044e+00 +0.0000000000000000e+00 -7.6999991897078024e+00 +1.1591693607964240e-02 -1.0326590889440883e+00 -5.9227175533561799e-02
-7.7999999999999883e+00 +9.1581607893370123e+00 +0.0000000000000000e+00 -7.7999991577264298e+00 +1.1591576571777142e-02 -1.0326595793180648e+00 -5.9227049834988679e-02
-7.8999999999999879e+00 +9.1580797812407440e+00 +0.0000000000000000e+00 -7.8999991249144221e+00 +1.1591464203815448e-02 -1.0326601030217788e+00 -5.9226936709214993e-02
-7.9999999999999876e+00 +9.1579977411990843e+00 +0.0000000000000000e+00 -7.9999990912611310e+00 +1.1591355780124647e-02 -1.0326606564963208e+00 -5.9226836570500520e-02
-8.0999999999999872e+00 +9.1579146692114879e+00 +0.0000000000000000e+00 -8.0999990567559053e+00 +1.1591250576824232e-02 -1.0326612361851526e+00 -5.9226749833116037e-02
-8.1999999999999869e+00 +9.1578305652773864e+00 +0.0000000000000000e+00 -8.1999990213880967e+00 +1.1591147870110169e-02 -1.0326618385341637e+00 -5.9226676911344936e-02
-8.2999999999999865e+00 +9.1577454293961864e+00 +0.0000000000000000e+00 -8.2999989851470541e+00 +1.1591046936257383e-02 -1.0326624599917245e+00 -5.9226618219484620e-02
-8.3999999999999861e+00 +9.1576592615672769e+00 +0.0000000000000000e+00 -8.3999989480221302e+00 +1.1590947051622263e-02 -1.0326630970087469e+00 -5.9226574171848213e-02
-8.4999999999999858e+00 +9.1575720617900309e+00 +0.0000000000000000e+00 -8.4999989100026738e+00 +1.1590847492645143e-02 -1.0326637460387391e+00 -5.9226545182766065e-02
-8.5999999999999854e+00 +9.1574838300638088e+00 +0.0000000000000000e+00 -8.5999988710780357e+00 +1.1590747535852809e-02 -1.0326644035378625e+00 -5.9226531666587375e-02
-8.6999999999999851e+00 +9.1573945663879623e+00 +0.0000000000000000e+00 -8.6999988312375649e+00 +1.1590646457860948e-02 -1.0326650659649872e+00 -5.9226534037681626e-02
-8.7999999999999847e+00 +9.1573042707618413e+00 +0.0000000000000000e+00 -8.7999987904706121e+00 +1.1590543535376698e-02 -1.0326657297817488e+00 -5.9226552710440222e-02
-8.8999999999999844e+00 +9.1572129431847902e+00 +0.0000000000000000e+00 -8.8999987487665280e+00 +1.1590438045201127e-02 -1.0326663914526077e+00 -5.9226588099278062e-02
-8.9999999999999840e+00 +9.1571205836561589e+00 +0.0000000000000000e+00 -8.9999987061146633e+00 +1.1590329264231708e-02 -1.0326670474449011e+00 -5.9226640618634925e-02
-9.0999999999999837e+00 +9.1570271921753026e+00 +0.0000000000000000e+00 -9.0999986625043672e+00 +1.1590216469464842e-02 -1.0326676942289033e+00 -5.9226710682977204e-02
-9.1999999999999833e+00 +9.1569327687415853e+00 +0.0000000000000000e+00 -9.1999986179249884e+00 +1.1590098937998353e-02 -1.0326683282778792e+00 -5.9226798706799255e-02
-9.2999999999999829e+00 +9.1568373133543819e+00 +0.0000000000000000e+00 -9.2999985723658796e+00 +1.1589975947033992e-02 -1.0326689460681444e+00 -5.9226905104625069e-02
-9.3999999999999826e+00 +9.1567408260130865e+00 +0.0000000000000000e+00 -9.3999985258163896e+00 +1.1589846773879926e-02 -1.0326695440791167e+00 -5.9227030291009626e-02
-9.4999999999999822e+00 +9.1566433067171129e+00 +0.0000000000000000e+00 -9.4999984782658693e+00 +1.1589710695953276e-02 -1.0326701187933780e+00 -5.9227174680540617e-02
-9.5999999999999819e+00 +9.1565447554658963e+00 +0.0000000000000000e+00 -9.5999984297036676e+00 +1.1589567299900830e-02 -1.0326706670818413e+00 -5.9227338551415140e-02
-9.6999999999999815e+00 +9.1564451722589002e+00 +0.0000000000000000e+00 -9.6999983801191352e+00 +1.1589417408947611e-02 -1.0326711873570296e+00 -5.9227521636125997e-02
-9.7999999999999812e+00 +9.1563445570956148e+00 +0.0000000000000000e+00 -9.7999983295016229e+00 +1.1589262155400100e-02 -1.0326716784138408e+00 -5.9227723530720491e-02
-9.8999999999999808e+00 +9.1562429099755605e+00 +0.0000000000000000e+00 -9.8999982778404814e+00 +1.1589102671481142e-02 -1.0326721390437443e+00 -5.9227943831233969e-02
-9.9999999999999805e+00 +9.1561402308982878e+00 +0.0000000000000000e+00 -9.9999982251250596e+00 +1.1588940089327298e-02 -1.0326725680346680e+00 -5.9228182133690181e-02
-1.0099999999999980e+01 +9.1560365198633793e+00 +0.0000000000000000e+00 -1.0099998171344708e+01 +1.1588775540986248e-02 -1.0326729641708847e+00 -5.9228438034101799e-02
-1.0199999999999980e+01 +9.1559317768704496e+00 +0.0000000000000000e+00 -1.0199998116488777e+01 +1.1588610158414123e-02 -1.0326733262328960e+00 -5.9228711128470730e-02
-1.0299999999999979e+01 +9.1558260019191486e+00 +0.0000000000000000e+00 -1.0299998060546615e+01 +1.1588445073472913e-02 -1.0326736529973224e+00 -5.9229001012788690e-02
-1.0399999999999979e+01 +9.1557191950091621e+00 +0.0000000000000000e+00 -1.0399998003507575e+01 +1.1588281417927809e-02 -1.0326739432367871e+00 -5.9229307283037519e-02
-1.0499999999999979e+01 +9.1556113561402110e+00 +0.0000000000000000e+00 -1.0499997945361006e+01 +1.1588120323444560e-02 -1.0326741957198016e+00 -5.9229629535189794e-02
-1.0599999999999978e+01 +9.1555024853120539e+00 +0.0000000000000000e+00 -1.0599997886096258e+01 +1.1587962921586861e-02 -1.0326744092106543e+00 -5.9229967365209135e-02
-1.0699999999999978e+01 +9.1553925825244900e+00 +0.0000000000000000e+00 -1.0699997825702683e+01 +1.1587810343813685e-02 -1.0326745824692953e+00 -5.9230320369050724e-02
-1.0799999999999978e+01 +9.1552816477773558e+00 +0.0000000000000000e+00 -1.0799997764169630e+01 +1.1587663721476642e-02 -1.0326747142512238e+00 -5.9230688142661886e-02
-1.0899999999999977e+01 +9.1551696810705341e+00 +0.0000000000000000e+00 -1.0899997701486450e+01 +1.1587524185817329e-02 -1.0326748033073712e+00 -5.9231070281982420e-02
-1.0999999999999977e+01 +9.1550566824039468e+00 +0.0000000000000000e+00 -1.0999997637642492e+01 +1.1587392867964690e-02 -1.0326748483839927e+00 -5.9231466382945158e-02
-1.1099999999999977e+01 +9.1549426517775618e+00 +0.0000000000000000e+00 -1.1099997572627109e+01 +1.1587270898932354e-02 -1.0326748482225494e+00 -5.9231876041476540e-02
-1.1199999999999976e+01 +9.1548275891913899e+00 +0.0000000000000000e+00 -1.1199997506429650e+01 +1.1587159409615952e-02 -1.0326748015595959e+00 -5.9232298853496929e-02
-1.1299999999999976e+01 +9.1547114946454915e+00 +0.0000000000000000e+00 -1.1299997439039466e+01 +1.1587059530790511e-02 -1.0326747071266662e+00 -5.9232734414921336e-02
-1.1399999999999975e+01 +9.1545943681399731e+00 +0.0000000000000000e+00 -1.1399997370445906e+01 +1.1586972393107733e-02 -1.0326745636501629e+00 -5.9233182321659826e-02
-1.1499999999999975e+01 +9.1544762096749910e+00 +0.0000000000000000e+00 -1.1499997300638324e+01 +1.1586899127093358e-02 -1.0326743698512375e+00 -5.9233642169618073e-02
-1.1599999999999975e+01 +9.1543570192507513e+00 +0.0000000000000000e+00 -1.1599997229606068e+01 +1.1586840420161662e-02 -1.0326741258034855e+00 -5.9234113444031233e-02
-1.1699999999999974e+01 +9.1542367968675098e+00 +0.0000000000000000e+00 -1.1699997157338490e+01 +1.1586795187563705e-02 -1.0326738370101090e+00 -5.9234595187522734e-02
