# multipoles
# s[mm] polynom_b[n=0][T/m^n] polynom_b[n=1][T/m^n] polynom_b[n=2][T/m^n] polynom_b[n=3][T/m^n] polynom_b[n=4][T/m^n] polynom_b[n=5][T/m^n] polynom_b[n=6][T/m^n] 
-0.0000000000000000e+00 -1.0322884627131388e+00 +2.2804619869520510e+00 +1.7348010660535703e+01 -1.6558826610455807e+02 +9.6999264089620629e+04 +1.8439726277250347e+06 -5.5424670012923586e+08 
-1.0005104645227200e-01 -1.0322870852799668e+00 +2.2803772719062052e+00 +1.7316973729321212e+01 -1.6460736514618264e+02 +9.7739451536487017e+04 +1.8401490701234955e+06 -5.5867037810495734e+08 
-2.0010209290454301e-01 -1.0322856675165732e+00 +2.2802869602214888e+00 +1.7284986610668511e+01 -1.6334186434042869e+02 +9.8474729939144250e+04 +1.8342608443098173e+06 -5.6299437220268142e+08 
-3.0015313935681498e-01 -1.0322842107384307e+00 +2.2801903603843772e+00 +1.7252247422884132e+01 -1.6177437349878451e+02 +9.9200982554388858e+04 +1.8262252004621623e+06 -5.6719681992896581e+08 
-4.0020418580908601e-01 -1.0322827162608801e+00 +2.2800867809527050e+00 +1.7218954261213785e+01 -1.5988750470457609e+02 +9.9914093117732540e+04 +1.8159594026163809e+06 -5.7125586113948274e+08 
-5.0025523226135804e-01 -1.0322811853991551e+00 +2.2799755305448812e+00 +1.7185305202587124e+01 -1.5766387197170118e+02 +1.0060994575234932e+05 +1.8033807264605162e+06 -5.7514963761093569e+08 
-6.0030627871362996e-01 -1.0322796194682877e+00 +2.2798559178532329e+00 +1.7151498294799818e+01 -1.5508609159280630e+02 +1.0128442517854624e+05 +1.7884064611155866e+06 -5.7885629405208838e+08 
-7.0035732516590099e-01 -1.0322780197831947e+00 +2.2797272516284384e+00 +1.7117731565600405e+01 -1.5213678167752170e+02 +1.0193341653109479e+05 +1.7709539062435147e+06 -5.8235397720963204e+08 
-8.0040837161817302e-01 -1.0322763876586127e+00 +2.2795888406856859e+00 +1.7084203014585679e+01 -1.4879856229394952e+02 +1.0255280551734743e+05 +1.7509403725965107e+06 -5.8562083663874364e+08 
-9.0045941807044405e-01 -1.0322747244090846e+00 +2.2794399938944396e+00 +1.7051110613533684e+01 -1.4505405513600297e+02 +1.0313847840994755e+05 +1.7282831798728080e+06 -5.8863502467113483e+08 
-1.0005104645227201e+00 -1.0322730313489319e+00 +2.2792800201866759e+00 +1.7018652301578676e+01 -1.4088588373930949e+02 +1.0368632213409447e+05 +1.7028996577203379e+06 -5.9137469681844079e+08 
-1.1005615109749900e+00 -1.0322713097922946e+00 +2.2791082285477158e+00 +1.6987025991565393e+01 -1.3627667320351193e+02 +1.0419222414401690e+05 +1.6747071439457715e+06 -5.9381801118575442e+08 
-1.2006125574272599e+00 -1.0322695610531232e+00 +2.2789239280145099e+00 +1.6956429566483344e+01 -1.3120905008041296e+02 +1.0465207249339062e+05 +1.6436229835165069e+06 -5.9594312881665385e+08 
-1.3006636038795301e+00 -1.0322677864450942e+00 +2.2787264276769164e+00 +1.6927060872853282e+01 -1.2566564241834108e+02 +1.0506175595587226e+05 +1.6095645287217458e+06 -5.9772821425586474e+08 
-1.4007146503318000e+00 -1.0322659872816613e+00 +2.2785150366705476e+00 +1.6899117723560913e+01 -1.1962907949642073e+02 +1.0541716397120120e+05 +1.5724491372605779e+06 -5.9915143530062604e+08 
-1.5007656967840699e+00 -1.0322641648760025e+00 +2.2782890641778044e+00 +1.6872797894684652e+01 -1.1308199183588867e+02 +1.0571418670413150e+05 +1.5321941721243428e+06 -6.0019096328086102e+08 
-1.6008167432363500e+00 -1.0322623203901606e+00 +2.2780481660044010e+00 +1.6848274577483370e+01 -1.0601788904608436e+02 +1.0594957847125853e+05 +1.4887790654481447e+06 -6.0083048378733039e+08 
-1.7008677896886200e+00 -1.0322604544638092e+00 +2.2777933767693885e+00 +1.6825628230922785e+01 -9.8473981550033386e+01 +1.0612347504938017e+05 +1.4424341973946083e+06 -6.0107541054745936e+08 
-1.8009188361408901e+00 -1.0322585676257396e+00 +2.2775260739605971e+00 +1.6804917453187020e+01 -9.0498451855727026e+01 +1.0623684059486740e+05 +1.3934533410245155e+06 -6.0093651784068799e+08 
-1.9009698825931600e+00 -1.0322566604047247e+00 +2.2772476350676221e+00 +1.6786200839743561e+01 -8.2139482546985050e+01 +1.0629063934170907e+05 +1.3421302691178333e+06 -6.0042458046071720e+08 
-2.0010209290454299e+00 -1.0322547333295882e+00 +2.2769594375640629e+00 +1.6769536991716901e+01 -7.3445255794500341e+01 +1.0628583545255852e+05 +1.2887587514234385e+06 -5.9955037304074419e+08 
-2.1010719754977001e+00 -1.0322527869292353e+00 +2.2766628589070428e+00 +1.6754984520006484e+01 -6.4463953330323932e+01 +1.0622339292577795e+05 +1.2336325544829408e+06 -5.9832466958463287e+08 
-2.2011230219499698e+00 -1.0322508217326001e+00 +2.2763592765260823e+00 +1.6742602040249690e+01 -5.5243756138760453e+01 +1.0610427570412459e+05 +1.1770454399346185e+06 -5.9675824402512324e+08 
-2.3011740684022501e+00 -1.0322488382687673e+00 +2.2760500678204250e+00 +1.6732448187540090e+01 -4.5832844373669204e+01 +1.0592944739255383e+05 +1.1192911640146796e+06 -5.9486186888749921e+08 
-2.4012251148545198e+00 -1.0322468370669957e+00 +2.2757366101478169e+00 +1.6724581620303326e+01 -3.6279397059160452e+01 +1.0569987117290041e+05 +1.0606634759145880e+06 -5.9264631486042738e+08 
-2.5012761613067900e+00 -1.0322448186566733e+00 +2.2754202808207187e+00 +1.6719061013722108e+01 -2.6631591958869912e+01 +1.0541650994501426e+05 +1.0014561169836897e+06 -5.9012235152014744e+08 
-2.6013272077590601e+00 -1.0322427835674033e+00 +2.2751024570932366e+00 +1.6715945074013902e+01 -1.6937605206654869e+01 +1.0508032604567098e+05 +9.4196281866248779e+05 -5.8730074597854614e+08 
-2.7013782542113298e+00 -1.0322407323289924e+00 +2.2747845161590821e+00 +1.6715292534183373e+01 -7.2456112677629632e+00 +1.0469228132906898e+05 +8.8247730229463906e+05 -5.8419226327328360e+08 
-2.8014293006636000e+00 -1.0322386654715292e+00 +2.2744678351432976e+00 +1.6717162165795749e+01 +2.3962173139557126e+00 +1.0425333694748332e+05 +8.2329327767708001e+05 -5.8080766534696555e+08 
-2.9014803471158799e+00 -1.0322365835253651e+00 +2.2741537910929672e+00 +1.6721612777123777e+01 +1.1939710171305311e+01 +1.0376445338158989e+05 +7.6470444162165304e+05 -5.7715771118780792e+08 
-3.0015313935681500e+00 -1.0322344870211624e+00 +2.2738437609673103e+00 +1.6728703219057206e+01 +2.1336699411121902e+01 +1.0322659033221113e+05 +7.0700447622904519e+05 -5.7325315633539736e+08 
-3.1015824400204202e+00 -1.0322323764898975e+00 +2.2735391216432332e+00 +1.6738492386930030e+01 +3.0539019420967598e+01 +1.0264070668173226e+05 +6.5048705013391108e+05 -5.6910475269540143e+08 
-3.2016334864726899e+00 -1.0322302524629277e+00 +2.2732412498907193e+00 +1.6751039227558778e+01 +3.9498507612493462e+01 +1.0200776036010105e+05 +5.9544581409983383e+05 -5.6472324791144741e+08 
-3.3016845329249600e+00 -1.0322281154720059e+00 +2.2729515223756258e+00 +1.6766402742174872e+01 +4.8167004306100615e+01 +1.0132870829586369e+05 +5.4217440182912117e+05 -5.6011938516138351e+08 
-3.4017355793772301e+00 -1.0322259660492643e+00 +2.2726713156504146e+00 +1.6784641987257267e+01 +5.6496353016857341e+01 +1.0060450638947346e+05 +4.9096642828590819e+05 -5.5530390300947642e+08 
-3.5017866258295101e+00 -1.0322238047272900e+00 +2.2724020061469710e+00 +1.6805816079761151e+01 +6.4438400577873281e+01 +9.9836109416435153e+04 +4.4211548873297946e+05 -5.5028753499618566e+08 
-3.6018376722817802e+00 -1.0322216317685895e+00 +2.2721447079423922e+00 +1.6829907367461200e+01 +7.1956783666366036e+01 +9.9025169520759038e+04 +3.9584188887100294e+05 -5.4508257530743968e+08 
-3.7018887187340499e+00 -1.0322194461562397e+00 +2.2718995460924156e+00 +1.6856581623645187e+01 +7.9062036301577251e+01 +9.8176220892504498e+04 +3.5207425212490157e+05 -5.3970778311829925e+08 
-3.8019397651863200e+00 -1.0322172465058059e+00 +2.2716664123365660e+00 +1.6885423006510635e+01 +8.5776371623449947e+01 +9.7294542192820983e+04 +3.1066852454362315e+05 -5.3418359692162043e+08 
-3.9019908116385902e+00 -1.0322150314329697e+00 +2.2714451985054769e+00 +1.6916015678505950e+01 +9.2122000750735566e+01 +9.6385411956123746e+04 +2.7148066236389248e+05 -5.2853045430005497e+08 
-4.0020418580908599e+00 -1.0322127995534653e+00 +2.2712357965276242e+00 +1.6947943801111471e+01 +9.8121132626191653e+01 +9.5454108676704287e+04 +2.3436663280725529e+05 -5.2276879227308446e+08 
-4.1020929045431300e+00 -1.0322105494831229e+00 +2.2710380984353691e+00 +1.6980791538289619e+01 +1.0379597389372046e+02 +9.4505910740801322e+04 +1.9918241469147569e+05 -5.1691904695090830e+08 
-4.2021439509954099e+00 -1.0322082798378549e+00 +2.2708519963710923e+00 +1.7014143053347954e+01 +1.0916872875348568e+02 +9.3546096480591281e+04 +1.6578399921147592e+05 -5.1100165375803810e+08 
-4.3021949974476801e+00 -1.0322059892336766e+00 +2.2706773826015896e+00 +1.7047582511541286e+01 +1.1426159858443012e+02 +9.2579944120624990e+04 +1.3402739209039265e+05 -5.0503704714512622e+08 
-4.4022460438999502e+00 -1.0322036762866369e+00 +2.2705141495133092e+00 +1.7080694071139046e+01 +1.1909678213673681e+02 +9.1612731940574129e+04 +1.0376861235388184e+05 -4.9904566132805997e+08 
-4.5022970903522204e+00 -1.0322013396129188e+00 +2.2703621896373378e+00 +1.7113061896949787e+01 +1.2369647484477795e+02 +9.0649738014143470e+04 +7.4863696292615714e+04 -4.9304792901353472e+08 
-4.6023481368044896e+00 -1.0321989778287339e+00 +2.2702213956385173e+00 +1.7144270141783853e+01 +1.2808286918019189e+02 +8.9696240557667043e+04 +4.7168695298984763e+04 -4.8706428303179044e+08 
-4.7023991832567598e+00 -1.0321965895503944e+00 +2.2700916603403463e+00 +1.7173902960646302e+01 +1.3227815397570365e+02 +8.8757517654114112e+04 +2.0539679782150619e+04 -4.8111515498411363e+08 
-4.8024502297090397e+00 -1.0321941733942617e+00 +2.2699728767159653e+00 +1.7201544498949190e+01 +1.3630451472942556e+02 +8.7838847473889415e+04 -5.1672627111357006e+03 -4.7522097626715225e+08 
-4.9025012761613098e+00 -1.0321917279768187e+00 +2.2698649379110614e+00 +1.7226778903700318e+01 +1.4018413297688707e+02 +8.6945508052179837e+04 -3.0096023885460054e+04 -4.6940217696691316e+08 
-5.0025523226135800e+00 -1.0321892519145577e+00 +2.2697677372405205e+00 +1.7249190309391192e+01 +1.4393918645355714e+02 +8.6082777556251865e+04 -5.4390475757024898e+04 -4.6367918710943937e+08 
-5.1026033690658501e+00 -1.0321867438240648e+00 +2.2696811681997211e+00 +1.7268362845369925e+01 +1.4759184877840249e+02 +8.5255934141247722e+04 -7.8194468826050812e+04 -4.5807243594499582e+08 
-5.2026544155181202e+00 -1.0321842023220065e+00 +2.2696051244759241e+00 +1.7283880635857336e+01 +1.5116428919219180e+02 +8.4470255941192605e+04 -1.0165183067400937e+05 -4.5260235186053288e+08 
-5.3027054619703904e+00 -1.0321816260251140e+00 +2.2695394999478053e+00 +1.7295327795249609e+01 +1.5467867258442729e+02 +8.3731021156614777e+04 -1.2490636612707832e+05 -4.4728936277672839e+08 
-5.4027565084226703e+00 -1.0321790135501083e+00 +2.2694841886999688e+00 +1.7302288421235623e+01 +1.5815715915075575e+02 +8.3043508179403667e+04 -1.4810185540134457e+05 -4.4215389670316708e+08 
-5.5028075548749404e+00 -1.0321763635139194e+00 +2.2694390850353079e+00 +1.7304346619701672e+01 +1.6162190424586967e+02 +8.2412995129056158e+04 -1.7138205295167374e+05 -4.3721637948324960e+08 
-5.6028586013272097e+00 -1.0321736754212372e+00 +2.2694039708700280e+00 +1.7301229499634925e+01 +1.6509226311402443e+02 +8.1842808446246723e+04 -1.9486844216575701e+05 -4.3248958334118217e+08 
-5.7029096477794798e+00 -1.0321709523588176e+00 +2.2693781391307337e+00 +1.7293242797369434e+01 +1.6857603568814767e+02 +8.1328370670768345e+04 -2.1859311792316721e+05 -4.2795507730611241e+08 
-5.8029606942317500e+00 -1.0321681983205002e+00 +2.2693607508752227e+00 +1.7280839209942449e+01 +1.7207806370110376e+02 +8.0863094410988590e+04 -2.4256595579552327e+05 -4.2358642946651489e+08 
-5.9030117406840201e+00 -1.0321654172999193e+00 +2.2693509670317593e+00 +1.7264471423456087e+01 +1.7560319270258191e+02 +8.0440392417449082e+04 -2.6679685415069276e+05 -4.1935720838497216e+08 
-6.0030627871363000e+00 -1.0321626132906632e+00 +2.2693479483972427e+00 +1.7244592134531587e+01 +1.7915627205200883e+02 +8.0053677162168795e+04 -2.9129573352115951e+05 -4.1524098110756654e+08 
-6.1031138335885702e+00 -1.0321597902860935e+00 +2.2693508556224815e+00 +1.7221654028403147e+01 +1.8274215533821194e+02 +7.9696361266829437e+04 -3.1607253902949265e+05 -4.1121131523875690e+08 
-6.2031648800408403e+00 -1.0321569522794880e+00 +2.2693588492130834e+00 +1.7196109798721341e+01 +1.8636570032396421e+02 +7.9361857111360601e+04 -3.4113723996371514e+05 -4.0724177704451698e+08 
-6.3032159264931096e+00 -1.0321541032638821e+00 +2.2693710895125117e+00 +1.7168412126988073e+01 +1.9003176943650556e+02 +7.9043577235579374e+04 -3.6649983263653406e+05 -4.0330593339625114e+08 
-6.4032669729453797e+00 -1.0321512472322174e+00 +2.2693867366961351e+00 +1.7139013703933347e+01 +1.9374522990382300e+02 +7.8734933921909920e+04 -3.9217034105738893e+05 -3.9937734976237839e+08 
-6.5033180193976499e+00 -1.0321483881772080e+00 +2.2694049507751100e+00 +1.7108367210662841e+01 +1.9751095362572983e+02 +7.8429339558586507e+04 -4.1815881616536301e+05 -3.9542959195608872e+08 
-6.6033690658499298e+00 -1.0321455300913898e+00 +2.2694248915725441e+00 +1.7076925330246297e+01 +2.0133381786724325e+02 +7.8120206410048064e+04 -4.4447533981643792e+05 -3.9143622501931912e+08 
-6.7034201123021999e+00 -1.0321426769670823e+00 +2.2694457187218275e+00 +1.7045140739522065e+01 +2.0521870526132915e+02 +7.7800946784764586e+04 -4.7113002470361476e+05 -3.8737081406586289e+08 
-6.8034711587544701e+00 -1.0321398327964129e+00 +2.2694665916673107e+00 +1.7013466114441556e+01 +2.0917050377801309e+02 +7.7464972912965721e+04 -4.9813301414785819e+05 -3.8320692364191085e+08 
-6.9035222052067402e+00 -1.0321370015712874e+00 +2.2694866696419580e+00 +1.6982354129194114e+01 +2.1319410738407854e+02 +7.7105696980301742e+04 -5.2549448591868253e+05 -3.7891811794400030e+08 
-7.0035732516590103e+00 -1.0321341872833658e+00 +2.2695051116692708e+00 +1.6952257451100365e+01 +2.1729441592312028e+02 +7.6716531211045003e+04 -5.5322465140261315e+05 -3.7447796117876059e+08 
-7.1036242981112796e+00 -1.0321313939240946e+00 +2.2695210765560878e+00 +1.6923628747607562e+01 +2.2147633533722006e+02 +7.6290887736173652e+04 -5.8133375689244037e+05 -3.6986001694480592e+08 
-7.2036753445635497e+00 -1.0321286254846456e+00 +2.2695337228787049e+00 +1.6896920678964079e+01 +2.2574477803468858e+02 +7.5822178735801717e+04 -6.0983208563214925e+05 -3.6503784892572898e+08 
-7.3037263910158297e+00 -1.0321258859559288e+00 +2.2695422089761457e+00 +1.6872585899283553e+01 +2.3010466308647028e+02 +7.5303816413449938e+04 -6.3872995897795749e+05 -3.5998502075766116e+08 
-7.4037774374680998e+00 -1.0321231793286409e+00 +2.2695456929543840e+00 +1.6851077067365246e+01 +2.3456091605850716e+02 +7.4729212783297451e+04 -6.6803773525058862e+05 -3.5467509500206566e+08 
-7.5038284839203699e+00 -1.0321205095930568e+00 +2.2695433326430656e+00 +1.6832846813912063e+01 +2.3911846954983059e+02 +7.4091780241247689e+04 -6.9776581083928363e+05 -3.4908163565005058e+08 
-7.6038795303726401e+00 -1.0321178801155171e+00 +2.2695343747322179e+00 +1.6818256563631945e+01 +2.4378153796625790e+02 +7.3386295727357385e+04 -7.2792187012903404e+05 -3.4318368291861689e+08 
-7.7039305768249102e+00 -1.0321152919586032e+00 +2.2695184544539884e+00 +1.6807323024204933e+01 +2.4855199130628975e+02 +7.2612687089692918e+04 -7.5850800753498962e+05 -3.3698110668476355e+08 
-7.8039816232771804e+00 -1.0321127456457486e+00 +2.2694953110765272e+00 +1.6799980238390180e+01 +2.5343122367932131e+02 +7.1772115192689569e+04 -7.8952588321850635e+05 -3.3047880170694637e+08 
-7.9040326697294496e+00 -1.0321102417003576e+00 +2.2694646838588888e+00 +1.6796162262049855e+01 +2.5842062967936926e+02 +7.0865740491556629e+04 -8.2097716131921811e+05 -3.2368166021192116e+08 
-8.0040837161817304e+00 -1.0321077806458117e+00 +2.2694263120408054e+00 +1.6795803169256175e+01 +2.6352160471115428e+02 +6.9894722924217349e+04 -8.5286351224754471e+05 -3.1659457131853974e+08 
-8.1041347626340006e+00 -1.0321053630054888e+00 +2.2693799348498733e+00 +1.6798837052177660e+01 +2.6873554477930782e+02 +6.8860221912424124e+04 -8.8518661148903670e+05 -3.0922242103347009e+08 
-8.2041858090862707e+00 -1.0321029893027522e+00 +2.2693252914983062e+00 +1.6805198022666087e+01 +2.7406384659917944e+02 +6.7763396324899397e+04 -9.1794814031767088e+05 -3.0157009205655551e+08 
-8.3042368555385409e+00 -1.0321006600609857e+00 +2.2692621211876967e+00 +1.6814820215255761e+01 +2.7950790744361035e+02 +6.6605404421487561e+04 -9.5114978488270449e+05 -2.9364246351112276e+08 
-8.4042879019908092e+00 -1.0320983758034663e+00 +2.2691901631047235e+00 +1.6827637773197580e+01 +2.8506912526768878e+02 +6.5387404110791373e+04 -9.8479323696067929e+05 -2.8544441214789462e+08 
-8.5043389484430794e+00 -1.0320961370535637e+00 +2.2691091564224690e+00 +1.6843584873535470e+01 +2.9074889868083898e+02 +6.4110552472919371e+04 -1.0188801938359458e+06 -2.7698081006571686e+08 
-8.6043899948953602e+00 -1.0320939443345647e+00 +2.2690188403102636e+00 +1.6862595702638732e+01 +2.9654862665393887e+02 +6.2776006221475924e+04 -1.0534123566526033e+06 -2.6825652689979994e+08 
-8.7044410413476303e+00 -1.0320917981697704e+00 +2.2689189539146168e+00 +1.6884604474586784e+01 +3.0246970908176110e+02 +6.1384921342738264e+04 -1.0883914336595088e+06 -2.5927642806628340e+08 
-8.8044920877999004e+00 -1.0320896990824526e+00 +2.2688092363837149e+00 +1.6909545420295860e+01 +3.0851354605433869e+02 +5.9938453312536592e+04 -1.1238191360089087e+06 -2.5004537582210225e+08 
-8.9045431342521706e+00 -1.0320876475958978e+00 +2.2686894268489599e+00 +1.6937352797408789e+01 +3.1468153841717668e+02 +5.8437756891485806e+04 -1.1596971810814098e+06 -2.4056822823837584e+08 
-9.0045941807044407e+00 -1.0320856442333515e+00 +2.2685592644352783e+00 +1.6967960882248363e+01 +3.2097508745184587e+02 +5.6883986281514466e+04 -1.1960272905985420e+06 -2.3084983995271093e+08 
-9.1046452271567109e+00 -1.0320836895180550e+00 +2.2684184882572138e+00 +1.7001303975412068e+01 +3.2739559500917500e+02 +5.5278295014848001e+04 -1.2328111914768198e+06 -2.2089506162132663e+08 
-9.2046962736089899e+00 -1.0320817839732450e+00 +2.2682668374253665e+00 +1.7037316400913401e+01 +3.3394446330806016e+02 +5.3621835965854785e+04 -1.2700506146626857e+06 -2.1070873996265352e+08 
-9.3047473200612600e+00 -1.0320799281221085e+00 +2.2681040510369481e+00 +1.7075932503248197e+01 +3.4062309520753024e+02 +5.1915761401735435e+04 -1.3077472966969975e+06 -2.0029571797863090e+08 
-9.4047983665135302e+00 -1.0320781224878852e+00 +2.2679298681868905e+00 +1.7117086657773658e+01 +3.4743289390567702e+02 +5.0161222785923965e+04 -1.3459029780918334e+06 -1.8966083401685834e+08 
-9.5048494129658003e+00 -1.0320763675937907e+00 +2.2677440279668186e+00 +1.7160713271784527e+01 +3.5437526590167965e+02 +4.8359371110824657e+04 -1.3845194185129183e+06 -1.7880892375280353e+08 
-9.6049004594180705e+00 -1.0320746638552318e+00 +2.2675463401076934e+00 +1.7206753867301192e+01 +3.6145245956253035e+02 +4.6511430060369479e+04 -1.4236052709699434e+06 -1.6774568873976606e+08 
-9.7049515058703406e+00 -1.0320730110967264e+00 +2.2673368777286789e+00 +1.7255136240404138e+01 +3.6866748586775543e+02 +4.4619451623319750e+04 -1.4631788479175274e+06 -1.5648246127738658e+08 
-9.8050025523226108e+00 -1.0320714089566734e+00 +2.2671157787644209e+00 +1.7305775148981343e+01 +3.7602298851168268e+02 +4.2685837088326822e+04 -1.5032568916612582e+06 -1.4503260974953243e+08 
-9.9050535987748898e+00 -1.0320698570732949e+00 +2.2668831812009373e+00 +1.7358585314535024e+01 +3.8352160788399146e+02 +4.0712988540528582e+04 -1.5438561155344706e+06 -1.3340950686451018e+08 
-1.0005104645227201e+01 -1.0320683550846863e+00 +2.2666392230722443e+00 +1.7413481433056830e+01 +3.9116598122624947e+02 +3.8703308628256709e+04 -1.5849932051479737e+06 -1.2162652843308291e+08 
-1.0105155691679400e+01 -1.0320669026287645e+00 +2.2663840424626924e+00 +1.7470378165137102e+01 +3.9895874252615829e+02 +3.6659200758949955e+04 -1.6266848175810869e+06 -1.0969705433508153e+08 
