# field on trajectory
# s[mm] rx[mm] ry[mm] rz[mm] bx[T] by[T] bz[T]
0.0000000000000000e+00 +9.1013000000000002e+00 +0.0000000000000000e+00 +0.0000000000000000e+00 +5.7305012606849802e-02 -1.0606806486593152e+00 -1.2550272821047552e-02
1.0000000000000001e-01 +9.1012994827407745e+00 +0.0000000000000000e+00 +9.9999999998216293e-02 +5.7304754396861141e-02 -1.0606805480900874e+00 -1.2550335693110717e-02
2.0000000000000001e-01 +9.1012979309631596e+00 +0.0000000000000000e+00 +1.9999999998573031e-01 +5.7304501475806326e-02 -1.0606804638827150e+00 -1.2550405829682395e-02
3.0000000000000004e-01 +9.1012953446672391e+00 +0.0000000000000000e+00 +2.9999999995183979e-01 +5.7304253850602588e-02 -1.0606803930639586e+00 -1.2550482804400175e-02
4.0000000000000002e-01 +9.1012917238530822e+00 +0.0000000000000000e+00 +3.9999999988584239e-01 +5.7304011528157027e-02 -1.0606803326606218e+00 -1.2550566190895516e-02
5.0000000000000000e-01 +9.1012870685207474e+00 +0.0000000000000000e+00 +4.9999999977703585e-01 +5.7303774515369381e-02 -1.0606802796995591e+00 -1.2550655562795880e-02
5.9999999999999998e-01 +9.1012813786702882e+00 +0.0000000000000000e+00 +5.9999999961471795e-01 +5.7303542819134447e-02 -1.0606802312076786e+00 -1.2550750493726880e-02
6.9999999999999996e-01 +9.1012746543017524e+00 +0.0000000000000000e+00 +6.9999999938818636e-01 +5.7303316446344808e-02 -1.0606801842119520e+00 -1.2550850557314457e-02
7.9999999999999993e-01 +9.1012668954151881e+00 +0.0000000000000000e+00 +7.9999999908673880e-01 +5.7303095403893375e-02 -1.0606801357394178e+00 -1.2550955327186990e-02
8.9999999999999991e-01 +9.1012581020106431e+00 +0.0000000000000000e+00 +8.9999999869967306e-01 +5.7302879698675951e-02 -1.0606800828171887e+00 -1.2551064376977488e-02
9.9999999999999989e-01 +9.1012482740881691e+00 +0.0000000000000000e+00 +9.9999999821628682e-01 +5.7302669337593884e-02 -1.0606800224724591e+00 -1.2551177280325716e-02
1.0999999999999999e+00 +9.1012374116478263e+00 +0.0000000000000000e+00 +1.0999999976258779e+00 +5.7302464327556639e-02 -1.0606799517325087e+00 -1.2551293610880360e-02
1.2000000000000000e+00 +9.1012255146896859e+00 +0.0000000000000000e+00 +1.1999999969177439e+00 +5.7302264675484368e-02 -1.0606798676247109e+00 -1.2551412942301159e-02
1.3000000000000000e+00 +9.1012125832138313e+00 +0.0000000000000000e+00 +1.2999999960811826e+00 +5.7302070388310547e-02 -1.0606797671765373e+00 -1.2551534848261076e-02
1.4000000000000001e+00 +9.1011986172203621e+00 +0.0000000000000000e+00 +1.3999999951054918e+00 +5.7301881472984588e-02 -1.0606796474155669e+00 -1.2551658902448455e-02
1.5000000000000002e+00 +9.1011836167093954e+00 +0.0000000000000000e+00 +1.4999999939799691e+00 +5.7301697936474334e-02 -1.0606795053694871e+00 -1.2551784678569149e-02
1.6000000000000003e+00 +9.1011675816810733e+00 +0.0000000000000000e+00 +1.5999999926939124e+00 +5.7301519785768758e-02 -1.0606793380661061e+00 -1.2551911750348676e-02
1.7000000000000004e+00 +9.1011505121355611e+00 +0.0000000000000000e+00 +1.6999999912366195e+00 +5.7301347027880527e-02 -1.0606791425333546e+00 -1.2552039691534393e-02
1.8000000000000005e+00 +9.1011324080730507e+00 +0.0000000000000000e+00 +1.7999999895973882e+00 +5.7301179669848608e-02 -1.0606789157992935e+00 -1.2552168075897620e-02
1.9000000000000006e+00 +9.1011132694937658e+00 +0.0000000000000000e+00 +1.8999999877655160e+00 +5.7301017718740785e-02 -1.0606786548921201e+00 -1.2552296477235814e-02
2.0000000000000004e+00 +9.1010930963979622e+00 +0.0000000000000000e+00 +1.9999999857303010e+00 +5.7300861181656372e-02 -1.0606783568401748e+00 -1.2552424469374704e-02
2.1000000000000005e+00 +9.1010718887859348e+00 +0.0000000000000000e+00 +2.0999999834810410e+00 +5.7300710047379903e-02 -1.0606780196560877e+00 -1.2552551646940710e-02
2.2000000000000006e+00 +9.1010496466580122e+00 +0.0000000000000000e+00 +2.1999999810070339e+00 +5.7300564231324187e-02 -1.0606776452891233e+00 -1.2552677687661062e-02
2.3000000000000007e+00 +9.1010263700145639e+00 +0.0000000000000000e+00 +2.2999999782975773e+00 +5.7300423630555340e-02 -1.0606772366726076e+00 -1.2552802290030579e-02
2.4000000000000008e+00 +9.1010020588559897e+00 +0.0000000000000000e+00 +2.3999999753419692e+00 +5.7300288142136765e-02 -1.0606767967397412e+00 -1.2552925152536068e-02
2.5000000000000009e+00 +9.1009767131827211e+00 +0.0000000000000000e+00 +2.4999999721295074e+00 +5.7300157663127238e-02 -1.0606763284235778e+00 -1.2553045973653967e-02
2.6000000000000010e+00 +9.1009503329952182e+00 +0.0000000000000000e+00 +2.5999999686494899e+00 +5.7300032090579142e-02 -1.0606758346570004e+00 -1.2553164451848028e-02
2.7000000000000011e+00 +9.1009229182939642e+00 +0.0000000000000000e+00 +2.6999999648912145e+00 +5.7299911321536522e-02 -1.0606753183726991e+00 -1.2553280285566964e-02
2.8000000000000012e+00 +9.1008944690794653e+00 +0.0000000000000000e+00 +2.7999999608439796e+00 +5.7299795253033345e-02 -1.0606747825031488e+00 -1.2553393173242123e-02
2.9000000000000012e+00 +9.1008649853522474e+00 +0.0000000000000000e+00 +2.8999999564970826e+00 +5.7299683782091472e-02 -1.0606742299805840e+00 -1.2553502813285131e-02
3.0000000000000013e+00 +9.1008344671128523e+00 +0.0000000000000000e+00 +2.9999999518398219e+00 +5.7299576805718906e-02 -1.0606736637369785e+00 -1.2553608904085571e-02
3.1000000000000014e+00 +9.1008029143618341e+00 +0.0000000000000000e+00 +3.0999999468614954e+00 +5.7299474220907920e-02 -1.0606730867040197e+00 -1.2553711144008635e-02
3.2000000000000015e+00 +9.1007703270997595e+00 +0.0000000000000000e+00 +3.1999999415514009e+00 +5.7299375924633231e-02 -1.0606725018130889e+00 -1.2553809231392803e-02
3.3000000000000016e+00 +9.1007367053272024e+00 +0.0000000000000000e+00 +3.2999999358988368e+00 +5.7299281813849967e-02 -1.0606719119952344e+00 -1.2553902864547471e-02
3.4000000000000017e+00 +9.1007020490447417e+00 +0.0000000000000000e+00 +3.3999999298931010e+00 +5.7299191785492087e-02 -1.0606713201811526e+00 -1.2553991741750649e-02
3.5000000000000018e+00 +9.1006663582529583e+00 +0.0000000000000000e+00 +3.4999999235234918e+00 +5.7299105736470256e-02 -1.0606707293011621e+00 -1.2554075561246606e-02
3.6000000000000019e+00 +9.1006296329524314e+00 +0.0000000000000000e+00 +3.5999999167793071e+00 +5.7299023563670108e-02 -1.0606701422851819e+00 -1.2554154021243522e-02
3.7000000000000020e+00 +9.1005918731437365e+00 +0.0000000000000000e+00 +3.6999999096498453e+00 +5.7298945163950420e-02 -1.0606695620627089e+00 -1.2554226819911181e-02
3.8000000000000020e+00 +9.1005530788274456e+00 +0.0000000000000000e+00 +3.7999999021244042e+00 +5.7298870434141121e-02 -1.0606689915627927e+00 -1.2554293655378598e-02
3.9000000000000021e+00 +9.1005132500041164e+00 +0.0000000000000000e+00 +3.8999998941922822e+00 +5.7298799271041548e-02 -1.0606684337140158e+00 -1.2554354225731703e-02
4.0000000000000018e+00 +9.1004723866742996e+00 +0.0000000000000000e+00 +3.9999998858427772e+00 +5.7298731571418592e-02 -1.0606678914444692e+00 -1.2554408229010999e-02
4.1000000000000014e+00 +9.1004304888385263e+00 +0.0000000000000000e+00 +4.0999998770651880e+00 +5.7298667262116451e-02 -1.0606673670802205e+00 -1.2554455551462416e-02
4.2000000000000011e+00 +9.1003875564973136e+00 +0.0000000000000000e+00 +4.1999998678488124e+00 +5.7298606390400679e-02 -1.0606668605409924e+00 -1.2554496832321370e-02
4.3000000000000007e+00 +9.1003435896511586e+00 +0.0000000000000000e+00 +4.2999998581829484e+00 +5.7298549033639484e-02 -1.0606663711450861e+00 -1.2554532899093730e-02
4.4000000000000004e+00 +9.1002985883005447e+00 +0.0000000000000000e+00 +4.3999998480568943e+00 +5.7298495269194172e-02 -1.0606658982109676e+00 -1.2554564579309235e-02
4.5000000000000000e+00 +9.1002525524459390e+00 +0.0000000000000000e+00 +4.4999998374599484e+00 +5.7298445174419128e-02 -1.0606654410572844e+00 -1.2554592700523464e-02
4.5999999999999996e+00 +9.1002054820877909e+00 +0.0000000000000000e+00 +4.5999998263814090e+00 +5.7298398826661753e-02 -1.0606649990028849e+00 -1.2554618090319887e-02
4.6999999999999993e+00 +9.1001573772265374e+00 +0.0000000000000000e+00 +4.6999998148105737e+00 +5.7298356303262556e-02 -1.0606645713668374e+00 -1.2554641576311917e-02
4.7999999999999989e+00 +9.1001082378625995e+00 +0.0000000000000000e+00 +4.7999998027367416e+00 +5.7298317681554946e-02 -1.0606641574684474e+00 -1.2554663986144889e-02
4.8999999999999986e+00 +9.1000580639963875e+00 +0.0000000000000000e+00 +4.8999997901492103e+00 +5.7298283038865395e-02 -1.0606637566272787e+00 -1.2554686147498129e-02
4.9999999999999982e+00 +9.1000068556282976e+00 +0.0000000000000000e+00 +4.9999997770372788e+00 +5.7298252452513264e-02 -1.0606633681631685e+00 -1.2554708888086963e-02
5.0999999999999979e+00 +9.0999546127587134e+00 +0.0000000000000000e+00 +5.0999997633902447e+00 +5.7298225999810874e-02 -1.0606629913962489e+00 -1.2554733035664728e-02
5.1999999999999975e+00 +9.0999013353880081e+00 +0.0000000000000000e+00 +5.1999997491974064e+00 +5.7298203758063368e-02 -1.0606626256469629e+00 -1.2554759418024830e-02
5.2999999999999972e+00 +9.0998470235165456e+00 +0.0000000000000000e+00 +5.2999997344480629e+00 +5.7298185804568871e-02 -1.0606622702360855e+00 -1.2554788863002750e-02
5.3999999999999968e+00 +9.0997916771446778e+00 +0.0000000000000000e+00 +5.3999997191315119e+00 +5.7298172216618239e-02 -1.0606619244847399e+00 -1.2554822198478066e-02
5.4999999999999964e+00 +9.0997352962727476e+00 +0.0000000000000000e+00 +5.4999997032370516e+00 +5.7298163071495226e-02 -1.0606615877144181e+00 -1.2554860252376487e-02
5.5999999999999961e+00 +9.0996778809010888e+00 +0.0000000000000000e+00 +5.5999996867539794e+00 +5.7298158446476267e-02 -1.0606612592469973e+00 -1.2554903852671870e-02
5.6999999999999957e+00 +9.0996194310300282e+00 +0.0000000000000000e+00 +5.6999996696715947e+00 +5.7298158418830694e-02 -1.0606609384047601e+00 -1.2554953827388254e-02
5.7999999999999954e+00 +9.0995599466598858e+00 +0.0000000000000000e+00 +5.7999996519791956e+00 +5.7298163065820466e-02 -1.0606606245104124e+00 -1.2555011004601867e-02
5.8999999999999950e+00 +9.0994994277909740e+00 +0.0000000000000000e+00 +5.8999996336660807e+00 +5.7298172464700300e-02 -1.0606603168871023e+00 -1.2555076212443178e-02
5.9999999999999947e+00 +9.0994378744235984e+00 +0.0000000000000000e+00 +5.9999996147215482e+00 +5.7298186692717544e-02 -1.0606600148584375e+00 -1.2555150279098880e-02
6.0999999999999943e+00 +9.0993752865580628e+00 +0.0000000000000000e+00 +6.0999995951348955e+00 +5.7298205661735380e-02 -1.0606597174858461e+00 -1.2555233750861981e-02
6.1999999999999940e+00 +9.0993116641946621e+00 +0.0000000000000000e+00 +6.1999995748954220e+00 +5.7298228622111660e-02 -1.0606594227805364e+00 -1.2555326046236758e-02
6.2999999999999936e+00 +9.0992470073336911e+00 +0.0000000000000000e+00 +6.2999995539924258e+00 +5.7298254658864428e-02 -1.0606591284913700e+00 -1.2555426301752290e-02
6.3999999999999932e+00 +9.0991813159754429e+00 +0.0000000000000000e+00 +6.3999995324152046e+00 +5.7298282857059075e-02 -1.0606588323675232e+00 -1.2555533653912689e-02
6.4999999999999929e+00 +9.0991145901202142e+00 +0.0000000000000000e+00 +6.4999995101530574e+00 +5.7298312301810206e-02 -1.0606585321584912e+00 -1.2555647239195670e-02
6.5999999999999925e+00 +9.0990468297683069e+00 +0.0000000000000000e+00 +6.5999994871952827e+00 +5.7298342078283923e-02 -1.0606582256141046e+00 -1.2555766194051165e-02
6.6999999999999922e+00 +9.0989780349200249e+00 +0.0000000000000000e+00 +6.6999994635311779e+00 +5.7298371271699698e-02 -1.0606579104845340e+00 -1.2555889654899906e-02
6.7999999999999918e+00 +9.0989082055756842e+00 +0.0000000000000000e+00 +6.7999994391500422e+00 +5.7298398967332673e-02 -1.0606575845203037e+00 -1.2556016758132022e-02
6.8999999999999915e+00 +9.0988373417356101e+00 +0.0000000000000000e+00 +6.8999994140411740e+00 +5.7298424250515533e-02 -1.0606572454723007e+00 -1.2556146640105639e-02
6.9999999999999911e+00 +9.0987654434001417e+00 +0.0000000000000000e+00 +6.9999993881938716e+00 +5.7298446206640721e-02 -1.0606568910917833e+00 -1.2556278437145480e-02
7.0999999999999908e+00 +9.0986925105696326e+00 +0.0000000000000000e+00 +7.0999993615974333e+00 +5.7298463921162460e-02 -1.0606565191303938e+00 -1.2556411285541458e-02
7.1999999999999904e+00 +9.0986185432444522e+00 +0.0000000000000000e+00 +7.1999993342411575e+00 +5.7298476479598875e-02 -1.0606561273401667e+00 -1.2556544321547273e-02
7.2999999999999901e+00 +9.0985435414249913e+00 +0.0000000000000000e+00 +7.2999993061143433e+00 +5.7298482967534023e-02 -1.0606557134735397e+00 -1.2556676681379013e-02
7.3999999999999897e+00 +9.0984675051116621e+00 +0.0000000000000000e+00 +7.3999992772062884e+00 +5.7298482470620006e-02 -1.0606552752833620e+00 -1.2556807501213754e-02
7.4999999999999893e+00 +9.0983904343049016e+00 +0.0000000000000000e+00 +7.4999992475062918e+00 +5.7298474074579046e-02 -1.0606548105229086e+00 -1.2556935917188155e-02
7.5999999999999890e+00 +9.0983123290051697e+00 +0.0000000000000000e+00 +7.5999992170036519e+00 +5.7298456865205544e-02 -1.0606543169458842e+00 -1.2557061065397078e-02
7.6999999999999886e+00 +9.0982331892129569e+00 +0.0000000000000000e+00 +7.6999991856876679e+00 +5.7298429928368248e-02 -1.0606537923064396e+00 -1.2557182081892153e-02
7.7999999999999883e+00 +9.0981530149287835e+00 +0.0000000000000000e+00 +7.7999991535476374e+00 +5.7298392350012224e-02 -1.0606532343591781e+00 -1.2557298102680413e-02
7.8999999999999879e+00 +9.0980718061532020e+00 +0.0000000000000000e+00 +7.8999991205728595e+00 +5.7298343216160973e-02 -1.0606526408591659e+00 -1.2557408263722874e-02
7.9999999999999876e+00 +9.0979895628868004e+00 +0.0000000000000000e+00 +7.9999990867526334e+00 +5.7298281612918583e-02 -1.0606520095619445e+00 -1.2557511700933163e-02
8.0999999999999872e+00 +9.0979062851302039e+00 +0.0000000000000000e+00 +8.0999990520762584e+00 +5.7298206835183281e-02 -1.0606513389062311e+00 -1.2557607797686386e-02
8.1999999999999869e+00 +9.0978219728840752e+00 +0.0000000000000000e+00 +8.1999990165330328e+00 +5.7298119012749810e-02 -1.0606506300616405e+00 -1.2557696927387049e-02
8.2999999999999865e+00 +9.0977366261491142e+00 +0.0000000000000000e+00 +8.2999989801122549e+00 +5.7298018484062609e-02 -1.0606498848797694e+00 -1.2557779710943410e-02
8.3999999999999861e+00 +9.0976502449260561e+00 +0.0000000000000000e+00 +8.3999989428032240e+00 +5.7297905587475342e-02 -1.0606491052113263e+00 -1.2557856769246015e-02
8.4999999999999858e+00 +9.0975628292156721e+00 +0.0000000000000000e+00 +8.4999989045952393e+00 +5.7297780661247917e-02 -1.0606482929061005e+00 -1.2557928723167357e-02
8.5999999999999854e+00 +9.0974743790187631e+00 +0.0000000000000000e+00 +8.5999988654775983e+00 +5.7297644043543115e-02 -1.0606474498129306e+00 -1.2557996193561476e-02
8.6999999999999851e+00 +9.0973848943361606e+00 +0.0000000000000000e+00 +8.6999988254396019e+00 +5.7297496072423418e-02 -1.0606465777796721e+00 -1.2558059801263599e-02
8.7999999999999847e+00 +9.0972943751687243e+00 +0.0000000000000000e+00 +8.7999987844705494e+00 +5.7297337085847763e-02 -1.0606456786531659e+00 -1.2558120167089780e-02
8.8999999999999844e+00 +9.0972028215173406e+00 +0.0000000000000000e+00 +8.8999987425597400e+00 +5.7297167421668425e-02 -1.0606447542792092e+00 -1.2558177911836516e-02
8.9999999999999840e+00 +9.0971102333829208e+00 +0.0000000000000000e+00 +8.9999986996964711e+00 +5.7296987417627683e-02 -1.0606438065025241e+00 -1.2558233656280405e-02
9.0999999999999837e+00 +9.0970166107663992e+00 +0.0000000000000000e+00 +9.0999986558700439e+00 +5.7296797411354704e-02 -1.0606428371667234e+00 -1.2558288021177730e-02
9.1999999999999833e+00 +9.0969219536687298e+00 +0.0000000000000000e+00 +9.1999986110697574e+00 +5.7296597740362241e-02 -1.0606418481142825e+00 -1.2558341627264141e-02
9.2999999999999829e+00 +9.0968262620908895e+00 +0.0000000000000000e+00 +9.2999985652849109e+00 +5.7296388742043451e-02 -1.0606408411865065e+00 -1.2558395095254238e-02
9.3999999999999826e+00 +9.0967295360338696e+00 +0.0000000000000000e+00 +9.3999985185048036e+00 +5.7296170753668683e-02 -1.0606398182234988e+00 -1.2558449045841228e-02
9.4999999999999822e+00 +9.0966317754986772e+00 +0.0000000000000000e+00 +9.4999984707187348e+00 +5.7295944112382258e-02 -1.0606387810641318e+00 -1.2558504099696544e-02
9.5999999999999819e+00 +9.0965329804863355e+00 +0.0000000000000000e+00 +9.5999984219160055e+00 +5.7295709155199222e-02 -1.0606377315460127e+00 -1.2558560877469486e-02
9.6999999999999815e+00 +9.0964331509978766e+00 +0.0000000000000000e+00 +9.6999983720859131e+00 +5.7295466219002104e-02 -1.0606366715054549e+00 -1.2558619999786819e-02
9.7999999999999812e+00 +9.0963322870343468e+00 +0.0000000000000000e+00 +9.7999983212177586e+00 +5.7295215640537793e-02 -1.0606356027774446e+00 -1.2558682087252446e-02
9.8999999999999808e+00 +9.0962303885967977e+00 +0.0000000000000000e+00 +9.8999982693008413e+00 +5.7294957756414223e-02 -1.0606345271956110e+00 -1.2558747760446994e-02
9.9999999999999805e+00 +9.0961274556862914e+00 +0.0000000000000000e+00 +9.9999982163244603e+00 +5.7294692903097112e-02 -1.0606334465921943e+00 -1.2558817639927460e-02
1.0099999999999980e+01 +9.0960234883038904e+00 +0.0000000000000000e+00 +1.0099998162277917e+01 +5.7294421259863296e-02 -1.0606323627915129e+00 -1.2558892197188516e-02
1.0199999999999980e+01 +9.0959184864506639e+00 +0.0000000000000000e+00 +1.0199998107150510e+01 +5.7294142377707524e-02 -1.0606312775911737e+00 -1.2558971307553837e-02
1.0299999999999979e+01 +9.0958124501276814e+00 +0.0000000000000000e+00 +1.0299998050931539e+01 +5.7293855650619202e-02 -1.0606301927828876e+00 -1.2559054697375342e-02
1.0399999999999979e+01 +9.0957053793360121e+00 +0.0000000000000000e+00 +1.0399997993610304e+01 +5.7293560472663381e-02 -1.0606291101591776e+00 -1.2559142093099463e-02
1.0499999999999979e+01 +9.0955972740767219e+00 +0.0000000000000000e+00 +1.0499997935176106e+01 +5.7293256237983058e-02 -1.0606280315134062e+00 -1.2559233221269618e-02
1.0599999999999978e+01 +9.0954881343508767e+00 +0.0000000000000000e+00 +1.0599997875618243e+01 +5.7292942340801477e-02 -1.0606269586397972e+00 -1.2559327808528677e-02
1.0699999999999978e+01 +9.0953779601595315e+00 +0.0000000000000000e+00 +1.0699997814926016e+01 +5.7292618175424428e-02 -1.0606258933334605e+00 -1.2559425581621432e-02
1.0799999999999978e+01 +9.0952667515037398e+00 +0.0000000000000000e+00 +1.0799997753088725e+01 +5.7292283136242537e-02 -1.0606248373904155e+00 -1.2559526267397094e-02
1.0899999999999977e+01 +9.0951545083845406e+00 +0.0000000000000000e+00 +1.0899997690095670e+01 +5.7291936617733637e-02 -1.0606237926076170e+00 -1.2559629592811752e-02
1.0999999999999977e+01 +9.0950412308029680e+00 +0.0000000000000000e+00 +1.0999997625936151e+01 +5.7291578014465008e-02 -1.0606227607829779e+00 -1.2559735284930854e-02
1.1099999999999977e+01 +9.0949269187600379e+00 +0.0000000000000000e+00 +1.1099997560599469e+01 +5.7291206721095687e-02 -1.0606217437153937e+00 -1.2559843070931683e-02
1.1199999999999976e+01 +9.0948115722567540e+00 +0.0000000000000000e+00 +1.1199997494074923e+01 +5.7290822132378870e-02 -1.0606207432047650e+00 -1.2559952678105812e-02
1.1299999999999976e+01 +9.0946951912941056e+00 +0.0000000000000000e+00 +1.1299997426351812e+01 +5.7290423643164112e-02 -1.0606197610520252e+00 -1.2560063833861625e-02
1.1399999999999975e+01 +9.0945777758730628e+00 +0.0000000000000000e+00 +1.1399997357419437e+01 +5.7290010648399725e-02 -1.0606187990591602e+00 -1.2560176265726726e-02
1.1499999999999975e+01 +9.0944593259945758e+00 +0.0000000000000000e+00 +1.1499997287267098e+01 +5.7289582543135015e-02 -1.0606178590292368e+00 -1.2560289701350483e-02
1.1599999999999975e+01 +9.0943398416595755e+00 +0.0000000000000000e+00 +1.1599997215884095e+01 +5.7289138722522649e-02 -1.0606169427664227e+00 -1.2560403868506436e-02
1.1699999999999974e+01 +9.0942193228689661e+00 +0.0000000000000000e+00 +1.1699997143259727e+01 +5.7288678581821038e-02 -1.0606160520760124e+00 -1.2560518495094821e-02
1.1799999999999974e+01 +9.0940977696236303e+00 +0.0000000000000000e+00 +1.1799997069383297e+01 +5.7288201516396499e-02 -1.0606151887644528e+00 -1.2560633309145013e-02
