# multipoles
# s[mm] polynom_b[n=0][T/m^n] polynom_b[n=1][T/m^n] polynom_b[n=2][T/m^n] polynom_b[n=3][T/m^n] polynom_b[n=4][T/m^n] polynom_b[n=5][T/m^n] polynom_b[n=6][T/m^n] 
-0.0000000000000000e+00 -1.0331002573339285e+00 +2.2939735094124560e+00 +2.7513030375674969e+01 -4.3589671789601476e+02 -6.7948353266499689e+04 +3.6680353274912224e+06 +1.8728464967427135e+08 
-1.0005104645227200e-01 -1.0330999057149504e+00 +2.2939905527760618e+00 +2.7465622020143641e+01 -4.3431291790098442e+02 -6.7253648279927482e+04 +3.6527625444413084e+06 +1.8455265046715823e+08 
-2.0010209290454301e-01 -1.0330994814999290e+00 +2.2940147370231916e+00 +2.7410261870397065e+01 -4.3269669924580239e+02 -6.6419888962145938e+04 +3.6366445853946176e+06 +1.8120506911565608e+08 
-3.0015313935681498e-01 -1.0330989883826738e+00 +2.2940459890405314e+00 +2.7347289706340078e+01 -4.3106978635471944e+02 -6.5454536188454374e+04 +3.6198491726053841e+06 +1.7728056882354665e+08 
-4.0020418580908601e-01 -1.0330984300570487e+00 +2.2940842357756881e+00 +2.7277045306248393e+01 -4.2945390560073810e+02 -6.4365050756621611e+04 +3.6025440401636013e+06 +1.7281781237935773e+08 
-5.0025523226135804e-01 -1.0330978102169535e+00 +2.2941294042438987e+00 +2.7199868448771003e+01 -4.2787078545380552e+02 -6.3158893441290864e+04 +3.5848969345660321e+06 +1.6785546244745487e+08 
-6.0030627871362996e-01 -1.0330971325563187e+00 +2.2941814215174627e+00 +2.7116098914097652e+01 -4.2634215608104904e+02 -6.1843525012576996e+04 +3.5670756119333329e+06 +1.6243218163751462e+08 
-7.0035732516590099e-01 -1.0330964007690768e+00 +2.2942402147273002e+00 +2.7026076478680821e+01 -4.2488974934747421e+02 -6.0426406141925960e+04 +3.5492478376842956e+06 +1.5658663206306431e+08 
-8.0040837161817302e-01 -1.0330956185493199e+00 +2.2943057110550984e+00 +2.6930140937463300e+01 -4.2353529852264472e+02 -5.8914997836183305e+04 +3.5315813844325091e+06 +1.5035747742704824e+08 
-9.0045941807044405e-01 -1.0330947895911067e+00 +2.2943778377305835e+00 +2.6828632082869948e+01 -4.2230053813459614e+02 -5.7316761039327095e+04 +3.5142440308072106e+06 +1.4378338112103066e+08 
-1.0005104645227201e+00 -1.0330939175886211e+00 +2.2944565220324296e+00 +2.6721889723757304e+01 -4.2120720392139560e+02 -5.5639156997334430e+04 +3.4974035607275916e+06 +1.3690300796073279e+08 
-1.1005615109749900e+00 -1.0330930062361243e+00 +2.2945416912795031e+00 +2.6610253682324480e+01 -4.2027703252681226e+02 -5.3889647211217743e+04 +3.4812277613169961e+06 +1.2975502398786078e+08 
-1.2006125574272599e+00 -1.0330920592279520e+00 +2.2946332728243344e+00 +2.6494063792879761e+01 -4.1953176123568460e+02 -5.2075693416491304e+04 +3.4658844209327768e+06 +1.2237809636814855e+08 
-1.3006636038795301e+00 -1.0330910802585502e+00 +2.2947311940649566e+00 +2.6373659910383441e+01 -4.1899312827413934e+02 -5.0204757743336471e+04 +3.4515413306352217e+06 +1.1481089413479480e+08 
-1.4007146503318000e+00 -1.0330900730224941e+00 +2.2948353824200605e+00 +2.6249381911484328e+01 -4.1868287199700831e+02 -4.8284302758088270e+04 +3.4383662789794356e+06 +1.0709208844038536e+08 
-1.5007656967840699e+00 -1.0330890412144280e+00 +2.2949457653401377e+00 +2.6121569690959316e+01 -4.1862273110981602e+02 -4.6321791379783172e+04 +3.4265270529276272e+06 +9.9260352102401063e+07 
-1.6008167432363500e+00 -1.0330879887614295e+00 +2.2950621598346759e+00 +2.5990579179927941e+01 -4.1882578361304326e+02 -4.4324250594682242e+04 +3.4161402566072913e+06 +9.1349792914288178e+07 
-1.7008677896886200e+00 -1.0330869204901285e+00 +2.2951839766230475e+00 +2.5856829636056965e+01 -4.1927284148794047e+02 -4.2297129912529512e+04 +3.4071341517740008e+06 +8.3377441447656915e+07 
-1.8009188361408901e+00 -1.0330858414450996e+00 +2.2953105331472492e+00 +2.5720755975863238e+01 -4.1993720896882911e+02 -4.0245523874508261e+04 +3.3993937877218323e+06 +7.5356336891246468e+07 
-1.9009698825931600e+00 -1.0330847566709411e+00 +2.2954411467962861e+00 +2.5582793121169814e+01 -4.2079218866718861e+02 -3.8174527185268795e+04 +3.3928042042982946e+06 +6.7299519383381262e+07 
-2.0010209290454299e+00 -1.0330836712122595e+00 +2.2955751348985656e+00 +2.5443375998762765e+01 -4.2181108135853043e+02 -3.6089234723901995e+04 +3.3872504308802974e+06 +5.9220030110007279e+07 
-2.1010719754977001e+00 -1.0330825901136551e+00 +2.2957118147133921e+00 +2.5302939535179735e+01 -4.2296718578905217e+02 -3.3994741443347666e+04 +3.3826174855739903e+06 +5.1130910823710606e+07 
-2.2011230219499698e+00 -1.0330815184197566e+00 +2.2958505034132570e+00 +2.5161918665693374e+01 -4.2423379816007002e+02 -3.1896142560464705e+04 +3.3787903724418813e+06 +4.3045204796720289e+07 
-2.3011740684022501e+00 -1.0330804611751092e+00 +2.2959905180761488e+00 +2.5020748316545443e+01 -4.2558421192916143e+02 -2.9798533213860122e+04 +3.3756540805901685e+06 +3.4975955182201169e+07 
-2.4012251148545198e+00 -1.0330794234243073e+00 +2.2961311756748954e+00 +2.4879863423364355e+01 -4.2699171753444858e+02 -2.7707008840132054e+04 +3.3730935828497158e+06 +2.6936206876312107e+07 
-2.5012761613067900e+00 -1.0330784102118702e+00 +2.2962717930634264e+00 +2.4739698913866302e+01 -4.2842960201466633e+02 -2.5626664834338135e+04 +3.3709938338133981e+06 +1.8939004867681429e+07 
-2.6013272077590601e+00 -1.0330774265822884e+00 +2.2964116869652176e+00 +2.4600689717320584e+01 -4.2987114868513004e+02 -2.3562596754477137e+04 +3.3692397682094038e+06 +1.0997395281756541e+07 
-2.7013782542113298e+00 -1.0330764775800085e+00 +2.2965501739663594e+00 +2.4463270757717844e+01 -4.3128963697506163e+02 -2.1519900188566076e+04 +3.3677163002181039e+06 +3.1244247367847143e+06 
-2.8014293006636000e+00 -1.0330755682494173e+00 +2.2966865704976103e+00 +2.4327876955876366e+01 -4.3265834191735411e+02 -1.9503670813405814e+04 +3.3663083207463636e+06 -4.6668593262434360e+06 
-2.9014803471158799e+00 -1.0330747036348245e+00 +2.2968201928274627e+00 +2.4194943224795672e+01 -4.3395053397694426e+02 -1.7519004305493829e+04 +3.3649006967145693e+06 -1.2363409069832228e+07 
-3.0015313935681500e+00 -1.0330738887805184e+00 +2.2969503570500462e+00 +2.4064904478102431e+01 -4.3513947871506451e+02 -1.5570996518896733e+04 +3.3633782693302217e+06 -1.9952175367130671e+07 
-3.1015824400204202e+00 -1.0330731287306412e+00 +2.2970763790730397e+00 +2.3938195614008762e+01 -4.3619843646877860e+02 -1.3664743181579484e+04 +3.3616258525197068e+06 -2.7420109244268745e+07 
-3.2016334864726899e+00 -1.0330724285292650e+00 +2.2971975746061988e+00 +2.3815251523127785e+01 -4.3710066203113013e+02 -1.1805340053540747e+04 +3.3595282312741349e+06 -3.4754161102316141e+07 
-3.3016845329249600e+00 -1.0330717932204134e+00 +2.2973132591477130e+00 +2.3696507093660454e+01 -4.3781940428650711e+02 -9.9978830409338316e+03 +3.3569701598310368e+06 -4.1941280135035619e+07 
-3.4017355793772301e+00 -1.0330712278479313e+00 +2.2974227479805314e+00 +2.3582397195026712e+01 -4.3832790612316546e+02 -8.2474678862048349e+03 +3.3538363614264373e+06 -4.8968415795946278e+07 
-3.5017866258295101e+00 -1.0330707374555868e+00 +2.2975253561622844e+00 +2.3473356690303852e+01 -4.3859940443163794e+02 -6.5591904651435871e+03 +3.3500115283729886e+06 -5.5822516273721427e+07 
-3.6018376722817802e+00 -1.0330703250537823e+00 +2.2976205052055776e+00 +2.3369697563940839e+01 -4.3861169161799626e+02 -4.9368597539701868e+03 +3.3453958987845490e+06 -6.2493530393634625e+07 
-3.7018887187340499e+00 -1.0330699858609562e+00 +2.2977079723256852e+00 +2.3271250099078305e+01 -4.3835686527667485e+02 -3.3789976763111467e+03 +3.3399254455625676e+06 -6.8984469624204844e+07 
-3.8019397651863200e+00 -1.0330697132270064e+00 +2.2977876083921047e+00 +2.3177726438184600e+01 -4.3782972950337313e+02 -1.8827767088915243e+03 +3.3335390391888176e+06 -7.5301817213909194e+07 
-3.9019908116385902e+00 -1.0330695005017689e+00 +2.2978592643262430e+00 +2.3088838712693384e+01 -4.3702508971216565e+02 -4.4536913648118633e+02 +3.3261755583203249e+06 -8.1452057181192175e+07 
-4.0020418580908599e+00 -1.0330693410349063e+00 +2.2979227911317994e+00 +2.3004299033307952e+01 -4.3593775354067583e+02 +9.3605313357231853e+02 +3.3177738952836082e+06 -8.7441675209194154e+07 
-4.1020929045431300e+00 -1.0330692281759597e+00 +2.2979780398899106e+00 +2.2923819493710180e+01 -4.3456253069440248e+02 +2.2643185077246394e+03 +3.3082729551141006e+06 -9.3277158353351355e+07 
-4.2021439509954099e+00 -1.0330691552743547e+00 +2.2980248617802461e+00 +2.2847112170020807e+01 -4.3289423354391619e+02 +3.5422557260079557e+03 +3.2976116589849493e+06 -9.8964995158794180e+07 
-4.3021949974476801e+00 -1.0330691156793808e+00 +2.2980631080795173e+00 +2.2773889119803748e+01 -4.3092767709187478e+02 +4.7726938805297477e+03 +3.2857289440744966e+06 -1.0451167573951685e+08 
-4.4022460438999502e+00 -1.0330691027401564e+00 +2.2980926301808169e+00 +2.2703862376510784e+01 -4.2865767949103753e+02 +5.9584625293634781e+03 +3.2725637664547772e+06 -1.0992369234073962e+08 
-4.5022970903522204e+00 -1.0330691098056237e+00 +2.2981132795992307e+00 +2.2636743951002138e+01 -4.2607906221762880e+02 +7.1023916711784486e+03 +3.2580551021684706e+06 -1.1520753922042242e+08 
-4.6023481368044896e+00 -1.0330691302246362e+00 +2.2981249079791213e+00 +2.2572245837175775e+01 -4.2318665028403143e+02 +8.2073116436962318e+03 +3.2421419484205968e+06 -1.2036971217546138e+08 
-4.7023991832567598e+00 -1.0330691573458204e+00 +2.2981273671153617e+00 +2.2510079999754698e+01 -4.1997527281627282e+02 +9.2760533631744584e+03 +3.2247633269009348e+06 -1.2541670969683585e+08 
-4.8024502297090397e+00 -1.0330691845176503e+00 +2.2981205089445749e+00 +2.2449958379778998e+01 -4.1643976281514972e+02 +1.0311448221945113e+04 +3.2058582824061406e+06 -1.3035503248310934e+08 
-4.9025012761613098e+00 -1.0330692050884169e+00 +2.2981041855742501e+00 +2.2391592891848337e+01 -4.1257495797743854e+02 +1.1316328147120847e+04 +3.1853658875743733e+06 -1.3519118372955927e+08 
-5.0025523226135800e+00 -1.0330692124062111e+00 +2.2980782492785581e+00 +2.2334695422904606e+01 -4.0837570056295067e+02 +1.2293525630800334e+04 +3.1632252421022616e+06 -1.3993166928708130e+08 
-5.1026033690658501e+00 -1.0330691998189554e+00 +2.2980425525170132e+00 +2.2278977833674109e+01 -4.0383683793199185e+02 +1.3245873705806887e+04 +3.1393754758435898e+06 -1.4458299755223757e+08 
-5.2026544155181202e+00 -1.0330691606743716e+00 +2.2979969479407871e+00 +2.2224151956219799e+01 -3.9895322272622747e+02 +1.4176205997351912e+04 +3.1137557498856890e+06 -1.4915167971650857e+08 
-5.3027054619703904e+00 -1.0330690883199589e+00 +2.2979412883983854e+00 +2.2169929588620320e+01 -3.9371971300587740e+02 +1.5087356831329353e+04 +3.0863052572507435e+06 -1.5364423030262244e+08 
-5.4027565084226703e+00 -1.0330689761030223e+00 +2.2978754269566974e+00 +2.2116022502271722e+01 -3.8813117286422926e+02 +1.5982161095733714e+04 +3.0569632265394656e+06 -1.5806716649403077e+08 
-5.5028075548749404e+00 -1.0330688173705553e+00 +2.2977992168939307e+00 +2.2062142419346848e+01 -3.8218247297054779e+02 +1.6863454607042444e+04 +3.0256689266931140e+06 -1.6242700966404599e+08 
-5.6028586013272097e+00 -1.0330686069166564e+00 +2.2977126867336746e+00 +2.2008052615902674e+01 -3.7587485624471748e+02 +1.7733237506365789e+04 +2.9924018373581506e+06 -1.6672630648820129e+08 
-5.7029096477794798e+00 -1.0330683451091396e+00 +2.2976165329956211e+00 +2.1953730581539865e+01 -3.6923226748301249e+02 +1.8590102586275571e+04 +2.9572826127051711e+06 -1.7095184452686298e+08 
-5.8029606942317500e+00 -1.0330680336531815e+00 +2.2975116111918812e+00 +2.1899208386184252e+01 -3.6228372639300403e+02 +1.9431784990804266e+04 +2.9204630453185774e+06 -1.7508652815485162e+08 
-5.9030117406840201e+00 -1.0330676742543596e+00 +2.2973987769499882e+00 +2.1844518156578701e+01 -3.5505825534179934e+02 +2.0256018765784560e+04 +2.8820949385984764e+06 -1.7911325631728321e+08 
-6.0030627871363000e+00 -1.0330672686184867e+00 +2.2972788860145110e+00 +2.1789692053686451e+01 -3.4758487936199396e+02 +2.1060537292618359e+04 +2.8423301064532991e+06 -1.8301492459486225e+08 
-6.1031138335885702e+00 -1.0330668184517786e+00 +2.2971527942490884e+00 +2.1734762295431857e+01 -3.3989262620019389e+02 +2.1843072858290263e+04 +2.8013203734093020e+06 -1.8677442316188565e+08 
-6.2031648800408403e+00 -1.0330663254607844e+00 +2.2970213576395309e+00 +2.1679761147811231e+01 -3.3201052637990819e+02 +2.2601356824582719e+04 +2.7592175747454376e+06 -1.9037463758822820e+08 
-6.3032159264931096e+00 -1.0330657913524381e+00 +2.2968854323023873e+00 +2.1624720932057350e+01 -3.2396761342522683e+02 +2.3333119490191824e+04 +2.7161735575439557e+06 -1.9379844817310193e+08 
-6.4032669729453797e+00 -1.0330652178340709e+00 +2.2967458744837526e+00 +2.1569674026179701e+01 -3.1579292379511662e+02 +2.4036090065851153e+04 +2.6723401800749837e+06 -1.9702872983636510e+08 
-6.5033180193976499e+00 -1.0330646066134386e+00 +2.2966035405667844e+00 +2.1514652867135254e+01 -3.0751549710116575e+02 +2.4707996631288559e+04 +2.6278693128761351e+06 -2.0004835190275651e+08 
-6.6033690658499298e+00 -1.0330639593986914e+00 +2.2964592870698675e+00 +2.1459689950299708e+01 -2.9916437599430668e+02 +2.5346566152977066e+04 +2.5829128377959221e+06 -2.0284017820579636e+08 
-6.7034201123021999e+00 -1.0330632778984439e+00 +2.2963139706549378e+00 +2.1404817836324288e+01 -2.9076860640289084e+02 +2.5949524343119065e+04 +2.5376226491850964e+06 -2.0538706638053954e+08 
-6.8034711587544701e+00 -1.0330625638217945e+00 +2.2961684481333577e+00 +2.1350069152924362e+01 -2.8235723770351905e+02 +2.6514595637186339e+04 +2.4921506547148270e+06 -2.0767186778654563e+08 
-6.9035222052067402e+00 -1.0330618188782699e+00 +2.2960235764635448e+00 +2.1295476591457550e+01 -2.7395932256756214e+02 +2.7039503256964545e+04 +2.4466487741295081e+06 -2.0967742779764134e+08 
-7.0035732516590103e+00 -1.0330610447779456e+00 +2.2958802127573210e+00 +2.1241072919462265e+01 -2.6560391717738133e+02 +2.7521968967501980e+04 +2.4012689403830580e+06 -2.1138658462780839e+08 
-7.1036242981112796e+00 -1.0330602432313691e+00 +2.2957392142829822e+00 +2.1186890971685262e+01 -2.5732008126334415e+02 +2.7959713260896729e+04 +2.3561630995787363e+06 -2.1278217023882267e+08 
-7.2036753445635497e+00 -1.0330594159496345e+00 +2.2956014384721906e+00 +2.1132963660856738e+01 -2.4913687828558469e+02 +2.8350455142679137e+04 +2.3114832117984411e+06 -2.1384700929403785e+08 
-7.3037263910158297e+00 -1.0330585646443715e+00 +2.2954677429216925e+00 +2.1079323975056948e+01 -2.4108337546840062e+02 +2.8691912181749558e+04 +2.2673812510876777e+06 -2.1456391939422071e+08 
-7.4037774374680998e+00 -1.0330576910277829e+00 +2.2953389853912656e+00 +2.1026004984514387e+01 -2.3318864369723778e+02 +2.8981800392221874e+04 +2.2240092046118369e+06 -2.1491571053871715e+08 
-7.5038284839203699e+00 -1.0330567968128108e+00 +2.2952160236536514e+00 +2.0973039840482954e+01 -2.2548174930990717e+02 +2.9217834910066809e+04 +2.1815190280008879e+06 -2.1488518931660280e+08 
-7.6038795303726401e+00 -1.0330558837336614e+00 +2.2950993991054149e+00 +2.0920453387936341e+01 -2.1797942579964555e+02 +2.9398797444709420e+04 +2.1399969367129733e+06 -2.1446249540226769e+08 
-7.7039305768249102e+00 -1.0330549533679134e+00 +2.2949886768860690e+00 +2.0868231962599896e+01 -2.1066298077676981e+02 +2.9527035930823160e+04 +2.0993495726719955e+06 -2.1366251132945970e+08 
-7.8039816232771804e+00 -1.0330540072073753e+00 +2.2948832367610312e+00 +2.0816350801294675e+01 -2.0350764542308121e+02 +2.9605675928109271e+04 +2.0594557217167756e+06 -2.1250556182258016e+08 
-7.9040326697294496e+00 -1.0330530467434411e+00 +2.2947824584987631e+00 +2.0764785073353952e+01 -1.9648865336760082e+02 +2.9637844305119903e+04 +2.0201941931999440e+06 -2.1101197819935170e+08 
-8.0040837161817304e+00 -1.0330520734671629e+00 +2.2946857218574879e+00 +2.0713509894414848e+01 -1.8958124024898351e+02 +2.9626668946300797e+04 +1.9814438169890256e+06 -2.0920209685426670e+08 
-8.1041347626340006e+00 -1.0330510888691282e+00 +2.2945924065931336e+00 +2.0662500307493378e+01 -1.8276064403397370e+02 +2.9575279121515825e+04 +1.9430834456414196e+06 -2.0709626105330488e+08 
-8.2041858090862707e+00 -1.0330500944395611e+00 +2.2945018924462044e+00 +2.0611731297014785e+01 -1.7600210471601778e+02 +2.9486805218892132e+04 +1.9049919529879699e+06 -2.0471481967618284e+08 
-8.3042368555385409e+00 -1.0330490916681996e+00 +2.2944135591478760e+00 +2.0561177772649273e+01 -1.6928086458012470e+02 +2.9364379051355401e+04 +1.8670482360095480e+06 -2.0207812868099836e+08 
-8.4042879019908092e+00 -1.0330480820443411e+00 +2.2943267864133574e+00 +2.0510814573508181e+01 -1.6257216808373451e+02 +2.9211133781895813e+04 +1.8291312144519563e+06 -1.9920655077283844e+08 
-8.5043389484430794e+00 -1.0330470670568037e+00 +2.2942409539396684e+00 +2.0460616465762858e+01 -1.5585126188122186e+02 +2.9030203961767991e+04 +1.7911198313234462e+06 -1.9612045558149967e+08 
-8.6043899948953602e+00 -1.0330460481939261e+00 +2.2941554414083485e+00 +2.0410558136636915e+01 -1.4909339499620052e+02 +2.8824725654203245e+04 +1.7528930542185614e+06 -1.9284022028189483e+08 
-8.7044410413476303e+00 -1.0330450269435596e+00 +2.2940696284743622e+00 +2.0360614199728573e+01 -1.4227381855278671e+02 +2.8597836326091878e+04 +1.7143298740518028e+06 -1.8938622907560402e+08 
-8.8044920877999004e+00 -1.0330440047930156e+00 +2.2939828947706538e+00 +2.0310759182153401e+01 -1.3536778601645727e+02 +2.8352675103415953e+04 +1.6753093068269379e+06 -1.8577887444379634e+08 
-8.9045431342521706e+00 -1.0330429832291119e+00 +2.2938946199071335e+00 +2.0260967533650184e+01 -1.2835055323987933e+02 +2.8092382586445601e+04 +1.6357103942263420e+06 -1.8203855624808368e+08 
-9.0045941807044407e+00 -1.0330419637380601e+00 +2.2938041834645286e+00 +2.0211213610320204e+01 -1.2119737836793787e+02 +2.7820101170350321e+04 +1.5954122033867007e+06 -1.7818568330008832e+08 
-9.1046452271567109e+00 -1.0330409478055562e+00 +2.2937109649899670e+00 +2.0161471686175762e+01 -1.1388352176992596e+02 +2.7538974821841261e+04 +1.5542938267799770e+06 -1.7424067229580787e+08 
-9.2046962736089899e+00 -1.0330399369167249e+00 +2.2936143440010026e+00 +2.0111715945141921e+01 -1.0638424628734077e+02 +2.7252149229019142e+04 +1.5122343840932893e+06 -1.7022394853882325e+08 
-9.3047473200612600e+00 -1.0330389325560605e+00 +2.2935136999816454e+00 +2.0061920473923660e+01 -9.8674817148479306e+01 +2.6962771945432010e+04 +1.4691130219485352e+06 -1.6615594665524983e+08 
-9.4047983665135302e+00 -1.0330379362074955e+00 +2.2934084123769494e+00 +2.0012059268824128e+01 -9.0730501939928573e+01 +2.6673992254063516e+04 +1.4248089141656912e+06 -1.6205710994336453e+08 
-9.5048494129658003e+00 -1.0330369493544773e+00 +2.2932978608850316e+00 +1.9962106289358360e+01 -8.2526582375895458e+01 +2.6388959314819691e+04 +1.3792013070153932e+06 -1.5794788176879111e+08 
-9.6049004594180705e+00 -1.0330359726242451e+00 +2.2931814400967307e+00 +1.9912043687497345e+01 -7.4044072069612199e+01 +2.6110054286611285e+04 +1.3321984382998564e+06 -1.5384438331083050e+08 
-9.7049515058703406e+00 -1.0330350035178284e+00 +2.2930584134330241e+00 +1.9861860347412534e+01 -6.5278552126131999e+01 +2.5837957285200937e+04 +1.2837853009468697e+06 -1.4975262274780041e+08 
-9.8050025523226108e+00 -1.0330340388342096e+00 +2.2929279815696311e+00 +1.9811544225759054e+01 -5.6227904084057741e+01 +2.5573136498297259e+04 +1.2339594020167424e+06 -1.4567722516272110e+08 
-9.9050535987748898e+00 -1.0330330753720218e+00 +2.2927893450153216e+00 +1.9761083275570076e+01 -4.6890003298793332e+01 +2.5316060024389095e+04 +1.1827182071331758e+06 -1.4162281463967255e+08 
-1.0005104645227201e+01 -1.0330321099295710e+00 +2.2926417041274734e+00 +1.9710465452761447e+01 -3.7262719403582537e+01 +2.5067195754946031e+04 +1.1300591441173942e+06 -1.3759401380385563e+08 
-1.0105155691679400e+01 -1.0330311393048319e+00 +2.2924842591008345e+00 +1.9659678713329164e+01 -2.7343915942816750e+01 +2.4827011425389443e+04 +1.0759796006732211e+06 -1.3359544405416110e+08 
