# field on trajectory
# s[mm] rx[mm] ry[mm] rz[mm] bx[T] by[T] bz[T]
0.0000000000000000e+00 +9.1076201166355002e+00 +0.0000000000000000e+00 +0.0000000000000000e+00 +1.1071679246690525e-02 -1.0320502917603600e+00 -5.8424437025470920e-02
1.0005104645227200e-01 +9.1076196006322601e+00 +0.0000000000000000e+00 +1.0005104645049701e-01 +1.1071506501373118e-02 -1.0320544138247660e+00 -5.8422419930535194e-02
2.0010209290454301e-01 +9.1076180526189905e+00 +0.0000000000000000e+00 +2.0010209289035000e-01 +1.1071319477587410e-02 -1.0320585666875257e+00 -5.8420417699162903e-02
3.0015313935681498e-01 +9.1076154725992300e+00 +0.0000000000000000e+00 +3.0015313930891202e-01 +1.1071116189093913e-02 -1.0320627527288271e+00 -5.8418430481271433e-02
4.0020418580908601e-01 +9.1076118605712200e+00 +0.0000000000000000e+00 +4.0020418569554000e-01 +1.1070894649700071e-02 -1.0320669743291400e+00 -5.8416458426750507e-02
5.0025523226135804e-01 +9.1076072165331805e+00 +0.0000000000000000e+00 +5.0025523203958799e-01 +1.1070652873266735e-02 -1.0320712338692033e+00 -5.8414501685463235e-02
6.0030627871362996e-01 +9.1076015404886608e+00 +0.0000000000000000e+00 +6.0030627833041095e-01 +1.1070389532100185e-02 -1.0320755336430489e+00 -5.8412560671604781e-02
7.0035732516590099e-01 +9.1075948324376501e+00 +0.0000000000000000e+00 +7.0035732455736299e-01 +1.1070105912024753e-02 -1.0320798755996987e+00 -5.8410636848720041e-02
8.0040837161817302e-01 +9.1075870923766207e+00 +0.0000000000000000e+00 +8.0040837070980198e-01 +1.1069803947280474e-02 -1.0320842616026125e+00 -5.8408731940691648e-02
9.0045941807044405e-01 +9.1075783203073204e+00 +0.0000000000000000e+00 +9.0045941677707997e-01 +1.1069485572127292e-02 -1.0320886935152420e+00 -5.8406847671406012e-02
1.0005104645227201e+00 +9.1075685162297706e+00 +0.0000000000000000e+00 +1.0005104627485499e+00 +1.1069152720836719e-02 -1.0320931732009755e+00 -5.8404985764761691e-02
1.1005615109749900e+00 +9.1075576801457405e+00 +0.0000000000000000e+00 +1.1005615086135800e+00 +1.1068807327683441e-02 -1.0320977025230640e+00 -5.8403147944676756e-02
1.2006125574272599e+00 +9.1075458120516792e+00 +0.0000000000000000e+00 +1.2006125543615100e+00 +1.1068451326937019e-02 -1.0321022833445708e+00 -5.8401335935097221e-02
1.3006636038795301e+00 +9.1075329119511395e+00 +0.0000000000000000e+00 +1.3006635999817000e+00 +1.1068086652853418e-02 -1.0321069175282744e+00 -5.8399551460003390e-02
1.4007146503318000e+00 +9.1075189798405596e+00 +0.0000000000000000e+00 +1.4007146454635000e+00 +1.1067715239666759e-02 -1.0321116069366332e+00 -5.8397796243419113e-02
1.5007656967840699e+00 +9.1075040157234994e+00 +0.0000000000000000e+00 +1.5007656907962801e+00 +1.1067339021580856e-02 -1.0321163534316886e+00 -5.8396072009417987e-02
1.6008167432363500e+00 +9.1074880195981898e+00 +0.0000000000000000e+00 +1.6008167359693799e+00 +1.1066959932760927e-02 -1.0321211588750221e+00 -5.8394380482132288e-02
1.7008677896886200e+00 +9.1074709914646199e+00 +0.0000000000000000e+00 +1.7008677809721600e+00 +1.1066579907325170e-02 -1.0321260251276749e+00 -5.8392723385760015e-02
1.8009188361408901e+00 +9.1074529313228005e+00 +0.0000000000000000e+00 +1.8009188257939699e+00 +1.1066200879336437e-02 -1.0321309540500820e+00 -5.8391102444572643e-02
1.9009698825931600e+00 +9.1074338391727103e+00 +0.0000000000000000e+00 +1.9009698704241800e+00 +1.1065824782793852e-02 -1.0321359475020064e+00 -5.8389519382922986e-02
2.0010209290454299e+00 +9.1074137150161505e+00 +0.0000000000000000e+00 +2.0010209148521301e+00 +1.1065453551624438e-02 -1.0321410073424679e+00 -5.8387975925252557e-02
2.1010719754977001e+00 +9.1073925588495506e+00 +0.0000000000000000e+00 +2.1010719590671898e+00 +1.1065089119674789e-02 -1.0321461354296897e+00 -5.8386473796100062e-02
2.2011230219499698e+00 +9.1073703706746993e+00 +0.0000000000000000e+00 +2.2011230030586999e+00 +1.1064733420702650e-02 -1.0321513336210102e+00 -5.8385014720108076e-02
2.3011740684022501e+00 +9.1073471504933696e+00 +0.0000000000000000e+00 +2.3011740468160200e+00 +1.1064388388368573e-02 -1.0321566037728240e+00 -5.8383600422031091e-02
2.4012251148545198e+00 +9.1073228983037797e+00 +0.0000000000000000e+00 +2.4012250903285000e+00 +1.1064055956227576e-02 -1.0321619477405251e+00 -5.8382232626743739e-02
2.5012761613067900e+00 +9.1072976141041497e+00 +0.0000000000000000e+00 +2.5012761335854998e+00 +1.1063738057719711e-02 -1.0321673673784293e+00 -5.8380913059247148e-02
2.6013272077590601e+00 +9.1072712978980501e+00 +0.0000000000000000e+00 +2.6013271765763899e+00 +1.1063436105587418e-02 -1.0321728640877197e+00 -5.8379642987892007e-02
2.7013782542113298e+00 +9.1072439496836903e+00 +0.0000000000000000e+00 +2.7013782192905000e+00 +1.1063149508356537e-02 -1.0321784375286045e+00 -5.8378421922569819e-02
2.8014293006636000e+00 +9.1072155694610704e+00 +0.0000000000000000e+00 +2.8014292617172001e+00 +1.1062877192351338e-02 -1.0321840869421153e+00 -5.8377248950066372e-02
2.9014803471158799e+00 +9.1071861572302009e+00 +0.0000000000000000e+00 +2.9014803038458301e+00 +1.1062618083939046e-02 -1.0321898115688610e+00 -5.8376123157181541e-02
3.0015313935681500e+00 +9.1071557129910694e+00 +0.0000000000000000e+00 +3.0015313456657702e+00 +1.1062371109537341e-02 -1.0321956106490384e+00 -5.8375043630725029e-02
3.1015824400204202e+00 +9.1071242367454595e+00 +0.0000000000000000e+00 +3.1015823871663502e+00 +1.1062135195621834e-02 -1.0322014834224356e+00 -5.8374009457511755e-02
3.2016334864726899e+00 +9.1070917284915893e+00 +0.0000000000000000e+00 +3.2016334283369399e+00 +1.1061909268733561e-02 -1.0322074291284564e+00 -5.8373019724358197e-02
3.3016845329249600e+00 +9.1070581882277004e+00 +0.0000000000000000e+00 +3.3016844691668901e+00 +1.1061692255486460e-02 -1.0322134470061182e+00 -5.8372073518077668e-02
3.4017355793772301e+00 +9.1070236159573206e+00 +0.0000000000000000e+00 +3.4017355096455599e+00 +1.1061483082574833e-02 -1.0322195362940549e+00 -5.8371169925475523e-02
3.5017866258295101e+00 +9.1069880116786806e+00 +0.0000000000000000e+00 +3.5017865497623002e+00 +1.1061280676780881e-02 -1.0322256962305443e+00 -5.8370308033345863e-02
3.6018376722817802e+00 +9.1069513753917892e+00 +0.0000000000000000e+00 +3.6018375895064700e+00 +1.1061083964982147e-02 -1.0322319260535058e+00 -5.8369486928466559e-02
3.7018887187340499e+00 +9.1069137070966395e+00 +0.0000000000000000e+00 +3.7018886288674100e+00 +1.1060891874159018e-02 -1.0322382250005127e+00 -5.8368705697595148e-02
3.8019397651863200e+00 +9.1068750067950095e+00 +0.0000000000000000e+00 +3.8019396678344899e+00 +1.1060703331402182e-02 -1.0322445923087964e+00 -5.8367963427464267e-02
3.9019908116385902e+00 +9.1068352744833394e+00 +0.0000000000000000e+00 +3.9019907063970600e+00 +1.1060517263920178e-02 -1.0322510272152747e+00 -5.8367259204778157e-02
4.0020418580908599e+00 +9.1067945101634198e+00 +0.0000000000000000e+00 +4.0020417445444796e+00 +1.1060332599046799e-02 -1.0322575289565339e+00 -5.8366592116207261e-02
4.1020929045431300e+00 +9.1067527138370199e+00 +0.0000000000000000e+00 +4.1020927822660997e+00 +1.1060148264248611e-02 -1.0322640967688537e+00 -5.8365961248384411e-02
4.2021439509954099e+00 +9.1067098855023705e+00 +0.0000000000000000e+00 +4.2021438195512797e+00 +1.1059963187132463e-02 -1.0322707298882219e+00 -5.8365365687900954e-02
4.3021949974476801e+00 +9.1066660251594502e+00 +0.0000000000000000e+00 +4.3021948563893604e+00 +1.1059776295452933e-02 -1.0322774275503337e+00 -5.8364804521301841e-02
4.4022460438999502e+00 +9.1066211328065094e+00 +0.0000000000000000e+00 +4.4022458927697201e+00 +1.1059586517119831e-02 -1.0322841889906071e+00 -5.8364276835081774e-02
4.5022970903522204e+00 +9.1065752084488594e+00 +0.0000000000000000e+00 +4.5022969286816901e+00 +1.1059392780209091e-02 -1.0322910134441727e+00 -5.8363781715682850e-02
4.6023481368044896e+00 +9.1065282520811692e+00 +0.0000000000000000e+00 +4.6023479641146396e+00 +1.1059194317638125e-02 -1.0322978998205128e+00 -5.8363318502124194e-02
4.7023991832567598e+00 +9.1064802637070095e+00 +0.0000000000000000e+00 +4.7023989990579196e+00 +1.1058991500028597e-02 -1.0323048458138693e+00 -5.8362887476689017e-02
4.8024502297090397e+00 +9.1064312433245895e+00 +0.0000000000000000e+00 +4.8024500335008904e+00 +1.1058784963392359e-02 -1.0323118488349456e+00 -5.8362489141735356e-02
4.9025012761613098e+00 +9.1063811909321402e+00 +0.0000000000000000e+00 +4.9025010674329002e+00 +1.1058575343630658e-02 -1.0323189062944771e+00 -5.8362123999561831e-02
5.0025523226135800e+00 +9.1063301065332105e+00 +0.0000000000000000e+00 +5.0025521008432996e+00 +1.1058363276526475e-02 -1.0323260156032412e+00 -5.8361792552403743e-02
5.1026033690658501e+00 +9.1062779901260207e+00 +0.0000000000000000e+00 +5.1026031337214599e+00 +1.1058149397736906e-02 -1.0323331741721051e+00 -5.8361495302430073e-02
5.2026544155181202e+00 +9.1062248417123506e+00 +0.0000000000000000e+00 +5.2026541660567203e+00 +1.1057934342785446e-02 -1.0323403794120267e+00 -5.8361232751739267e-02
5.3027054619703904e+00 +9.1061706612886404e+00 +0.0000000000000000e+00 +5.3027051978384501e+00 +1.1057718747054378e-02 -1.0323476287340987e+00 -5.8361005402356253e-02
5.4027565084226703e+00 +9.1061154488584606e+00 +0.0000000000000000e+00 +5.4027562290559903e+00 +1.1057503245777056e-02 -1.0323549195495429e+00 -5.8360813756227599e-02
5.5028075548749404e+00 +9.1060592044200206e+00 +0.0000000000000000e+00 +5.5028072596986997e+00 +1.1057288474030284e-02 -1.0323622492697613e+00 -5.8360658315219076e-02
5.6028586013272097e+00 +9.1060019279733204e+00 +0.0000000000000000e+00 +5.6028582897559396e+00 +1.1057075066726634e-02 -1.0323696153063402e+00 -5.8360539581111287e-02
5.7029096477794798e+00 +9.1059436195183707e+00 +0.0000000000000000e+00 +5.7029093192170599e+00 +1.1056863658606784e-02 -1.0323770150710805e+00 -5.8360458055596073e-02
5.8029606942317500e+00 +9.1058842790551608e+00 +0.0000000000000000e+00 +5.8029603480714202e+00 +1.1056654884231859e-02 -1.0323844459760174e+00 -5.8360414240273030e-02
5.9030117406840201e+00 +9.1058239065854707e+00 +0.0000000000000000e+00 +5.9030113763083696e+00 +1.1056449377975773e-02 -1.0323919054334405e+00 -5.8360408636645440e-02
6.0030627871363000e+00 +9.1057625021075204e+00 +0.0000000000000000e+00 +6.0030624039172604e+00 +1.1056247774017562e-02 -1.0323993908559281e+00 -5.8360441746117313e-02
6.1031138335885702e+00 +9.1057000656213205e+00 +0.0000000000000000e+00 +6.1031134308874604e+00 +1.1056050706333746e-02 -1.0324068996563565e+00 -5.8360514069989038e-02
6.2031648800408403e+00 +9.1056365971268605e+00 +0.0000000000000000e+00 +6.2031644572083096e+00 +1.1055858808690625e-02 -1.0324144292479285e+00 -5.8360626109453979e-02
6.3032159264931096e+00 +9.1055720966241402e+00 +0.0000000000000000e+00 +6.3032154828691800e+00 +1.1055672714636660e-02 -1.0324219770441947e+00 -5.8360778365594737e-02
6.4032669729453797e+00 +9.1055065641149504e+00 +0.0000000000000000e+00 +6.4032665078594100e+00 +1.1055493057494771e-02 -1.0324295404590733e+00 -5.8360971339379369e-02
6.5033180193976499e+00 +9.1054399995957205e+00 +0.0000000000000000e+00 +6.5033175321683601e+00 +1.1055320470347949e-02 -1.0324371169068762e+00 -5.8361205531657002e-02
6.6033690658499298e+00 +9.1053724030699996e+00 +0.0000000000000000e+00 +6.6033685557853898e+00 +1.1055155380239264e-02 -1.0324447035007249e+00 -5.8361481403758436e-02
6.7034201123021999e+00 +9.1053037745378091e+00 +0.0000000000000000e+00 +6.7034195786998501e+00 +1.1054997468744426e-02 -1.0324522962618694e+00 -5.8361799274286828e-02
6.8034711587544701e+00 +9.1052341139955892e+00 +0.0000000000000000e+00 +6.8034706009011003e+00 +1.1054846248830985e-02 -1.0324598909647122e+00 -5.8362159429634873e-02
6.9035222052067402e+00 +9.1051634214468908e+00 +0.0000000000000000e+00 +6.9035216223784897e+00 +1.1054701233570335e-02 -1.0324674833839904e+00 -5.8362562156295032e-02
7.0035732516590103e+00 +9.1050916968899305e+00 +0.0000000000000000e+00 +7.0035726431213803e+00 +1.1054561936143265e-02 -1.0324750692948201e+00 -5.8363007740865516e-02
7.1036242981112796e+00 +9.1050189403247099e+00 +0.0000000000000000e+00 +7.1036236631191203e+00 +1.1054427869845382e-02 -1.0324826444727015e+00 -5.8363496470054219e-02
7.2036753445635497e+00 +9.1049451517530091e+00 +0.0000000000000000e+00 +7.2036746823610702e+00 +1.1054298548092544e-02 -1.0324902046935327e+00 -5.8364028630683323e-02
7.3037263910158297e+00 +9.1048703311712806e+00 +0.0000000000000000e+00 +7.3037257008365799e+00 +1.1054173484426387e-02 -1.0324977457336473e+00 -5.8364604509694731e-02
7.4037774374680998e+00 +9.1047944785830701e+00 +0.0000000000000000e+00 +7.4037767185350001e+00 +1.1054052192519693e-02 -1.0325052633698044e+00 -5.8365224394153384e-02
7.5038284839203699e+00 +9.1047175939865994e+00 +0.0000000000000000e+00 +7.5038277354457001e+00 +1.1053934186181910e-02 -1.0325127533792315e+00 -5.8365888571253320e-02
7.6038795303726401e+00 +9.1046396773836609e+00 +0.0000000000000000e+00 +7.6038787515580202e+00 +1.1053818979364595e-02 -1.0325202115396284e+00 -5.8366597328321251e-02
7.7039305768249102e+00 +9.1045607287706805e+00 +0.0000000000000000e+00 +7.7039297668613296e+00 +1.1053706086166884e-02 -1.0325276336291989e+00 -5.8367350952822215e-02
7.8039816232771804e+00 +9.1044807481512198e+00 +0.0000000000000000e+00 +7.8039807813449800e+00 +1.1053595020840898e-02 -1.0325350154266466e+00 -5.8368149732362998e-02
7.9040326697294496e+00 +9.1043997355235007e+00 +0.0000000000000000e+00 +7.9040317949983097e+00 +1.1053485297797256e-02 -1.0325423527112183e+00 -5.8368993954698016e-02
8.0040837161817304e+00 +9.1043176908892995e+00 +0.0000000000000000e+00 +8.0040828078106898e+00 +1.1053376431610504e-02 -1.0325496412627044e+00 -5.8369883907733018e-02
8.1041347626340006e+00 +9.1042346142468507e+00 +0.0000000000000000e+00 +8.1041338197714801e+00 +1.1053267937024581e-02 -1.0325568768614699e+00 -5.8370819879530536e-02
8.2041858090862707e+00 +9.1041505055961398e+00 +0.0000000000000000e+00 +8.2041848308700196e+00 +1.1053159328958277e-02 -1.0325640552884638e+00 -5.8371802158313980e-02
8.3042368555385409e+00 +9.1040653649371706e+00 +0.0000000000000000e+00 +8.3042358410956805e+00 +1.1053050122510682e-02 -1.0325711723252413e+00 -5.8372831032472490e-02
8.4042879019908092e+00 +9.1039791922699393e+00 +0.0000000000000000e+00 +8.4042868504377992e+00 +1.1052939832966626e-02 -1.0325782237539807e+00 -5.8373906790565505e-02
8.5043389484430794e+00 +9.1038919875980202e+00 +0.0000000000000000e+00 +8.5043378588857408e+00 +1.1052827975805439e-02 -1.0325852053573854e+00 -5.8375029721312352e-02
8.6043899948953602e+00 +9.1038037509160592e+00 +0.0000000000000000e+00 +8.6043888664288701e+00 +1.1052714112696231e-02 -1.0325921113818879e+00 -5.8376199906817590e-02
8.7044410413476303e+00 +9.1037144822276108e+00 +0.0000000000000000e+00 +8.7044398730565202e+00 +1.1052597967019427e-02 -1.0325989306766752e+00 -5.8377416702832051e-02
8.8044920877999004e+00 +9.1036241815309200e+00 +0.0000000000000000e+00 +8.8044908787580596e+00 +1.1052479297646878e-02 -1.0326056509105974e+00 -5.8378679305714616e-02
8.9045431342521706e+00 +9.1035328488259601e+00 +0.0000000000000000e+00 +8.9045418835228496e+00 +1.1052357863465666e-02 -1.0326122597576515e+00 -5.8379986911869242e-02
9.0045941807044407e+00 +9.1034404841127508e+00 +0.0000000000000000e+00 +9.0045928873402303e+00 +1.1052233423378084e-02 -1.0326187448971242e+00 -5.8381338717745743e-02
9.1046452271567109e+00 +9.1033470873930593e+00 +0.0000000000000000e+00 +9.1046438901995597e+00 +1.1052105736301615e-02 -1.0326250940137323e+00 -5.8382733919840057e-02
9.2046962736089899e+00 +9.1032526586651095e+00 +0.0000000000000000e+00 +9.2046948920902096e+00 +1.1051974561168923e-02 -1.0326312947977776e+00 -5.8384171714695385e-02
9.3047473200612600e+00 +9.1031571979306793e+00 +0.0000000000000000e+00 +9.3047458930015097e+00 +1.1051839656927786e-02 -1.0326373349452704e+00 -5.8385651298902039e-02
9.4047983665135302e+00 +9.1030607051879997e+00 +0.0000000000000000e+00 +9.4047968929228301e+00 +1.1051700782541101e-02 -1.0326432021580894e+00 -5.8387171869098545e-02
9.5048494129658003e+00 +9.1029631804370599e+00 +0.0000000000000000e+00 +9.5048478918435304e+00 +1.1051557696986843e-02 -1.0326488841441117e+00 -5.8388732621971813e-02
9.6049004594180705e+00 +9.1028646236796291e+00 +0.0000000000000000e+00 +9.6048988897529508e+00 +1.1051410159258019e-02 -1.0326543686173559e+00 -5.8390332754257576e-02
9.7049515058703406e+00 +9.1027650349139595e+00 +0.0000000000000000e+00 +9.7049498866404598e+00 +1.1051257928362675e-02 -1.0326596432981334e+00 -5.8391971462741415e-02
9.8050025523226108e+00 +9.1026644141418007e+00 +0.0000000000000000e+00 +9.8050008824953991e+00 +1.1051100763323852e-02 -1.0326646959131796e+00 -5.8393647944258727e-02
9.9050535987748898e+00 +9.1025627613596107e+00 +0.0000000000000000e+00 +9.9050518773071392e+00 +1.1050938423179583e-02 -1.0326695141958122e+00 -5.8395361395696017e-02
1.0005104645227201e+01 +9.1024600765709298e+00 +0.0000000000000000e+00 +1.0005102871065001e+01 +1.1050770666982786e-02 -1.0326740858860484e+00 -5.8397111013990206e-02
1.0105155691679400e+01 +9.1023563597757793e+00 +0.0000000000000000e+00 +1.0105153863758400e+01 +1.1050597253801338e-02 -1.0326783987307704e+00 -5.8398895996130275e-02
1.0205206738131700e+01 +9.1022516109723703e+00 +0.0000000000000000e+00 +1.0205204855376600e+01 +1.1050417942718008e-02 -1.0326824404838639e+00 -5.8400715539157599e-02
1.0305257784584001e+01 +9.1021458301607101e+00 +0.0000000000000000e+00 +1.0305255845909100e+01 +1.1050232492830414e-02 -1.0326861989063534e+00 -5.8402568840166098e-02
1.0405308831036200e+01 +9.1020390173425607e+00 +0.0000000000000000e+00 +1.0405306835345099e+01 +1.1050040663251017e-02 -1.0326896617665460e+00 -5.8404455096302828e-02
1.0505359877488500e+01 +9.1019311725161600e+00 +0.0000000000000000e+00 +1.0505357823674100e+01 +1.1049842213134079e-02 -1.0326928168410032e+00 -5.8406373504793364e-02
1.0605410923940800e+01 +9.1018222956832808e+00 +0.0000000000000000e+00 +1.0605408810885301e+01 +1.1049637107043285e-02 -1.0326956581615281e+00 -5.8408323448614435e-02
1.0705461970393101e+01 +9.1017123868421397e+00 +0.0000000000000000e+00 +1.0705459796968199e+01 +1.1049426009505777e-02 -1.0326982010544012e+00 -5.8410304943530174e-02
1.0805513016845300e+01 +9.1016014459927401e+00 +0.0000000000000000e+00 +1.0805510781912000e+01 +1.1049209733953805e-02 -1.0327004653716902e+00 -5.8412318139734548e-02
1.0905564063297600e+01 +9.1014894731368603e+00 +0.0000000000000000e+00 +1.0905561765706199e+01 +1.1048989093730359e-02 -1.0327024709582089e+00 -5.8414363187122814e-02
1.1005615109749900e+01 +9.1013764682745109e+00 +0.0000000000000000e+00 +1.1005612748340100e+01 +1.1048764902086778e-02 -1.0327042376513147e+00 -5.8416440235284244e-02
1.1105666156202100e+01 +9.1012624314038906e+00 +0.0000000000000000e+00 +1.1105663729803000e+01 +1.1048537972180394e-02 -1.0327057852807084e+00 -5.8418549433494678e-02
1.1205717202654400e+01 +9.1011473625250208e+00 +0.0000000000000000e+00 +1.1205714710084401e+01 +1.1048309117072080e-02 -1.0327071336682123e+00 -5.8420690930708639e-02
1.1305768249106700e+01 +9.1010312616396707e+00 +0.0000000000000000e+00 +1.1305765689173500e+01 +1.1048079149723854e-02 -1.0327083026275716e+00 -5.8422864875551740e-02
1.1405819295559001e+01 +9.1009141287460693e+00 +0.0000000000000000e+00 +1.1405816667059700e+01 +1.1047848882996543e-02 -1.0327093119642559e+00 -5.8425071416313784e-02
1.1505870342011200e+01 +9.1007959638459806e+00 +0.0000000000000000e+00 +1.1505867643732399e+01 +1.1047619129647322e-02 -1.0327101814752375e+00 -5.8427310700940399e-02
1.1605921388463500e+01 +9.1006767669376405e+00 +0.0000000000000000e+00 +1.1605918619181001e+01 +1.1047390702327365e-02 -1.0327109309488012e+00 -5.8429582877026390e-02
1.1705972434915800e+01 +9.1005565380228095e+00 +0.0000000000000000e+00 +1.1705969593394700e+01 +1.1047164413579400e-02 -1.0327115801643214e+00 -5.8431888091807292e-02
1.1806023481367999e+01 +9.1004352770997308e+00 +0.0000000000000000e+00 +1.1806020566362900e+01 +1.1046941075835363e-02 -1.0327121488920725e+00 -5.8434226492152776e-02
