# field on trajectory
# s[mm] rx[mm] ry[mm] rz[mm] bx[T] by[T] bz[T]
0.0000000000000000e+00 +9.1047999999999991e+00 +0.0000000000000000e+00 +0.0000000000000000e+00 +1.1393486693930213e-02 -1.0330197960069034e+00 -5.9012292337557851e-02
1.0000000000000001e-01 +9.1047994838480406e+00 +0.0000000000000000e+00 +9.9999999998223912e-02 +1.1393218615979750e-02 -1.0330160122375411e+00 -5.9013198612905160e-02
2.0000000000000001e-01 +9.1047979353946893e+00 +0.0000000000000000e+00 +1.9999999998579138e-01 +1.1392942349176234e-02 -1.0330121990607481e+00 -5.9014086702935370e-02
3.0000000000000004e-01 +9.1047953546437572e+00 +0.0000000000000000e+00 +2.9999999995204601e-01 +1.1392657428837903e-02 -1.0330083543433259e+00 -5.9014955629982539e-02
4.0000000000000002e-01 +9.1047917415990849e+00 +0.0000000000000000e+00 +3.9999999988633156e-01 +1.1392363390318343e-02 -1.0330044759518058e+00 -5.9015804416357086e-02
5.0000000000000000e-01 +9.1047870962645501e+00 +0.0000000000000000e+00 +4.9999999977799187e-01 +1.1392059769013023e-02 -1.0330005617524731e+00 -5.9016632084346890e-02
5.9999999999999998e-01 +9.1047814186440661e+00 +0.0000000000000000e+00 +5.9999999961637096e-01 +1.1391746394764346e-02 -1.0329966102866801e+00 -5.9017437978260159e-02
6.9999999999999996e-01 +9.1047747087415800e+00 +0.0000000000000000e+00 +6.9999999939081303e-01 +1.1391424275052754e-02 -1.0329926227967623e+00 -5.9018222730555424e-02
7.9999999999999993e-01 +9.1047669665610780e+00 +0.0000000000000000e+00 +7.9999999909066222e-01 +1.1391094711782778e-02 -1.0329886012002516e+00 -5.9018987295723219e-02
8.9999999999999991e-01 +9.1047581921065799e+00 +0.0000000000000000e+00 +8.9999999870526293e-01 +1.1390759006876333e-02 -1.0329845474146524e+00 -5.9019732628249125e-02
9.9999999999999989e-01 +9.1047483853821358e+00 +0.0000000000000000e+00 +9.9999999822395969e-01 +1.1390418462266580e-02 -1.0329804633574922e+00 -5.9020459682618209e-02
1.0999999999999999e+00 +9.1047375463918296e+00 +0.0000000000000000e+00 +1.0999999976360972e+00 +1.1390074379891795e-02 -1.0329763509463772e+00 -5.9021169413319433e-02
1.2000000000000000e+00 +9.1047256751397718e+00 +0.0000000000000000e+00 +1.1999999969310202e+00 +1.1389728061689225e-02 -1.0329722120990432e+00 -5.9021862774850012e-02
1.3000000000000000e+00 +9.1047127716300977e+00 +0.0000000000000000e+00 +1.2999999960980735e+00 +1.1389380809588991e-02 -1.0329680487334159e+00 -5.9022540721719891e-02
1.4000000000000001e+00 +9.1046988358669712e+00 +0.0000000000000000e+00 +1.3999999951266020e+00 +1.1389033925507924e-02 -1.0329638627676572e+00 -5.9023204208456186e-02
1.5000000000000002e+00 +9.1046838678545754e+00 +0.0000000000000000e+00 +1.4999999940059510e+00 +1.1388688711343452e-02 -1.0329596561202250e+00 -5.9023854189607421e-02
1.6000000000000003e+00 +9.1046678675971169e+00 +0.0000000000000000e+00 +1.5999999927254658e+00 +1.1388346468967485e-02 -1.0329554307099245e+00 -5.9024491619748209e-02
1.7000000000000004e+00 +9.1046508350988180e+00 +0.0000000000000000e+00 +1.6999999912744919e+00 +1.1388008500220250e-02 -1.0329511884559623e+00 -5.9025117453483412e-02
1.8000000000000005e+00 +9.1046327703639207e+00 +0.0000000000000000e+00 +1.7999999896423746e+00 +1.1387676106904191e-02 -1.0329469312780009e+00 -5.9025732645452751e-02
1.9000000000000006e+00 +9.1046136733966812e+00 +0.0000000000000000e+00 +1.8999999878184599e+00 +1.1387350590777827e-02 -1.0329426610962118e+00 -5.9026338150335041e-02
2.0000000000000004e+00 +9.1045935442013679e+00 +0.0000000000000000e+00 +1.9999999857920934e+00 +1.1387033253549613e-02 -1.0329383798313319e+00 -5.9026934922852763e-02
2.1000000000000005e+00 +9.1045723827822602e+00 +0.0000000000000000e+00 +2.0999999835526211e+00 +1.1386725396871829e-02 -1.0329340894047121e+00 -5.9027523917776416e-02
2.2000000000000006e+00 +9.1045501891436498e+00 +0.0000000000000000e+00 +2.1999999810893893e+00 +1.1386428322334425e-02 -1.0329297917383797e+00 -5.9028106089928901e-02
2.3000000000000007e+00 +9.1045269632898318e+00 +0.0000000000000000e+00 +2.2999999783917437e+00 +1.1386143331458909e-02 -1.0329254887550827e+00 -5.9028682394189950e-02
2.4000000000000008e+00 +9.1045027052251086e+00 +0.0000000000000000e+00 +2.3999999754490311e+00 +1.1385871725692205e-02 -1.0329211823783515e+00 -5.9029253785500627e-02
2.5000000000000009e+00 +9.1044774149537879e+00 +0.0000000000000000e+00 +2.4999999722505981e+00 +1.1385614806400516e-02 -1.0329168745325492e+00 -5.9029821218867580e-02
2.6000000000000010e+00 +9.1044510924801756e+00 +0.0000000000000000e+00 +2.5999999687857911e+00 +1.1385373434692390e-02 -1.0329125666005665e+00 -5.9030385236794061e-02
2.7000000000000011e+00 +9.1044237378085793e+00 +0.0000000000000000e+00 +2.6999999650439568e+00 +1.1385146710940973e-02 -1.0329082577963409e+00 -5.9030944731554374e-02
2.8000000000000012e+00 +9.1043953509433084e+00 +0.0000000000000000e+00 +2.7999999610144424e+00 +1.1384933295370358e-02 -1.0329039467911234e+00 -5.9031498182903923e-02
2.9000000000000012e+00 +9.1043659318886743e+00 +0.0000000000000000e+00 +2.8999999566865946e+00 +1.1384731848242928e-02 -1.0328996322556543e+00 -5.9032044070653593e-02
3.0000000000000013e+00 +9.1043354806489916e+00 +0.0000000000000000e+00 +2.9999999520497607e+00 +1.1384541029865181e-02 -1.0328953128600866e+00 -5.9032580874671829e-02
3.1000000000000014e+00 +9.1043039972285804e+00 +0.0000000000000000e+00 +3.0999999470932877e+00 +1.1384359500593563e-02 -1.0328909872739109e+00 -5.9033107074886730e-02
3.2000000000000015e+00 +9.1042714816317662e+00 +0.0000000000000000e+00 +3.1999999418065235e+00 +1.1384185920840289e-02 -1.0328866541658783e+00 -5.9033621151288171e-02
3.3000000000000016e+00 +9.1042379338628816e+00 +0.0000000000000000e+00 +3.2999999361788155e+00 +1.1384018951079196e-02 -1.0328823122039250e+00 -5.9034121583929892e-02
3.4000000000000017e+00 +9.1042033539262714e+00 +0.0000000000000000e+00 +3.3999999301995114e+00 +1.1383857251851537e-02 -1.0328779600550975e+00 -5.9034606852931479e-02
3.5000000000000018e+00 +9.1041677418262879e+00 +0.0000000000000000e+00 +3.4999999238579589e+00 +1.1383699483771830e-02 -1.0328735963854723e+00 -5.9035075438480598e-02
3.6000000000000019e+00 +9.1041310975672953e+00 +0.0000000000000000e+00 +3.5999999171435064e+00 +1.1383544307533713e-02 -1.0328692198600855e+00 -5.9035525820834989e-02
3.7000000000000020e+00 +9.1040934211536708e+00 +0.0000000000000000e+00 +3.6999999100455017e+00 +1.1383390383915724e-02 -1.0328648291428537e+00 -5.9035956480324649e-02
3.8000000000000020e+00 +9.1040547125898055e+00 +0.0000000000000000e+00 +3.7999999025532931e+00 +1.1383236373787183e-02 -1.0328604228964970e+00 -5.9036365897353796e-02
3.9000000000000021e+00 +9.1040149718801082e+00 +0.0000000000000000e+00 +3.8999998946562289e+00 +1.1383080938113972e-02 -1.0328559997824660e+00 -5.9036752552403024e-02
4.0000000000000018e+00 +9.1039741990290040e+00 +0.0000000000000000e+00 +3.9999998863436579e+00 +1.1382922737964440e-02 -1.0328515584608635e+00 -5.9037114926031482e-02
4.1000000000000014e+00 +9.1039323940409336e+00 +0.0000000000000000e+00 +4.0999998776049287e+00 +1.1382760434515148e-02 -1.0328470975903703e+00 -5.9037451498878721e-02
4.2000000000000011e+00 +9.1038895569203611e+00 +0.0000000000000000e+00 +4.1999998684293898e+00 +1.1382592689056774e-02 -1.0328426158281656e+00 -5.9037760751667057e-02
4.3000000000000007e+00 +9.1038456876717682e+00 +0.0000000000000000e+00 +4.2999998588063910e+00 +1.1382418162999914e-02 -1.0328381118298562e+00 -5.9038041165203461e-02
4.4000000000000004e+00 +9.1038007862996615e+00 +0.0000000000000000e+00 +4.3999998487252805e+00 +1.1382235517880932e-02 -1.0328335842493972e+00 -5.9038291220381726e-02
4.5000000000000000e+00 +9.1037548528085708e+00 +0.0000000000000000e+00 +4.4999998381754081e+00 +1.1382043415367768e-02 -1.0328290317390165e+00 -5.9038509398184551e-02
4.5999999999999996e+00 +9.1037078872030506e+00 +0.0000000000000000e+00 +4.5999998271461227e+00 +1.1381840923342244e-02 -1.0328244540334142e+00 -5.9038694400360463e-02
4.6999999999999993e+00 +9.1036598894876786e+00 +0.0000000000000000e+00 +4.6999998156267750e+00 +1.1381628734053692e-02 -1.0328198552033208e+00 -5.9038845811408107e-02
4.7999999999999989e+00 +9.1036108596670555e+00 +0.0000000000000000e+00 +4.7999998036067142e+00 +1.1381407945728755e-02 -1.0328152404040161e+00 -5.9038963436466925e-02
4.8999999999999986e+00 +9.1035607977457982e+00 +0.0000000000000000e+00 +4.8999997910752899e+00 +1.1381179656460783e-02 -1.0328106147912890e+00 -5.9039047080623581e-02
4.9999999999999982e+00 +9.1035097037285340e+00 +0.0000000000000000e+00 +4.9999997780218521e+00 +1.1380944964201270e-02 -1.0328059835214833e+00 -5.9039096548906447e-02
5.0999999999999979e+00 +9.1034575776198956e+00 +0.0000000000000000e+00 +5.0999997644357515e+00 +1.1380704966751290e-02 -1.0328013517515513e+00 -5.9039111646280264e-02
5.1999999999999975e+00 +9.1034044194245176e+00 +0.0000000000000000e+00 +5.1999997503063380e+00 +1.1380460761752908e-02 -1.0327967246391039e+00 -5.9039092177640681e-02
5.2999999999999972e+00 +9.1033502291470292e+00 +0.0000000000000000e+00 +5.2999997356229622e+00 +1.1380213446680611e-02 -1.0327921073424631e+00 -5.9039037947808931e-02
5.3999999999999968e+00 +9.1032950067920488e+00 +0.0000000000000000e+00 +5.3999997203749750e+00 +1.1379964118832716e-02 -1.0327875050207083e+00 -5.9038948761526280e-02
5.4999999999999964e+00 +9.1032387523641809e+00 +0.0000000000000000e+00 +5.4999997045517270e+00 +1.1379713875322817e-02 -1.0327829228337315e+00 -5.9038824423448766e-02
5.5999999999999961e+00 +9.1031814658680101e+00 +0.0000000000000000e+00 +5.5999996881425691e+00 +1.1379463813071186e-02 -1.0327783659422871e+00 -5.9038664738141712e-02
5.6999999999999957e+00 +9.1031231473080965e+00 +0.0000000000000000e+00 +5.6999996711368519e+00 +1.1379215028796227e-02 -1.0327738395080399e+00 -5.9038469510074396e-02
5.7999999999999954e+00 +9.1030637966889696e+00 +0.0000000000000000e+00 +5.7999996535239262e+00 +1.1378968619005860e-02 -1.0327693486936209e+00 -5.9038238543614500e-02
5.8999999999999950e+00 +9.1030034140151219e+00 +0.0000000000000000e+00 +5.8999996352931445e+00 +1.1378725679988983e-02 -1.0327648986626718e+00 -5.9037971643022852e-02
5.9999999999999947e+00 +9.1029419992910068e+00 +0.0000000000000000e+00 +5.9999996164338576e+00 +1.1378487307806870e-02 -1.0327604945799016e+00 -5.9037668612447983e-02
6.0999999999999943e+00 +9.1028795525210313e+00 +0.0000000000000000e+00 +6.0999995969354162e+00 +1.1378254598284607e-02 -1.0327561416111319e+00 -5.9037329255920618e-02
6.1999999999999940e+00 +9.1028160737095529e+00 +0.0000000000000000e+00 +6.1999995767871727e+00 +1.1378028647002511e-02 -1.0327518449233530e+00 -5.9036953377348510e-02
6.2999999999999936e+00 +9.1027515628608704e+00 +0.0000000000000000e+00 +6.2999995559784789e+00 +1.1377810549287562e-02 -1.0327476096847701e+00 -5.9036540780510745e-02
6.3999999999999932e+00 +9.1026860199792221e+00 +0.0000000000000000e+00 +6.3999995344986864e+00 +1.1377601400204822e-02 -1.0327434410648568e+00 -5.9036091269052578e-02
6.4999999999999929e+00 +9.1026194450687807e+00 +0.0000000000000000e+00 +6.4999995123371468e+00 +1.1377402294548851e-02 -1.0327393442344033e+00 -5.9035604646479882e-02
6.5999999999999925e+00 +9.1025518381336479e+00 +0.0000000000000000e+00 +6.5999994894832117e+00 +1.1377213969074962e-02 -1.0327353222261670e+00 -5.9035080673977905e-02
6.6999999999999922e+00 +9.1024831991778488e+00 +0.0000000000000000e+00 +6.6999994659262336e+00 +1.1377035729355389e-02 -1.0327313695156659e+00 -5.9034518943908904e-02
6.7999999999999918e+00 +9.1024135282053429e+00 +0.0000000000000000e+00 +6.7999994416555651e+00 +1.1376866523361147e-02 -1.0327274784378235e+00 -5.9033919006395562e-02
6.8999999999999915e+00 +9.1023428252200258e+00 +0.0000000000000000e+00 +6.8999994166605578e+00 +1.1376705299283470e-02 -1.0327236413261558e+00 -5.9033280411504852e-02
6.9999999999999911e+00 +9.1022710902257398e+00 +0.0000000000000000e+00 +6.9999993909305633e+00 +1.1376551005544000e-02 -1.0327198505127160e+00 -5.9032602709246276e-02
7.0999999999999908e+00 +9.1021983232262826e+00 +0.0000000000000000e+00 +7.0999993644549351e+00 +1.1376402590804947e-02 -1.0327160983280406e+00 -5.9031885449570179e-02
7.1999999999999904e+00 +9.1021245242254114e+00 +0.0000000000000000e+00 +7.1999993372230247e+00 +1.1376259003979270e-02 -1.0327123771010955e+00 -5.9031128182366062e-02
7.2999999999999901e+00 +9.1020496932268529e+00 +0.0000000000000000e+00 +7.2999993092241855e+00 +1.1376119194240841e-02 -1.0327086791592242e+00 -5.9030330457461033e-02
7.3999999999999897e+00 +9.1019738302343125e+00 +0.0000000000000000e+00 +7.3999992804477692e+00 +1.1375982111034615e-02 -1.0327049968280901e+00 -5.9029491824617954e-02
7.4999999999999893e+00 +9.1018969352514780e+00 +0.0000000000000000e+00 +7.4999992508831292e+00 +1.1375846704086817e-02 -1.0327013224316266e+00 -5.9028611833533910e-02
7.5999999999999890e+00 +9.1018190082820301e+00 +0.0000000000000000e+00 +7.5999992205196181e+00 +1.1375711923415108e-02 -1.0326976482919821e+00 -5.9027690033838516e-02
7.6999999999999886e+00 +9.1017400493296492e+00 +0.0000000000000000e+00 +7.6999991893465891e+00 +1.1375576719338747e-02 -1.0326939667294646e+00 -5.9026725975092148e-02
7.7999999999999883e+00 +9.1016600583980232e+00 +0.0000000000000000e+00 +7.7999991573533949e+00 +1.1375440042488767e-02 -1.0326902700624896e+00 -5.9025719206784344e-02
7.8999999999999879e+00 +9.1015790354908557e+00 +0.0000000000000000e+00 +7.8999991245293888e+00 +1.1375300843818156e-02 -1.0326865506075262e+00 -5.9024669278332102e-02
7.9999999999999876e+00 +9.1014969806118717e+00 +0.0000000000000000e+00 +7.9999990908639234e+00 +1.1375158074612030e-02 -1.0326828006790432e+00 -5.9023575739078238e-02
8.0999999999999872e+00 +9.1014138937648301e+00 +0.0000000000000000e+00 +8.0999990563463538e+00 +1.1375010686497784e-02 -1.0326790125894552e+00 -5.9022438138289633e-02
8.1999999999999869e+00 +9.1013297749535234e+00 +0.0000000000000000e+00 +8.1999990209660325e+00 +1.1374857631455286e-02 -1.0326751786490687e+00 -5.9021256025155587e-02
8.2999999999999865e+00 +9.1012446241817937e+00 +0.0000000000000000e+00 +8.2999989847123121e+00 +1.1374697861827042e-02 -1.0326712911660287e+00 -5.9020028948786135e-02
8.3999999999999861e+00 +9.1011584414535367e+00 +0.0000000000000000e+00 +8.3999989475745487e+00 +1.1374530330328357e-02 -1.0326673424462658e+00 -5.9018756458210357e-02
8.4999999999999858e+00 +9.1010712267727065e+00 +0.0000000000000000e+00 +8.4999989095420947e+00 +1.1374353990057526e-02 -1.0326633247934398e+00 -5.9017438102374663e-02
8.5999999999999854e+00 +9.1009829801433284e+00 +0.0000000000000000e+00 +8.5999988706043062e+00 +1.1374168124545638e-02 -1.0326592334207996e+00 -5.9016073593780735e-02
8.6999999999999851e+00 +9.1008937015695004e+00 +0.0000000000000000e+00 +8.6999988307505358e+00 +1.1373973337733522e-02 -1.0326550751891217e+00 -5.9014663299453457e-02
8.7999999999999847e+00 +9.1008033910553845e+00 +0.0000000000000000e+00 +8.7999987899701395e+00 +1.1373770563491932e-02 -1.0326508598741195e+00 -5.9013207750062906e-02
8.8999999999999844e+00 +9.1007120486052031e+00 +0.0000000000000000e+00 +8.8999987482524716e+00 +1.1373560735505540e-02 -1.0326465972549139e+00 -5.9011707476282073e-02
8.9999999999999840e+00 +9.1006196742232248e+00 +0.0000000000000000e+00 +8.9999987055868864e+00 +1.1373344787266194e-02 -1.0326422971141469e+00 -5.9010163008788120e-02
9.0999999999999837e+00 +9.1005262679137555e+00 +0.0000000000000000e+00 +9.0999986619627400e+00 +1.1373123652066134e-02 -1.0326379692380898e+00 -5.9008574878262894e-02
9.1999999999999833e+00 +9.1004318296811295e+00 +0.0000000000000000e+00 +9.1999986173693866e+00 +1.1372898262991270e-02 -1.0326336234167515e+00 -5.9006943615394145e-02
9.2999999999999829e+00 +9.1003363595296989e+00 +0.0000000000000000e+00 +9.2999985717961842e+00 +1.1372669552914367e-02 -1.0326292694439922e+00 -5.9005269750876277e-02
9.3999999999999826e+00 +9.1002398574638246e+00 +0.0000000000000000e+00 +9.3999985252324869e+00 +1.1372438454488315e-02 -1.0326249171176276e+00 -5.9003553815411211e-02
9.4999999999999822e+00 +9.1001423234878640e+00 +0.0000000000000000e+00 +9.4999984776676492e+00 +1.1372205900139357e-02 -1.0326205762395446e+00 -5.9001796339709457e-02
9.5999999999999819e+00 +9.1000437576061657e+00 +0.0000000000000000e+00 +9.5999984290910287e+00 +1.1371972822060331e-02 -1.0326162566158059e+00 -5.8999997854490817e-02
9.6999999999999815e+00 +9.0999441598230568e+00 +0.0000000000000000e+00 +9.6999983794919800e+00 +1.1371740152203909e-02 -1.0326119680567654e+00 -5.8998158890485528e-02
9.7999999999999812e+00 +9.0998435301428309e+00 +0.0000000000000000e+00 +9.7999983288598607e+00 +1.1371508822275824e-02 -1.0326077203771722e+00 -5.8996279978434943e-02
9.8999999999999808e+00 +9.0997418685697422e+00 +0.0000000000000000e+00 +9.8999982771840269e+00 +1.1371279763728113e-02 -1.0326035233962831e+00 -5.8994361649092539e-02
9.9999999999999805e+00 +9.0996391751079972e+00 +0.0000000000000000e+00 +9.9999982244538348e+00 +1.1371053907752372e-02 -1.0325993869379746e+00 -5.8992404433224892e-02
1.0099999999999980e+01 +9.0995354497617384e+00 +0.0000000000000000e+00 +1.0099998170658639e+01 +1.1370832185272954e-02 -1.0325953208308487e+00 -5.8990408861612484e-02
1.0199999999999980e+01 +9.0994306925350390e+00 +0.0000000000000000e+00 +1.0199998115787798e+01 +1.1370615526940252e-02 -1.0325913349083438e+00 -5.8988375465050612e-02
1.0299999999999979e+01 +9.0993249034318922e+00 +0.0000000000000000e+00 +1.0299998059830667e+01 +1.1370404863123910e-02 -1.0325874390088472e+00 -5.8986304774350365e-02
1.0399999999999979e+01 +9.0992180824562023e+00 +0.0000000000000000e+00 +1.0399998002776602e+01 +1.1370201123906049e-02 -1.0325836429758002e+00 -5.8984197320339465e-02
1.0499999999999979e+01 +9.0991102296117727e+00 +0.0000000000000000e+00 +1.0499997944614961e+01 +1.1370005239074551e-02 -1.0325799566578115e+00 -5.8982053633863288e-02
1.0599999999999978e+01 +9.0990013449022982e+00 +0.0000000000000000e+00 +1.0599997885335100e+01 +1.1369817877116438e-02 -1.0325763900171052e+00 -5.8979874283705935e-02
1.0699999999999978e+01 +9.0988914283313527e+00 +0.0000000000000000e+00 +1.0699997824926374e+01 +1.1369638662293013e-02 -1.0325729534536419e+00 -5.8977659990400506e-02
1.0799999999999978e+01 +9.0987804799023824e+00 +0.0000000000000000e+00 +1.0799997763378142e+01 +1.1369466957924304e-02 -1.0325696574783594e+00 -5.8975411512533452e-02
1.0899999999999977e+01 +9.0986684996186931e+00 +0.0000000000000000e+00 +1.0899997700679759e+01 +1.1369302127460462e-02 -1.0325665126046073e+00 -5.8973129608832692e-02
1.0999999999999977e+01 +9.0985554874834360e+00 +0.0000000000000000e+00 +1.0999997636820581e+01 +1.1369143534485255e-02 -1.0325635293481754e+00 -5.8970815038171420e-02
1.1099999999999977e+01 +9.0984414434996044e+00 +0.0000000000000000e+00 +1.1099997571789965e+01 +1.1368990542719552e-02 -1.0325607182273357e+00 -5.8968468559571600e-02
1.1199999999999976e+01 +9.0983263676700190e+00 +0.0000000000000000e+00 +1.1199997505577267e+01 +1.1368842516024841e-02 -1.0325580897628743e+00 -5.8966090932207720e-02
1.1299999999999976e+01 +9.0982102599973178e+00 +0.0000000000000000e+00 +1.1299997438171843e+01 +1.1368698818406707e-02 -1.0325556544781302e+00 -5.8963682915410466e-02
1.1399999999999975e+01 +9.0980931204839468e+00 +0.0000000000000000e+00 +1.1399997369563048e+01 +1.1368558814018317e-02 -1.0325534228990272e+00 -5.8961245268670227e-02
1.1499999999999975e+01 +9.0979749491321460e+00 +0.0000000000000000e+00 +1.1499997299740238e+01 +1.1368421867163929e-02 -1.0325514055541134e+00 -5.8958778751641003e-02
1.1599999999999975e+01 +9.0978557459439440e+00 +0.0000000000000000e+00 +1.1599997228692770e+01 +1.1368287342302375e-02 -1.0325496129745935e+00 -5.8956284124143797e-02
1.1699999999999974e+01 +9.0977355109211437e+00 +0.0000000000000000e+00 +1.1699997156409996e+01 +1.1368154604050568e-02 -1.0325480556943669e+00 -5.8953762146170541e-02
1.1799999999999974e+01 +9.0976142440653121e+00 +0.0000000000000000e+00 +1.1799997082881273e+01 +1.1368023017186965e-02 -1.0325467442500593e+00 -5.8951213577887428e-02
