# field on trajectory
# s[mm] rx[mm] ry[mm] rz[mm] bx[T] by[T] bz[T]
0.0000000000000000e+00 +9.1013000000000002e+00 +0.0000000000000000e+00 +0.0000000000000000e+00 +1.0818256056584347e-02 -1.0325786081664243e+00 -5.9209749282339449e-02
-1.0000000000000001e-01 +9.1012994840232153e+00 +0.0000000000000000e+00 -9.9999999998225120e-02 +1.0818426918360366e-02 -1.0325742346090758e+00 -5.9210691246043223e-02
-2.0000000000000001e-01 +9.1012979360957686e+00 +0.0000000000000000e+00 -1.9999999998580101e-01 +1.0818605706202274e-02 -1.0325699163122830e+00 -5.9211632072129677e-02
-3.0000000000000004e-01 +9.1012953562219732e+00 +0.0000000000000000e+00 -2.9999999995207854e-01 +1.0818789640235707e-02 -1.0325656565481161e+00 -5.9212570782504234e-02
-4.0000000000000002e-01 +9.1012917444060868e+00 +0.0000000000000000e+00 -3.9999999988640877e-01 +1.0818975940598148e-02 -1.0325614585886296e+00 -5.9213506399087047e-02
-5.0000000000000000e-01 +9.1012871006523053e+00 +0.0000000000000000e+00 -4.9999999977814280e-01 +1.0819161827431074e-02 -1.0325573257059959e+00 -5.9214437943807326e-02
-5.9999999999999998e-01 +9.1012814249647604e+00 +0.0000000000000000e+00 -5.9999999961663197e-01 +1.0819344520872104e-02 -1.0325532611726309e+00 -5.9215364438597713e-02
-6.9999999999999996e-01 +9.1012747173475130e+00 +0.0000000000000000e+00 -6.9999999939122759e-01 +1.0819521241047129e-02 -1.0325492682613282e+00 -5.9216284905388571e-02
-7.9999999999999993e-01 +9.1012669778045545e+00 +0.0000000000000000e+00 -7.9999999909128128e-01 +1.0819689208062451e-02 -1.0325453502453892e+00 -5.9217198366102390e-02
-8.9999999999999991e-01 +9.1012582063398018e+00 +0.0000000000000000e+00 -8.9999999870614467e-01 +1.0819845641996943e-02 -1.0325415103987505e+00 -5.9218103842648098e-02
-9.9999999999999989e-01 +9.1012484029570917e+00 +0.0000000000000000e+00 -9.9999999822516938e-01 +1.0819987762894168e-02 -1.0325377519961167e+00 -5.9219000356915429e-02
-1.0999999999999999e+00 +9.1012375676601813e+00 +0.0000000000000000e+00 -1.0999999976377075e+00 +1.0820112790754526e-02 -1.0325340783130896e+00 -5.9219886930769190e-02
-1.2000000000000000e+00 +9.1012257004527441e+00 +0.0000000000000000e+00 -1.1999999969331108e+00 +1.0820217945527405e-02 -1.0325304926263004e+00 -5.9220762586043751e-02
-1.3000000000000000e+00 +9.1012128013383649e+00 +0.0000000000000000e+00 -1.2999999961007314e+00 +1.0820300447103305e-02 -1.0325269982135359e+00 -5.9221626344537204e-02
-1.4000000000000001e+00 +9.1011988703205358e+00 +0.0000000000000000e+00 -1.3999999951299213e+00 +1.0820357515306014e-02 -1.0325235983538723e+00 -5.9222477228005894e-02
-1.5000000000000002e+00 +9.1011839074026550e+00 +0.0000000000000000e+00 -1.4999999940100330e+00 +1.0820386369884727e-02 -1.0325202963278048e+00 -5.9223314258158612e-02
-1.6000000000000003e+00 +9.1011679125880267e+00 +0.0000000000000000e+00 -1.5999999927304189e+00 +1.0820385167643670e-02 -1.0325170938468911e+00 -5.9224136763274940e-02
-1.7000000000000004e+00 +9.1011508858798518e+00 +0.0000000000000000e+00 -1.6999999912804313e+00 +1.0820355813877820e-02 -1.0325139863420409e+00 -5.9224945298071353e-02
-1.8000000000000005e+00 +9.1011328272812388e+00 +0.0000000000000000e+00 -1.7999999896494228e+00 +1.0820301151012027e-02 -1.0325109676743891e+00 -5.9225740723824249e-02
-1.9000000000000006e+00 +9.1011137367952060e+00 +0.0000000000000000e+00 -1.8999999878267457e+00 +1.0820224021476152e-02 -1.0325080317056547e+00 -5.9226523901740324e-02
-2.0000000000000004e+00 +9.1010936144246912e+00 +0.0000000000000000e+00 -1.9999999858017530e+00 +1.0820127267711100e-02 -1.0325051722981073e+00 -5.9227295692951036e-02
-2.1000000000000005e+00 +9.1010724601725546e+00 +0.0000000000000000e+00 -2.0999999835637975e+00 +1.0820013732174822e-02 -1.0325023833145222e+00 -5.9228056958506907e-02
-2.2000000000000006e+00 +9.1010502740415848e+00 +0.0000000000000000e+00 -2.1999999811022319e+00 +1.0819886257348369e-02 -1.0324996586181465e+00 -5.9228808559372029e-02
-2.3000000000000007e+00 +9.1010270560345088e+00 +0.0000000000000000e+00 -2.2999999784064089e+00 +1.0819747685741879e-02 -1.0324969920726572e+00 -5.9229551356418296e-02
-2.4000000000000008e+00 +9.1010028061539945e+00 +0.0000000000000000e+00 -2.3999999754656818e+00 +1.0819600859900623e-02 -1.0324943775421256e+00 -5.9230286210420036e-02
-2.5000000000000009e+00 +9.1009775244026585e+00 +0.0000000000000000e+00 -2.4999999722694035e+00 +1.0819448622410988e-02 -1.0324918088909727e+00 -5.9231013982048150e-02
-2.6000000000000010e+00 +9.1009512107830712e+00 +0.0000000000000000e+00 -2.5999999688069271e+00 +1.0819293815906536e-02 -1.0324892799839365e+00 -5.9231735531864706e-02
-2.7000000000000011e+00 +9.1009238652977622e+00 +0.0000000000000000e+00 -2.6999999650676054e+00 +1.0819139283073981e-02 -1.0324867846860311e+00 -5.9232451720317228e-02
-2.8000000000000012e+00 +9.1008954879492290e+00 +0.0000000000000000e+00 -2.7999999610407924e+00 +1.0818987866659227e-02 -1.0324843168625046e+00 -5.9233163407733068e-02
-2.9000000000000012e+00 +9.1008660787399425e+00 +0.0000000000000000e+00 -2.8999999567158405e+00 +1.0818842409473365e-02 -1.0324818703788046e+00 -5.9233871454313872e-02
-3.0000000000000013e+00 +9.1008356376723505e+00 +0.0000000000000000e+00 -2.9999999520821037e+00 +1.0818705754398689e-02 -1.0324794391005370e+00 -5.9234576720129904e-02
-3.1000000000000014e+00 +9.1008041647488866e+00 +0.0000000000000000e+00 -3.0999999471289352e+00 +1.0818580744394707e-02 -1.0324770168934281e+00 -5.9235280065114436e-02
-3.2000000000000015e+00 +9.1007716599719757e+00 +0.0000000000000000e+00 -3.1999999418456890e+00 +1.0818470222504149e-02 -1.0324745976232848e+00 -5.9235982349058185e-02
-3.3000000000000016e+00 +9.1007381233440388e+00 +0.0000000000000000e+00 -3.2999999362217181e+00 +1.0818377031858945e-02 -1.0324721751559567e+00 -5.9236684431603598e-02
-3.4000000000000017e+00 +9.1007035548675024e+00 +0.0000000000000000e+00 -3.3999999302463766e+00 +1.0818304015686286e-02 -1.0324697433572965e+00 -5.9237387172239336e-02
-3.5000000000000018e+00 +9.1006679545448002e+00 +0.0000000000000000e+00 -3.4999999239090180e+00 +1.0818254017314554e-02 -1.0324672960931209e+00 -5.9238091430294605e-02
-3.6000000000000019e+00 +9.1006313223783817e+00 +0.0000000000000000e+00 -3.5999999171989963e+00 +1.0818228994989040e-02 -1.0324648293039804e+00 -5.9238797591052897e-02
-3.7000000000000020e+00 +9.1005936583707161e+00 +0.0000000000000000e+00 -3.6999999101056651e+00 +1.0818227366255359e-02 -1.0324623472297980e+00 -5.9239504144169758e-02
-3.8000000000000020e+00 +9.1005549625242868e+00 +0.0000000000000000e+00 -3.7999999026183784e+00 +1.0818246663460349e-02 -1.0324598561858345e+00 -5.9240209105438327e-02
-3.9000000000000021e+00 +9.1005152348415876e+00 +0.0000000000000000e+00 -3.8999998947264904e+00 +1.0818284418933110e-02 -1.0324573624879392e+00 -5.9240910490697365e-02
-4.0000000000000018e+00 +9.1004744753251146e+00 +0.0000000000000000e+00 -3.9999998864193556e+00 +1.0818338164982084e-02 -1.0324548724525600e+00 -5.9241606315839843e-02
-4.1000000000000014e+00 +9.1004326839773597e+00 +0.0000000000000000e+00 -4.0999998776863276e+00 +1.0818405433892118e-02 -1.0324523923967526e+00 -5.9242294596821531e-02
-4.2000000000000011e+00 +9.1003898608008065e+00 +0.0000000000000000e+00 -4.1999998685167617e+00 +1.0818483757921564e-02 -1.0324499286381899e+00 -5.9242973349669617e-02
-4.3000000000000007e+00 +9.1003460057979204e+00 +0.0000000000000000e+00 -4.2999998589000112e+00 +1.0818570669299357e-02 -1.0324474874951732e+00 -5.9243640590491413e-02
-4.4000000000000004e+00 +9.1003011189711458e+00 +0.0000000000000000e+00 -4.3999998488254306e+00 +1.0818663700222097e-02 -1.0324450752866401e+00 -5.9244294335482853e-02
-4.5000000000000000e+00 +9.1002552003228967e+00 +0.0000000000000000e+00 -4.4999998382823749e+00 +1.0818760382851128e-02 -1.0324426983321768e+00 -5.9244932600937154e-02
-4.5999999999999996e+00 +9.1002082498555534e+00 +0.0000000000000000e+00 -4.5999998272601985e+00 +1.0818858249309652e-02 -1.0324403629520256e+00 -5.9245553403253534e-02
-4.6999999999999993e+00 +9.1001602675714537e+00 +0.0000000000000000e+00 -4.6999998157482565e+00 +1.0818954831679783e-02 -1.0324380754670943e+00 -5.9246154758945666e-02
-4.7999999999999989e+00 +9.1001112534728890e+00 +0.0000000000000000e+00 -4.7999998037359033e+00 +1.0819047661999670e-02 -1.0324358421989697e+00 -5.9246734684650484e-02
-4.8999999999999986e+00 +9.1000612075620957e+00 +0.0000000000000000e+00 -4.8999997912124931e+00 +1.0819134272260580e-02 -1.0324336694699228e+00 -5.9247291197136696e-02
-4.9999999999999982e+00 +9.1000101298412499e+00 +0.0000000000000000e+00 -4.9999997781673811e+00 +1.0819212194403979e-02 -1.0324315636029218e+00 -5.9247822313313429e-02
-5.0999999999999979e+00 +9.0999580203124619e+00 +0.0000000000000000e+00 -5.0999997645899215e+00 +1.0819278960318651e-02 -1.0324295309216405e+00 -5.9248326050238963e-02
-5.1999999999999975e+00 +9.0999048789777675e+00 +0.0000000000000000e+00 -5.1999997504694697e+00 +1.0819332101837800e-02 -1.0324275777504675e+00 -5.9248800425129228e-02
-5.2999999999999972e+00 +9.0998507058391240e+00 +0.0000000000000000e+00 -5.2999997357953808e+00 +1.0819369150736105e-02 -1.0324257104145171e+00 -5.9249243455366508e-02
-5.3999999999999968e+00 +9.0997955008984039e+00 +0.0000000000000000e+00 -5.3999997205570089e+00 +1.0819387638726904e-02 -1.0324239352396389e+00 -5.9249653158508137e-02
-5.4999999999999964e+00 +9.0997392641573853e+00 +0.0000000000000000e+00 -5.4999997047437086e+00 +1.0819385097459226e-02 -1.0324222585524270e+00 -5.9250027552295040e-02
-5.5999999999999961e+00 +9.0996819956177486e+00 +0.0000000000000000e+00 -5.5999996883448357e+00 +1.0819359790359103e-02 -1.0324206853635860e+00 -5.9250365221418924e-02
-5.6999999999999957e+00 +9.0996236952810747e+00 +0.0000000000000000e+00 -5.6999996713497447e+00 +1.0819312908189117e-02 -1.0324192154181135e+00 -5.9250667017743314e-02
-5.7999999999999954e+00 +9.0995643631488363e+00 +0.0000000000000000e+00 -5.7999996537477898e+00 +1.0819246373507396e-02 -1.0324178471455563e+00 -5.9250934359877105e-02
-5.8999999999999950e+00 +9.0995039992224100e+00 +0.0000000000000000e+00 -5.8999996355283262e+00 +1.0819162108809120e-02 -1.0324165789767414e+00 -5.9251168666383483e-02
-5.9999999999999947e+00 +9.0994426035030678e+00 +0.0000000000000000e+00 -5.9999996166807090e+00 +1.0819062036524133e-02 -1.0324154093438105e+00 -5.9251371355777536e-02
-6.0999999999999943e+00 +9.0993801759919855e+00 +0.0000000000000000e+00 -6.0999995971942926e+00 +1.0818948079014542e-02 -1.0324143366802483e+00 -5.9251543846523820e-02
-6.1999999999999940e+00 +9.0993167166902431e+00 +0.0000000000000000e+00 -6.1999995770584322e+00 +1.0818822158572357e-02 -1.0324133594209137e+00 -5.9251687557034000e-02
-6.2999999999999936e+00 +9.0992522255988231e+00 +0.0000000000000000e+00 -6.2999995562624820e+00 +1.0818686197417084e-02 -1.0324124760020716e+00 -5.9251803905664466e-02
-6.3999999999999932e+00 +9.0991867027186153e+00 +0.0000000000000000e+00 -6.3999995347957972e+00 +1.0818542117693352e-02 -1.0324116848614204e+00 -5.9251894310713850e-02
-6.4999999999999929e+00 +9.0991201480504174e+00 +0.0000000000000000e+00 -6.4999995126477321e+00 +1.0818391841468511e-02 -1.0324109844381257e+00 -5.9251960190420651e-02
-6.5999999999999925e+00 +9.0990525615949363e+00 +0.0000000000000000e+00 -6.5999994898076411e+00 +1.0818237290730249e-02 -1.0324103731728502e+00 -5.9252002962960806e-02
-6.6999999999999922e+00 +9.0989839433527919e+00 +0.0000000000000000e+00 -6.6999994662648792e+00 +1.0818080387384202e-02 -1.0324098495077818e+00 -5.9252024046445279e-02
-6.7999999999999918e+00 +9.0989142933245137e+00 +0.0000000000000000e+00 -6.7999994420088008e+00 +1.0817923053251554e-02 -1.0324094118866673e+00 -5.9252024858917646e-02
-6.8999999999999915e+00 +9.0988436115105475e+00 +0.0000000000000000e+00 -6.8999994170287602e+00 +1.0817767210066640e-02 -1.0324090587548416e+00 -5.9252006818351612e-02
-6.9999999999999911e+00 +9.0987718979112522e+00 +0.0000000000000000e+00 -6.9999993913141116e+00 +1.0817614779474556e-02 -1.0324087885592572e+00 -5.9251971342648674e-02
-7.0999999999999908e+00 +9.0986991525269065e+00 +0.0000000000000000e+00 -7.0999993648542095e+00 +1.0817467683028761e-02 -1.0324085997485184e+00 -5.9251919849635612e-02
-7.1999999999999904e+00 +9.0986253753577078e+00 +0.0000000000000000e+00 -7.1999993376384088e+00 +1.0817327842188668e-02 -1.0324084907729061e+00 -5.9251853757062024e-02
-7.2999999999999901e+00 +9.0985505664037714e+00 +0.0000000000000000e+00 -7.2999993096560631e+00 +1.0817197178317247e-02 -1.0324084600844143e+00 -5.9251774482597948e-02
-7.3999999999999897e+00 +9.0984747256651382e+00 +0.0000000000000000e+00 -7.3999992808965276e+00 +1.0817077612678619e-02 -1.0324085061367765e+00 -5.9251683443831422e-02
-7.4999999999999893e+00 +9.0983978531417691e+00 +0.0000000000000000e+00 -7.4999992513491556e+00 +1.0816971066435659e-02 -1.0324086273854973e+00 -5.9251582058265945e-02
-7.5999999999999890e+00 +9.0983199488335504e+00 +0.0000000000000000e+00 -7.5999992210033014e+00 +1.0816878935671280e-02 -1.0324088216882883e+00 -5.9251471339561226e-02
-7.6999999999999886e+00 +9.0982410127402975e+00 +0.0000000000000000e+00 -7.6999991898483193e+00 +1.0816800516491514e-02 -1.0324090845058764e+00 -5.9251350686309462e-02
-7.7999999999999883e+00 +9.0981610448617563e+00 +0.0000000000000000e+00 -7.7999991578735628e+00 +1.0816734580121799e-02 -1.0324094107001853e+00 -5.9251219093474916e-02
-7.8999999999999879e+00 +9.0980800451976105e+00 +0.0000000000000000e+00 -7.8999991250683861e+00 +1.0816679897932455e-02 -1.0324097951338627e+00 -5.9251075556196034e-02
-7.9999999999999876e+00 +9.0979980137474836e+00 +0.0000000000000000e+00 -7.9999990914221426e+00 +1.0816635241444269e-02 -1.0324102326702718e+00 -5.9250919069791283e-02
-8.0999999999999872e+00 +9.0979149505109493e+00 +0.0000000000000000e+00 -8.0999990569241866e+00 +1.0816599382334133e-02 -1.0324107181734872e+00 -5.9250748629765461e-02
-8.1999999999999869e+00 +9.0978308554875316e+00 +0.0000000000000000e+00 -8.1999990215638725e+00 +1.0816571092440639e-02 -1.0324112465082882e+00 -5.9250563231815399e-02
-8.2999999999999865e+00 +9.0977457286767098e+00 +0.0000000000000000e+00 -8.2999989853305536e+00 +1.0816549143769687e-02 -1.0324118125401538e+00 -5.9250361871836167e-02
-8.3999999999999861e+00 +9.0976595700779299e+00 +0.0000000000000000e+00 -8.3999989482135824e+00 +1.0816532308500113e-02 -1.0324124111352551e+00 -5.9250143545927232e-02
-8.4999999999999858e+00 +9.0975723796906021e+00 +0.0000000000000000e+00 -8.4999989102023132e+00 +1.0816519358989272e-02 -1.0324130371604499e+00 -5.9249907250398172e-02
-8.5999999999999854e+00 +9.0974841575141099e+00 +0.0000000000000000e+00 -8.5999988712861004e+00 +1.0816509067778689e-02 -1.0324136854832779e+00 -5.9249651981775037e-02
-8.6999999999999851e+00 +9.0973949035478157e+00 +0.0000000000000000e+00 -8.6999988314542964e+00 +1.0816500207599647e-02 -1.0324143509719539e+00 -5.9249376736806261e-02
-8.7999999999999847e+00 +9.0973046177910639e+00 +0.0000000000000000e+00 -8.7999987906962556e+00 +1.0816491551378800e-02 -1.0324150284953604e+00 -5.9249080512468681e-02
-8.8999999999999844e+00 +9.0972133002431885e+00 +0.0000000000000000e+00 -8.8999987490013304e+00 +1.0816481872243794e-02 -1.0324157129230449e+00 -5.9248762305973666e-02
-8.9999999999999840e+00 +9.0971209509035162e+00 +0.0000000000000000e+00 -8.9999987063588751e+00 +1.0816469943528882e-02 -1.0324163991252100e+00 -5.9248421114773193e-02
-9.0999999999999837e+00 +9.0970275697713703e+00 +0.0000000000000000e+00 -9.0999986627582423e+00 +1.0816454538780551e-02 -1.0324170819727114e+00 -5.9248055936565805e-02
-9.1999999999999833e+00 +9.0969331568460792e+00 +0.0000000000000000e+00 -9.1999986181887863e+00 +1.0816434431763113e-02 -1.0324177563370485e+00 -5.9247665769302842e-02
-9.2999999999999829e+00 +9.0968377121269786e+00 +0.0000000000000000e+00 -9.2999985726398595e+00 +1.0816408396464331e-02 -1.0324184170903619e+00 -5.9247249611194354e-02
-9.3999999999999826e+00 +9.0967412356134183e+00 +0.0000000000000000e+00 -9.3999985261008163e+00 +1.0816375207101056e-02 -1.0324190591054234e+00 -5.9246806460715250e-02
-9.4999999999999822e+00 +9.0966437273047696e+00 +0.0000000000000000e+00 -9.4999984785610110e+00 +1.0816333638124813e-02 -1.0324196772556333e+00 -5.9246335316611491e-02
-9.5999999999999819e+00 +9.0965451872004230e+00 +0.0000000000000000e+00 -9.5999984300097942e+00 +1.0816282776886616e-02 -1.0324202673738896e+00 -5.9245835467940308e-02
-9.6999999999999815e+00 +9.0964456152998014e+00 +0.0000000000000000e+00 -9.6999983804365222e+00 +1.0816222961540929e-02 -1.0324208291280332e+00 -5.9245307364015912e-02
-9.7999999999999812e+00 +9.0963450116023523e+00 +0.0000000000000000e+00 -9.7999983298305455e+00 +1.0816154842802220e-02 -1.0324213631417309e+00 -5.9244751743898837e-02
-9.8999999999999808e+00 +9.0962433761075534e+00 +0.0000000000000000e+00 -9.8999982781812204e+00 +1.0816079071218791e-02 -1.0324218700350718e+00 -5.9244169346271212e-02
-9.9999999999999805e+00 +9.0961407088149091e+00 +0.0000000000000000e+00 -9.9999982254778974e+00 +1.0815996297167806e-02 -1.0324223504244547e+00 -5.9243560909425841e-02
-1.0099999999999980e+01 +9.0960370097239505e+00 +0.0000000000000000e+00 -1.0099998171709933e+01 +1.0815907170850368e-02 -1.0324228049224795e+00 -5.9242927171255427e-02
-1.0199999999999980e+01 +9.0959322788342334e+00 +0.0000000000000000e+00 -1.0199998116866677e+01 +1.0815812342286537e-02 -1.0324232341378363e+00 -5.9242268869241846e-02
-1.0299999999999979e+01 +9.0958265161453404e+00 +0.0000000000000000e+00 -1.0299998060937487e+01 +1.0815712461310387e-02 -1.0324236386751953e+00 -5.9241586740445260e-02
-1.0399999999999979e+01 +9.0957197216568773e+00 +0.0000000000000000e+00 -1.0399998003911714e+01 +1.0815608177565071e-02 -1.0324240191350953e+00 -5.9240881521493420e-02
-1.0499999999999979e+01 +9.0956118953684761e+00 +0.0000000000000000e+00 -1.0499997945778711e+01 +1.0815500140497869e-02 -1.0324243761138341e+00 -5.9240153948570816e-02
-1.0599999999999978e+01 +9.0955030372797925e+00 +0.0000000000000000e+00 -1.0599997886527833e+01 +1.0815388999355214e-02 -1.0324247102033586e+00 -5.9239404757407882e-02
-1.0699999999999978e+01 +9.0953931473905030e+00 +0.0000000000000000e+00 -1.0699997826148431e+01 +1.0815275403177787e-02 -1.0324250219911542e+00 -5.9238634683270328e-02
-1.0799999999999978e+01 +9.0952822257003074e+00 +0.0000000000000000e+00 -1.0799997764629861e+01 +1.0815160000795547e-02 -1.0324253120601337e+00 -5.9237844460948236e-02
-1.0899999999999977e+01 +9.0951702722089287e+00 +0.0000000000000000e+00 -1.0899997701961476e+01 +1.0815043440822788e-02 -1.0324255809885279e+00 -5.9237034824745328e-02
-1.0999999999999977e+01 +9.0950572869161093e+00 +0.0000000000000000e+00 -1.0999997638132630e+01 +1.0814926371653211e-02 -1.0324258293497750e+00 -5.9236206508468198e-02
-1.1099999999999977e+01 +9.0949432698216128e+00 +0.0000000000000000e+00 -1.1099997573132676e+01 +1.0814809441454973e-02 -1.0324260577124103e+00 -5.9235360245415536e-02
-1.1199999999999976e+01 +9.0948282209252245e+00 +0.0000000000000000e+00 -1.1199997506950968e+01 +1.0814693298165754e-02 -1.0324262666399546e+00 -5.9234496768367360e-02
-1.1299999999999976e+01 +9.0947121402267452e+00 +0.0000000000000000e+00 -1.1299997439576860e+01 +1.0814578589487820e-02 -1.0324264566908072e+00 -5.9233616809574230e-02
-1.1399999999999975e+01 +9.0945950277259993e+00 +0.0000000000000000e+00 -1.1399997370999703e+01 +1.0814465962883064e-02 -1.0324266284181318e+00 -5.9232721100746455e-02
-1.1499999999999975e+01 +9.0944768834228267e+00 +0.0000000000000000e+00 -1.1499997301208854e+01 +1.0814356065568118e-02 -1.0324267823697493e+00 -5.9231810373043439e-02
-1.1599999999999975e+01 +9.0943577073170871e+00 +0.0000000000000000e+00 -1.1599997230193663e+01 +1.0814249427778233e-02 -1.0324269196618305e+00 -5.9230885152705803e-02
-1.1699999999999974e+01 +9.0942374994086546e+00 +0.0000000000000000e+00 -1.1699997157943487e+01 +1.0814146112689672e-02 -1.0324270437011533e+00 -5.9229945148162724e-02
