# trajectory
# s[mm] rx[mm] ry[mm] rz[mm] px[rad] py[rad] pz[rad]
0.0000000000000000e+00 +9.1013000000000002e+00 +0.0000000000000000e+00 +0.0000000000000000e+00 +0.0000000000000000e+00 +0.0000000000000000e+00 +1.0000000000000000e+00
-1.0000000000000001e-01 +9.1012994840232153e+00 +0.0000000000000000e+00 -9.9999999998225120e-02 +1.0319528397680325e-05 +0.0000000000000000e+00 +9.9999999994675370e-01
-2.0000000000000001e-01 +9.1012979360957686e+00 +0.0000000000000000e+00 -1.9999999998580101e-01 +2.0639013358511112e-05 +0.0000000000000000e+00 +9.9999999978701559e-01
-3.0000000000000004e-01 +9.1012953562219732e+00 +0.0000000000000000e+00 -2.9999999995207854e-01 +3.0958455450015820e-05 +0.0000000000000000e+00 +9.9999999952078700e-01
-4.0000000000000002e-01 +9.1012917444060868e+00 +0.0000000000000000e+00 -3.9999999988640877e-01 +4.1277855272418674e-05 +0.0000000000000000e+00 +9.9999999914806936e-01
-5.0000000000000000e-01 +9.1012871006523053e+00 +0.0000000000000000e+00 -4.9999999977814280e-01 +5.1597213458645210e-05 +0.0000000000000000e+00 +9.9999999866886380e-01
-5.9999999999999998e-01 +9.1012814249647604e+00 +0.0000000000000000e+00 -5.9999999961663197e-01 +6.1916530674324045e-05 +0.0000000000000000e+00 +9.9999999808317164e-01
-6.9999999999999996e-01 +9.1012747173475130e+00 +0.0000000000000000e+00 -6.9999999939122759e-01 +7.2235807617790015e-05 +0.0000000000000000e+00 +9.9999999739099410e-01
-7.9999999999999993e-01 +9.1012669778045545e+00 +0.0000000000000000e+00 -7.9999999909128128e-01 +8.2555045020088553e-05 +0.0000000000000000e+00 +9.9999999659233230e-01
-8.9999999999999991e-01 +9.1012582063398018e+00 +0.0000000000000000e+00 -8.9999999870614467e-01 +9.2874243644981447e-05 +0.0000000000000000e+00 +9.9999999568718745e-01
-9.9999999999999989e-01 +9.1012484029570917e+00 +0.0000000000000000e+00 -9.9999999822516938e-01 +1.0319340428895384e-04 +0.0000000000000000e+00 +9.9999999467556067e-01
-1.0999999999999999e+00 +9.1012375676601813e+00 +0.0000000000000000e+00 -1.0999999976377075e+00 +1.1351252778122251e-04 +0.0000000000000000e+00 +9.9999999355745306e-01
-1.2000000000000000e+00 +9.1012257004527441e+00 +0.0000000000000000e+00 -1.1999999969331108e+00 +1.2383161498374557e-04 +0.0000000000000000e+00 +9.9999999233286563e-01
-1.3000000000000000e+00 +9.1012128013383649e+00 +0.0000000000000000e+00 -1.2999999961007314e+00 +1.3415066679123329e-04 +0.0000000000000000e+00 +9.9999999100179937e-01
-1.4000000000000001e+00 +9.1011988703205358e+00 +0.0000000000000000e+00 -1.3999999951299213e+00 +1.4446968413116040e-04 +0.0000000000000000e+00 +9.9999998956425529e-01
-1.5000000000000002e+00 +9.1011839074026550e+00 +0.0000000000000000e+00 -1.4999999940100330e+00 +1.5478866796377958e-04 +0.0000000000000000e+00 +9.9999998802023427e-01
-1.6000000000000003e+00 +9.1011679125880267e+00 +0.0000000000000000e+00 -1.5999999927304189e+00 +1.6510761927821248e-04 +0.0000000000000000e+00 +9.9999998636973708e-01
-1.7000000000000004e+00 +9.1011508858798518e+00 +0.0000000000000000e+00 -1.6999999912804313e+00 +1.7542653904930228e-04 +0.0000000000000000e+00 +9.9999998461276474e-01
-1.8000000000000005e+00 +9.1011328272812388e+00 +0.0000000000000000e+00 -1.7999999896494228e+00 +1.8574542819446113e-04 +0.0000000000000000e+00 +9.9999998274931801e-01
-1.9000000000000006e+00 +9.1011137367952060e+00 +0.0000000000000000e+00 -1.8999999878267457e+00 +1.9606428756975262e-04 +0.0000000000000000e+00 +9.9999998077939756e-01
-2.0000000000000004e+00 +9.1010936144246912e+00 +0.0000000000000000e+00 -1.9999999858017530e+00 +2.0638311796989734e-04 +0.0000000000000000e+00 +9.9999997870300428e-01
-2.1000000000000005e+00 +9.1010724601725546e+00 +0.0000000000000000e+00 -2.0999999835637975e+00 +2.1670192012827823e-04 +0.0000000000000000e+00 +9.9999997652013883e-01
-2.2000000000000006e+00 +9.1010502740415848e+00 +0.0000000000000000e+00 -2.1999999811022319e+00 +2.2702069471694546e-04 +0.0000000000000000e+00 +9.9999997423080200e-01
-2.3000000000000007e+00 +9.1010270560345088e+00 +0.0000000000000000e+00 -2.2999999784064089e+00 +2.3733944234662093e-04 +0.0000000000000000e+00 +9.9999997183499445e-01
-2.4000000000000008e+00 +9.1010028061539945e+00 +0.0000000000000000e+00 -2.3999999754656818e+00 +2.4765816356670238e-04 +0.0000000000000000e+00 +9.9999996933271684e-01
-2.5000000000000009e+00 +9.1009775244026585e+00 +0.0000000000000000e+00 -2.4999999722694035e+00 +2.5797685886526708e-04 +0.0000000000000000e+00 +9.9999996672396985e-01
-2.6000000000000010e+00 +9.1009512107830712e+00 +0.0000000000000000e+00 -2.5999999688069271e+00 +2.6829552866907525e-04 +0.0000000000000000e+00 +9.9999996400875424e-01
-2.7000000000000011e+00 +9.1009238652977622e+00 +0.0000000000000000e+00 -2.6999999650676054e+00 +2.7861417334357289e-04 +0.0000000000000000e+00 +9.9999996118707069e-01
-2.8000000000000012e+00 +9.1008954879492290e+00 +0.0000000000000000e+00 -2.7999999610407924e+00 +2.8893279319289449e-04 +0.0000000000000000e+00 +9.9999995825891985e-01
-2.9000000000000012e+00 +9.1008660787399425e+00 +0.0000000000000000e+00 -2.8999999567158405e+00 +2.9925138845986508e-04 +0.0000000000000000e+00 +9.9999995522430252e-01
-3.0000000000000013e+00 +9.1008356376723505e+00 +0.0000000000000000e+00 -2.9999999520821037e+00 +3.0956995932600204e-04 +0.0000000000000000e+00 +9.9999995208321923e-01
-3.1000000000000014e+00 +9.1008041647488866e+00 +0.0000000000000000e+00 -3.0999999471289352e+00 +3.1988850591151651e-04 +0.0000000000000000e+00 +9.9999994883567078e-01
-3.2000000000000015e+00 +9.1007716599719757e+00 +0.0000000000000000e+00 -3.1999999418456890e+00 +3.3020702827531439e-04 +0.0000000000000000e+00 +9.9999994548165794e-01
-3.3000000000000016e+00 +9.1007381233440388e+00 +0.0000000000000000e+00 -3.2999999362217181e+00 +3.4052552641499693e-04 +0.0000000000000000e+00 +9.9999994202118148e-01
-3.4000000000000017e+00 +9.1007035548675024e+00 +0.0000000000000000e+00 -3.3999999302463766e+00 +3.5084400026686108e-04 +0.0000000000000000e+00 +9.9999993845424207e-01
-3.5000000000000018e+00 +9.1006679545448002e+00 +0.0000000000000000e+00 -3.4999999239090180e+00 +3.6116244970589914e-04 +0.0000000000000000e+00 +9.9999993478084059e-01
-3.6000000000000019e+00 +9.1006313223783817e+00 +0.0000000000000000e+00 -3.5999999171989963e+00 +3.7148087455098224e-04 +0.0000000000000000e+00 +9.9999993100097784e-01
-3.7000000000000020e+00 +9.1005936583707161e+00 +0.0000000000000000e+00 -3.6999999101056651e+00 +3.8179927462188290e-04 +0.0000000000000000e+00 +9.9999992711465457e-01
-3.8000000000000020e+00 +9.1005549625242868e+00 +0.0000000000000000e+00 -3.7999999026183784e+00 +3.9211764979630144e-04 +0.0000000000000000e+00 +9.9999992312187169e-01
-3.9000000000000021e+00 +9.1005152348415876e+00 +0.0000000000000000e+00 -3.8999998947264904e+00 +4.0243600001505560e-04 +0.0000000000000000e+00 +9.9999991902262997e-01
-4.0000000000000018e+00 +9.1004744753251146e+00 +0.0000000000000000e+00 -3.9999998864193556e+00 +4.1275432528208652e-04 +0.0000000000000000e+00 +9.9999991481693018e-01
-4.1000000000000014e+00 +9.1004326839773597e+00 +0.0000000000000000e+00 -4.0999998776863276e+00 +4.2307262566446466e-04 +0.0000000000000000e+00 +9.9999991050477299e-01
-4.2000000000000011e+00 +9.1003898608008065e+00 +0.0000000000000000e+00 -4.1999998685167617e+00 +4.3339090129239599e-04 +0.0000000000000000e+00 +9.9999990608615918e-01
-4.3000000000000007e+00 +9.1003460057979204e+00 +0.0000000000000000e+00 -4.2999998589000112e+00 +4.4370915235922818e-04 +0.0000000000000000e+00 +9.9999990156108942e-01
-4.4000000000000004e+00 +9.1003011189711458e+00 +0.0000000000000000e+00 -4.3999998488254306e+00 +4.5402737912145702e-04 +0.0000000000000000e+00 +9.9999989692956437e-01
-4.5000000000000000e+00 +9.1002552003228967e+00 +0.0000000000000000e+00 -4.4999998382823749e+00 +4.6434558189873261e-04 +0.0000000000000000e+00 +9.9999989219158469e-01
-4.5999999999999996e+00 +9.1002082498555534e+00 +0.0000000000000000e+00 -4.5999998272601985e+00 +4.7466376107386610e-04 +0.0000000000000000e+00 +9.9999988734715084e-01
-4.6999999999999993e+00 +9.1001602675714537e+00 +0.0000000000000000e+00 -4.6999998157482565e+00 +4.8498191709283619e-04 +0.0000000000000000e+00 +9.9999988239626336e-01
-4.7999999999999989e+00 +9.1001112534728890e+00 +0.0000000000000000e+00 -4.7999998037359033e+00 +4.9530005046479592e-04 +0.0000000000000000e+00 +9.9999987733892270e-01
-4.8999999999999986e+00 +9.1000612075620957e+00 +0.0000000000000000e+00 -4.8999997912124931e+00 +5.0561816176207931e-04 +0.0000000000000000e+00 +9.9999987217512931e-01
-4.9999999999999982e+00 +9.1000101298412499e+00 +0.0000000000000000e+00 -4.9999997781673811e+00 +5.1593625162020854e-04 +0.0000000000000000e+00 +9.9999986690488352e-01
-5.0999999999999979e+00 +9.0999580203124619e+00 +0.0000000000000000e+00 -5.0999997645899215e+00 +5.2625432073790074e-04 +0.0000000000000000e+00 +9.9999986152818565e-01
-5.1999999999999975e+00 +9.0999048789777675e+00 +0.0000000000000000e+00 -5.1999997504694697e+00 +5.3657236987707507e-04 +0.0000000000000000e+00 +9.9999985604503583e-01
-5.2999999999999972e+00 +9.0998507058391240e+00 +0.0000000000000000e+00 -5.2999997357953808e+00 +5.4689039986286002e-04 +0.0000000000000000e+00 +9.9999985045543438e-01
-5.3999999999999968e+00 +9.0997955008984039e+00 +0.0000000000000000e+00 -5.3999997205570089e+00 +5.5720841158360065e-04 +0.0000000000000000e+00 +9.9999984475938131e-01
-5.4999999999999964e+00 +9.0997392641573853e+00 +0.0000000000000000e+00 -5.4999997047437086e+00 +5.6752640599086609e-04 +0.0000000000000000e+00 +9.9999983895687661e-01
-5.5999999999999961e+00 +9.0996819956177486e+00 +0.0000000000000000e+00 -5.5999996883448357e+00 +5.7784438409616730e-04 +0.0000000000000000e+00 +9.9999983304792028e-01
-5.6999999999999957e+00 +9.0996236952810747e+00 +0.0000000000000000e+00 -5.6999996713497447e+00 +5.8816234693477912e-04 +0.0000000000000000e+00 +9.9999982703251222e-01
-5.7999999999999954e+00 +9.0995643631488363e+00 +0.0000000000000000e+00 -5.7999996537477898e+00 +5.9848029552956477e-04 +0.0000000000000000e+00 +9.9999982091065220e-01
-5.8999999999999950e+00 +9.0995039992224100e+00 +0.0000000000000000e+00 -5.8999996355283262e+00 +6.0879823088769885e-04 +0.0000000000000000e+00 +9.9999981468234023e-01
-5.9999999999999947e+00 +9.0994426035030678e+00 +0.0000000000000000e+00 -5.9999996166807090e+00 +6.1911615400068011e-04 +0.0000000000000000e+00 +9.9999980834757596e-01
-6.0999999999999943e+00 +9.0993801759919855e+00 +0.0000000000000000e+00 -6.0999995971942926e+00 +6.2943406584434506e-04 +0.0000000000000000e+00 +9.9999980190635918e-01
-6.1999999999999940e+00 +9.0993167166902431e+00 +0.0000000000000000e+00 -6.1999995770584322e+00 +6.3975196737888125e-04 +0.0000000000000000e+00 +9.9999979535868955e-01
-6.2999999999999936e+00 +9.0992522255988231e+00 +0.0000000000000000e+00 -6.2999995562624820e+00 +6.5006985954884115e-04 +0.0000000000000000e+00 +9.9999978870456685e-01
-6.3999999999999932e+00 +9.0991867027186153e+00 +0.0000000000000000e+00 -6.3999995347957972e+00 +6.6038774328315650e-04 +0.0000000000000000e+00 +9.9999978194399075e-01
-6.4999999999999929e+00 +9.0991201480504174e+00 +0.0000000000000000e+00 -6.4999995126477321e+00 +6.7070561949515283e-04 +0.0000000000000000e+00 +9.9999977507696092e-01
-6.5999999999999925e+00 +9.0990525615949363e+00 +0.0000000000000000e+00 -6.5999994898076411e+00 +6.8102348908256416e-04 +0.0000000000000000e+00 +9.9999976810347702e-01
-6.6999999999999922e+00 +9.0989839433527919e+00 +0.0000000000000000e+00 -6.6999994662648792e+00 +6.9134135292754813e-04 +0.0000000000000000e+00 +9.9999976102353860e-01
-6.7999999999999918e+00 +9.0989142933245137e+00 +0.0000000000000000e+00 -6.7999994420088008e+00 +7.0165921189670134e-04 +0.0000000000000000e+00 +9.9999975383714512e-01
-6.8999999999999915e+00 +9.0988436115105475e+00 +0.0000000000000000e+00 -6.8999994170287602e+00 +7.1197706684107524e-04 +0.0000000000000000e+00 +9.9999974654429624e-01
-6.9999999999999911e+00 +9.0987718979112522e+00 +0.0000000000000000e+00 -6.9999993913141116e+00 +7.2229491859619201e-04 +0.0000000000000000e+00 +9.9999973914499152e-01
-7.0999999999999908e+00 +9.0986991525269065e+00 +0.0000000000000000e+00 -7.0999993648542095e+00 +7.3261276798206086e-04 +0.0000000000000000e+00 +9.9999973163923039e-01
-7.1999999999999904e+00 +9.0986253753577078e+00 +0.0000000000000000e+00 -7.1999993376384088e+00 +7.4293061580319505e-04 +0.0000000000000000e+00 +9.9999972402701232e-01
-7.2999999999999901e+00 +9.0985505664037714e+00 +0.0000000000000000e+00 -7.2999993096560631e+00 +7.5324846284862811e-04 +0.0000000000000000e+00 +9.9999971630833673e-01
-7.3999999999999897e+00 +9.0984747256651382e+00 +0.0000000000000000e+00 -7.3999992808965276e+00 +7.6356630989193180e-04 +0.0000000000000000e+00 +9.9999970848320308e-01
-7.4999999999999893e+00 +9.0983978531417691e+00 +0.0000000000000000e+00 -7.4999992513491556e+00 +7.7388415769123330e-04 +0.0000000000000000e+00 +9.9999970055161080e-01
-7.5999999999999890e+00 +9.0983199488335504e+00 +0.0000000000000000e+00 -7.5999992210033014e+00 +7.8420200698773505e-04 +0.0000000000000000e+00 +9.9999969251355925e-01
-7.6999999999999886e+00 +9.0982410127402975e+00 +0.0000000000000000e+00 -7.6999991898483193e+00 +7.9451985848925249e-04 +0.0000000000000000e+00 +9.9999968436904785e-01
-7.7999999999999883e+00 +9.0981610448617563e+00 +0.0000000000000000e+00 -7.7999991578735628e+00 +8.0483771285374563e-04 +0.0000000000000000e+00 +9.9999967611807594e-01
-7.8999999999999879e+00 +9.0980800451976105e+00 +0.0000000000000000e+00 -7.8999991250683861e+00 +8.1515557068782851e-04 +0.0000000000000000e+00 +9.9999966776064297e-01
-7.9999999999999876e+00 +9.0979980137474836e+00 +0.0000000000000000e+00 -7.9999990914221426e+00 +8.2547343254677603e-04 +0.0000000000000000e+00 +9.9999965929674839e-01
-8.0999999999999872e+00 +9.0979149505109493e+00 +0.0000000000000000e+00 -8.0999990569241866e+00 +8.3579129893453143e-04 +0.0000000000000000e+00 +9.9999965072639163e-01
-8.1999999999999869e+00 +9.0978308554875316e+00 +0.0000000000000000e+00 -8.1999990215638725e+00 +8.4610917030371324e-04 +0.0000000000000000e+00 +9.9999964204957226e-01
-8.2999999999999865e+00 +9.0977457286767098e+00 +0.0000000000000000e+00 -8.2999989853305536e+00 +8.5642704705562230e-04 +0.0000000000000000e+00 +9.9999963326628960e-01
-8.3999999999999861e+00 +9.0976595700779299e+00 +0.0000000000000000e+00 -8.3999989482135824e+00 +8.6674492954024861e-04 +0.0000000000000000e+00 +9.9999962437654333e-01
-8.4999999999999858e+00 +9.0975723796906021e+00 +0.0000000000000000e+00 -8.4999989102023132e+00 +8.7706281805627838e-04 +0.0000000000000000e+00 +9.9999961538033300e-01
-8.5999999999999854e+00 +9.0974841575141099e+00 +0.0000000000000000e+00 -8.5999988712861004e+00 +8.8738071285110096e-04 +0.0000000000000000e+00 +9.9999960627765805e-01
-8.6999999999999851e+00 +9.0973949035478157e+00 +0.0000000000000000e+00 -8.6999988314542964e+00 +8.9769861412081523e-04 +0.0000000000000000e+00 +9.9999959706851826e-01
-8.7999999999999847e+00 +9.0973046177910639e+00 +0.0000000000000000e+00 -8.7999987906962556e+00 +9.0801652201023667e-04 +0.0000000000000000e+00 +9.9999958775291320e-01
-8.8999999999999844e+00 +9.0972133002431885e+00 +0.0000000000000000e+00 -8.8999987490013304e+00 +9.1833443661290396e-04 +0.0000000000000000e+00 +9.9999957833084263e-01
-8.9999999999999840e+00 +9.0971209509035162e+00 +0.0000000000000000e+00 -8.9999987063588751e+00 +9.2865235797108558e-04 +0.0000000000000000e+00 +9.9999956880230634e-01
-9.0999999999999837e+00 +9.0970275697713703e+00 +0.0000000000000000e+00 -9.0999986627582423e+00 +9.3897028607578612e-04 +0.0000000000000000e+00 +9.9999955916730410e-01
-9.1999999999999833e+00 +9.0969331568460792e+00 +0.0000000000000000e+00 -9.1999986181887863e+00 +9.4928822086675301e-04 +0.0000000000000000e+00 +9.9999954942583569e-01
-9.2999999999999829e+00 +9.0968377121269786e+00 +0.0000000000000000e+00 -9.2999985726398595e+00 +9.5960616223248287e-04 +0.0000000000000000e+00 +9.9999953957790100e-01
-9.3999999999999826e+00 +9.0967412356134183e+00 +0.0000000000000000e+00 -9.3999985261008163e+00 +9.6992411001022808e-04 +0.0000000000000000e+00 +9.9999952962350003e-01
-9.4999999999999822e+00 +9.0966437273047696e+00 +0.0000000000000000e+00 -9.4999984785610110e+00 +9.8024206398600257e-04 +0.0000000000000000e+00 +9.9999951956263278e-01
-9.5999999999999819e+00 +9.0965451872004230e+00 +0.0000000000000000e+00 -9.5999984300097942e+00 +9.9056002389698436e-04 +0.0000000000000000e+00 +9.9999950939529936e-01
-9.6999999999999815e+00 +9.0964456152998014e+00 +0.0000000000000000e+00 -9.6999983804365222e+00 +1.0008779894578707e-03 +0.0000000000000000e+00 +9.9999949912149988e-01
-9.7999999999999812e+00 +9.0963450116023523e+00 +0.0000000000000000e+00 -9.7999983298305455e+00 +1.0111959603872130e-03 +0.0000000000000000e+00 +9.9999948874123434e-01
-9.8999999999999808e+00 +9.0962433761075534e+00 +0.0000000000000000e+00 -9.8999982781812204e+00 +1.0215139364097771e-03 +0.0000000000000000e+00 +9.9999947825450297e-01
-9.9999999999999805e+00 +9.0961407088149091e+00 +0.0000000000000000e+00 -9.9999982254778974e+00 +1.0318319172565084e-03 +0.0000000000000000e+00 +9.9999946766130576e-01
-1.0099999999999980e+01 +9.0960370097239505e+00 +0.0000000000000000e+00 -1.0099998171709933e+01 +1.0421499026644929e-03 +0.0000000000000000e+00 +9.9999945696164294e-01
-1.0199999999999980e+01 +9.0959322788342334e+00 +0.0000000000000000e+00 -1.0199998116866677e+01 +1.0524678923769198e-03 +0.0000000000000000e+00 +9.9999944615551462e-01
-1.0299999999999979e+01 +9.0958265161453404e+00 +0.0000000000000000e+00 -1.0299998060937487e+01 +1.0627858861430419e-03 +0.0000000000000000e+00 +9.9999943524292090e-01
-1.0399999999999979e+01 +9.0957197216568773e+00 +0.0000000000000000e+00 -1.0399998003911714e+01 +1.0731038837181338e-03 +0.0000000000000000e+00 +9.9999942422386190e-01
-1.0499999999999979e+01 +9.0956118953684761e+00 +0.0000000000000000e+00 -1.0499997945778711e+01 +1.0834218848634514e-03 +0.0000000000000000e+00 +9.9999941309833773e-01
-1.0599999999999978e+01 +9.0955030372797925e+00 +0.0000000000000000e+00 -1.0599997886527833e+01 +1.0937398893461879e-03 +0.0000000000000000e+00 +9.9999940186634861e-01
-1.0699999999999978e+01 +9.0953931473905030e+00 +0.0000000000000000e+00 -1.0699997826148431e+01 +1.1040578969394304e-03 +0.0000000000000000e+00 +9.9999939052789466e-01
-1.0799999999999978e+01 +9.0952822257003074e+00 +0.0000000000000000e+00 -1.0799997764629861e+01 +1.1143759074221144e-03 +0.0000000000000000e+00 +9.9999937908297598e-01
-1.0899999999999977e+01 +9.0951702722089287e+00 +0.0000000000000000e+00 -1.0899997701961476e+01 +1.1246939205789778e-03 +0.0000000000000000e+00 +9.9999936753159280e-01
-1.0999999999999977e+01 +9.0950572869161093e+00 +0.0000000000000000e+00 -1.0999997638132630e+01 +1.1350119362005138e-03 +0.0000000000000000e+00 +9.9999935587374522e-01
-1.1099999999999977e+01 +9.0949432698216128e+00 +0.0000000000000000e+00 -1.1099997573132676e+01 +1.1453299540829214e-03 +0.0000000000000000e+00 +9.9999934410943336e-01
-1.1199999999999976e+01 +9.0948282209252245e+00 +0.0000000000000000e+00 -1.1199997506950968e+01 +1.1556479740280573e-03 +0.0000000000000000e+00 +9.9999933223865745e-01
-1.1299999999999976e+01 +9.0947121402267452e+00 +0.0000000000000000e+00 -1.1299997439576860e+01 +1.1659659958433840e-03 +0.0000000000000000e+00 +9.9999932026141758e-01
-1.1399999999999975e+01 +9.0945950277259993e+00 +0.0000000000000000e+00 -1.1399997370999703e+01 +1.1762840193419188e-03 +0.0000000000000000e+00 +9.9999930817771399e-01
-1.1499999999999975e+01 +9.0944768834228267e+00 +0.0000000000000000e+00 -1.1499997301208854e+01 +1.1866020443421805e-03 +0.0000000000000000e+00 +9.9999929598754678e-01
-1.1599999999999975e+01 +9.0943577073170871e+00 +0.0000000000000000e+00 -1.1599997230193663e+01 +1.1969200706695691e-03 +0.0000000000000000e+00 +9.9999928369091606e-01
-1.1699999999999974e+01 +9.0942374994086546e+00 +0.0000000000000000e+00 -1.1699997157943487e+01 +1.2072380981720848e-03 +0.0000000000000000e+00 +9.9999927128782207e-01
