# field on trajectory
# s[mm] rx[mm] ry[mm] rz[mm] bx[T] by[T] bz[T]
-0.0000000000000000e+00 +9.1476323485342608e+00 +0.0000000000000000e+00 -0.0000000000000000e+00 +1.1208784596231737e-02 -1.0337607828968784e+00 -5.9020067861127311e-02
-1.0000000000000001e-01 +9.1476318316365202e+00 +0.0000000000000000e+00 -9.9999999998218805e-02 +1.1208898525138893e-02 -1.0337607980062191e+00 -5.9020587369133883e-02
-2.0000000000000001e-01 +9.1476302809427192e+00 +0.0000000000000000e+00 -1.9999999998574999e-01 +1.1209015332183887e-02 -1.0337608630480457e+00 -5.9021094613618881e-02
-2.9999999999999999e-01 +9.1476276964536503e+00 +0.0000000000000000e+00 -2.9999999995190701e-01 +1.1209133680428248e-02 -1.0337609854102310e+00 -5.9021589717282177e-02
-4.0000000000000002e-01 +9.1476240781675404e+00 +0.0000000000000000e+00 -3.9999999988600199e-01 +1.1209252232934352e-02 -1.0337611724801006e+00 -5.9022072802805636e-02
-5.0000000000000000e-01 +9.1476194260861501e+00 +0.0000000000000000e+00 -4.9999999977734699e-01 +1.1209369652770571e-02 -1.0337614316444712e+00 -5.9022543992860860e-02
-5.9999999999999998e-01 +9.1476137402094899e+00 +0.0000000000000000e+00 -5.9999999961525596e-01 +1.1209484603016654e-02 -1.0337617702897071e+00 -5.9023003410117986e-02
-6.9999999999999996e-01 +9.1476070205357907e+00 +0.0000000000000000e+00 -6.9999999938904001e-01 +1.1209595746769061e-02 -1.0337621958017700e+00 -5.9023451177254153e-02
-8.0000000000000004e-01 +9.1475992670650292e+00 +0.0000000000000000e+00 -7.9999999908801400e-01 +1.1209701747146075e-02 -1.0337627155662568e+00 -5.9023887416961122e-02
-9.0000000000000002e-01 +9.1475904798007797e+00 +0.0000000000000000e+00 -8.9999999870148795e-01 +1.1209801267293068e-02 -1.0337633369684436e+00 -5.9024312251953530e-02
-1.0000000000000000e+00 +9.1475806587394892e+00 +0.0000000000000000e+00 -9.9999999821877705e-01 +1.1209892970388059e-02 -1.0337640673933588e+00 -5.9024725804978327e-02
-1.1000000000000001e+00 +9.1475698038829201e+00 +0.0000000000000000e+00 -1.0999999976291901e+00 +1.1209975519646654e-02 -1.0337649142258010e+00 -5.9025128198821657e-02
-1.2000000000000000e+00 +9.1475579152292994e+00 +0.0000000000000000e+00 -1.1999999969220501e+00 +1.1210047578327562e-02 -1.0337658848504072e+00 -5.9025519556318122e-02
-1.3000000000000000e+00 +9.1475449927804107e+00 +0.0000000000000000e+00 -1.2999999960866500e+00 +1.1210107809737685e-02 -1.0337669866516854e+00 -5.9025900000358324e-02
-1.3999999999999999e+00 +9.1475310365362503e+00 +0.0000000000000000e+00 -1.3999999951123201e+00 +1.1210154877237538e-02 -1.0337682270140727e+00 -5.9026269653897720e-02
-1.5000000000000000e+00 +9.1475160464950402e+00 +0.0000000000000000e+00 -1.4999999939883699e+00 +1.1210187444246509e-02 -1.0337696133219818e+00 -5.9026628639964815e-02
-1.6000000000000001e+00 +9.1475000226585603e+00 +0.0000000000000000e+00 -1.5999999927041100e+00 +1.1210204728460490e-02 -1.0337711501774938e+00 -5.9026977149889880e-02
-1.7000000000000000e+00 +9.1474829650268106e+00 +0.0000000000000000e+00 -1.6999999912488499e+00 +1.1210208164471094e-02 -1.0337728310532079e+00 -5.9027315647947609e-02
-1.8000000000000000e+00 +9.1474648735980093e+00 +0.0000000000000000e+00 -1.7999999896119101e+00 +1.1210199741086292e-02 -1.0337746466390167e+00 -5.9027644666646228e-02
-1.8999999999999999e+00 +9.1474457483739400e+00 +0.0000000000000000e+00 -1.8999999877825899e+00 +1.1210181447106537e-02 -1.0337765876243759e+00 -5.9027964738494712e-02
-2.0000000000000000e+00 +9.1474255893528191e+00 +0.0000000000000000e+00 -1.9999999857502100e+00 +1.1210155271319275e-02 -1.0337786446982979e+00 -5.9028276395998655e-02
-2.1000000000000001e+00 +9.1474043965364302e+00 +0.0000000000000000e+00 -2.0999999835040901e+00 +1.1210123202493120e-02 -1.0337808085493059e+00 -5.9028580171654646e-02
-2.2000000000000002e+00 +9.1473821699247697e+00 +0.0000000000000000e+00 -2.1999999810335300e+00 +1.1210087229372353e-02 -1.0337830698654227e+00 -5.9028876597946027e-02
-2.2999999999999998e+00 +9.1473589095160595e+00 +0.0000000000000000e+00 -2.2999999783278602e+00 +1.1210049340671257e-02 -1.0337854193341425e+00 -5.9029166207338078e-02
-2.3999999999999999e+00 +9.1473346153120794e+00 +0.0000000000000000e+00 -2.3999999753763701e+00 +1.1210011525068338e-02 -1.0337878476423932e+00 -5.9029449532272536e-02
-2.5000000000000000e+00 +9.1473092873128206e+00 +0.0000000000000000e+00 -2.4999999721683901e+00 +1.1209975771200821e-02 -1.0337903454765229e+00 -5.9029727105163458e-02
-2.6000000000000001e+00 +9.1472829255165191e+00 +0.0000000000000000e+00 -2.5999999686932198e+00 +1.1209944067658980e-02 -1.0337929035222726e+00 -5.9029999458392227e-02
-2.7000000000000002e+00 +9.1472555299249496e+00 +0.0000000000000000e+00 -2.6999999649401798e+00 +1.1209918402980360e-02 -1.0337955124647391e+00 -5.9030267124302198e-02
-2.7999999999999998e+00 +9.1472271005398795e+00 +0.0000000000000000e+00 -2.7999999608985902e+00 +1.1209900765644218e-02 -1.0337981629883548e+00 -5.9030530635194277e-02
-2.8999999999999999e+00 +9.1471976373559905e+00 +0.0000000000000000e+00 -2.8999999565577501e+00 +1.1209893144066051e-02 -1.0338008457768806e+00 -5.9030790523322808e-02
-3.0000000000000000e+00 +9.1471671403768209e+00 +0.0000000000000000e+00 -2.9999999519069700e+00 +1.1209897526591524e-02 -1.0338035515133412e+00 -5.9031047320889062e-02
-3.1000000000000001e+00 +9.1471356096023904e+00 +0.0000000000000000e+00 -3.0999999469355801e+00 +1.1209915901491127e-02 -1.0338062708800275e+00 -5.9031301560037622e-02
-3.2000000000000002e+00 +9.1471030450308994e+00 +0.0000000000000000e+00 -3.1999999416328699e+00 +1.1209950256954499e-02 -1.0338089945584668e+00 -5.9031553772851471e-02
-3.2999999999999998e+00 +9.1470694466641493e+00 +0.0000000000000000e+00 -3.2999999359881800e+00 +1.1210002581084601e-02 -1.0338117132293847e+00 -5.9031804491346519e-02
-3.3999999999999999e+00 +9.1470348145021205e+00 +0.0000000000000000e+00 -3.3999999299908001e+00 +1.1210074861892214e-02 -1.0338144175726902e+00 -5.9032054247467290e-02
-3.5000000000000000e+00 +9.1469991485430509e+00 +0.0000000000000000e+00 -3.4999999236300501e+00 +1.1210169087290266e-02 -1.0338170982674504e+00 -5.9032303573082257e-02
-3.6000000000000001e+00 +9.1469624487887007e+00 +0.0000000000000000e+00 -3.5999999168952499e+00 +1.1210286511657740e-02 -1.0338197491048922e+00 -5.9032552767680400e-02
-3.7000000000000002e+00 +9.1469247152390807e+00 +0.0000000000000000e+00 -3.6999999097757001e+00 +1.1210425455589512e-02 -1.0338223763284746e+00 -5.9032801201517979e-02
-3.7999999999999998e+00 +9.1468859478924092e+00 +0.0000000000000000e+00 -3.7999999022607200e+00 +1.1210583506282495e-02 -1.0338249892964471e+00 -5.9033048012593389e-02
-3.8999999999999999e+00 +9.1468461467522495e+00 +0.0000000000000000e+00 -3.8999998943396199e+00 +1.1210758250987074e-02 -1.0338275973691700e+00 -5.9033292338961138e-02
-4.0000000000000000e+00 +9.1468053118132708e+00 +0.0000000000000000e+00 -3.9999998860017101e+00 +1.1210947277012695e-02 -1.0338302099093135e+00 -5.9033533318738070e-02
-4.0999999999999996e+00 +9.1467634430807898e+00 +0.0000000000000000e+00 -4.0999998772363098e+00 +1.1211148171732577e-02 -1.0338328362819755e+00 -5.9033770090105776e-02
-4.2000000000000002e+00 +9.1467205405512608e+00 +0.0000000000000000e+00 -4.1999998680327302e+00 +1.1211358522589468e-02 -1.0338354858548970e+00 -5.9034001791317618e-02
-4.2999999999999998e+00 +9.1466766042264602e+00 +0.0000000000000000e+00 -4.2999998583802803e+00 +1.1211575917100512e-02 -1.0338381679985904e+00 -5.9034227560701785e-02
-4.4000000000000004e+00 +9.1466316341046099e+00 +0.0000000000000000e+00 -4.3999998482682798e+00 +1.1211797942862712e-02 -1.0338408920865307e+00 -5.9034446536666833e-02
-4.5000000000000000e+00 +9.1465856301892607e+00 +0.0000000000000000e+00 -4.4999998376860297e+00 +1.1212022187557931e-02 -1.0338436674952947e+00 -5.9034657857705668e-02
-4.5999999999999996e+00 +9.1465385924768707e+00 +0.0000000000000000e+00 -4.5999998266228497e+00 +1.1212246238958461e-02 -1.0338465036047617e+00 -5.9034860662401281e-02
-4.7000000000000002e+00 +9.1464905209674292e+00 +0.0000000000000000e+00 -4.6999998150680504e+00 +1.1212467684932000e-02 -1.0338494097982516e+00 -5.9035054089430522e-02
-4.7999999999999998e+00 +9.1464414156644995e+00 +0.0000000000000000e+00 -4.7999998030109499e+00 +1.1212684113446862e-02 -1.0338523954626895e+00 -5.9035237277568646e-02
-4.9000000000000004e+00 +9.1463912765645095e+00 +0.0000000000000000e+00 -4.8999997904408596e+00 +1.1212893112577529e-02 -1.0338554699887996e+00 -5.9035409365695270e-02
-5.0000000000000000e+00 +9.1463401036692602e+00 +0.0000000000000000e+00 -4.9999997773470897e+00 +1.1213092270509551e-02 -1.0338586427712377e+00 -5.9035569492797611e-02
-5.0999999999999996e+00 +9.1462878969787305e+00 +0.0000000000000000e+00 -5.0999997637189498e+00 +1.1213279175544997e-02 -1.0338619232087780e+00 -5.9035716797976014e-02
-5.2000000000000002e+00 +9.1462346564911599e+00 +0.0000000000000000e+00 -5.1999997495457499e+00 +1.1213451416107689e-02 -1.0338653207044755e+00 -5.9035850420448649e-02
-5.2999999999999998e+00 +9.1461803822083105e+00 +0.0000000000000000e+00 -5.2999997348168204e+00 +1.1213606580748317e-02 -1.0338688446658191e+00 -5.9035969499555606e-02
-5.4000000000000004e+00 +9.1461250741284204e+00 +0.0000000000000000e+00 -5.3999997195214604e+00 +1.1213742258149889e-02 -1.0338725045049182e+00 -5.9036073174764302e-02
-5.5000000000000000e+00 +9.1460687322550296e+00 +0.0000000000000000e+00 -5.4999997036489701e+00 +1.1213856037132720e-02 -1.0338763096386414e+00 -5.9036160585673368e-02
-5.5999999999999996e+00 +9.1460113565845909e+00 +0.0000000000000000e+00 -5.5999996871886903e+00 +1.1213946267236895e-02 -1.0338802672534926e+00 -5.9036231159194472e-02
-5.7000000000000002e+00 +9.1459529471188894e+00 +0.0000000000000000e+00 -5.6999996701299196e+00 +1.1214014340401335e-02 -1.0338843755973586e+00 -5.9036285471046231e-02
-5.7999999999999998e+00 +9.1458935038561293e+00 +0.0000000000000000e+00 -5.7999996524619597e+00 +1.1214062409074332e-02 -1.0338886306814636e+00 -5.9036324384141331e-02
-5.9000000000000004e+00 +9.1458330267980994e+00 +0.0000000000000000e+00 -5.8999996341741401e+00 +1.1214092625596880e-02 -1.0338930285150021e+00 -5.9036348761391522e-02
-6.0000000000000000e+00 +9.1457715159465796e+00 +0.0000000000000000e+00 -5.9999996152557697e+00 +1.1214107142196917e-02 -1.0338975651049995e+00 -5.9036359465706463e-02
-6.0999999999999996e+00 +9.1457089712962301e+00 +0.0000000000000000e+00 -6.0999995956961603e+00 +1.1214108110983707e-02 -1.0339022364561867e+00 -5.9036357359992811e-02
-6.2000000000000002e+00 +9.1456453928523906e+00 +0.0000000000000000e+00 -6.1999995754846200e+00 +1.1214097683941502e-02 -1.0339070385708111e+00 -5.9036343307150754e-02
-6.2999999999999998e+00 +9.1455807806132707e+00 +0.0000000000000000e+00 -6.2999995546104604e+00 +1.1214078012924185e-02 -1.0339119674485340e+00 -5.9036318170074285e-02
-6.4000000000000004e+00 +9.1455151345771100e+00 +0.0000000000000000e+00 -6.3999995330630002e+00 +1.1214051249649261e-02 -1.0339170190862690e+00 -5.9036282811648771e-02
-6.5000000000000000e+00 +9.1454484547456794e+00 +0.0000000000000000e+00 -6.4999995108315600e+00 +1.1214019545691895e-02 -1.0339221894780275e+00 -5.9036238094749054e-02
-6.5999999999999996e+00 +9.1453807411171901e+00 +0.0000000000000000e+00 -6.5999994879054302e+00 +1.1213985052479288e-02 -1.0339274746147922e+00 -5.9036184882238538e-02
-6.7000000000000002e+00 +9.1453119936934399e+00 +0.0000000000000000e+00 -6.6999994642739402e+00 +1.1213949921284615e-02 -1.0339328704843536e+00 -5.9036124036966758e-02
-6.7999999999999998e+00 +9.1452422124761892e+00 +0.0000000000000000e+00 -6.7999994399263999e+00 +1.1213916303221308e-02 -1.0339383730711735e+00 -5.9036056421768263e-02
-6.9000000000000004e+00 +9.1451713974618905e+00 +0.0000000000000000e+00 -6.8999994148521200e+00 +1.1213886349237333e-02 -1.0339439783562534e+00 -5.9035982899461478e-02
-7.0000000000000000e+00 +9.1450995486523308e+00 +0.0000000000000000e+00 -6.9999993890404202e+00 +1.1213862210109079e-02 -1.0339496823169634e+00 -5.9035904332845890e-02
-7.0999999999999996e+00 +9.1450266660474906e+00 +0.0000000000000000e+00 -7.0999993624805997e+00 +1.1213846036435689e-02 -1.0339554809269147e+00 -5.9035821584701394e-02
-7.2000000000000002e+00 +9.1449527496438208e+00 +0.0000000000000000e+00 -7.1999993351619702e+00 +1.1213839978633259e-02 -1.0339613701558166e+00 -5.9035735517786542e-02
-7.2999999999999998e+00 +9.1448777994484391e+00 +0.0000000000000000e+00 -7.2999993070738700e+00 +1.1213846186928625e-02 -1.0339673459693008e+00 -5.9035646994835704e-02
-7.4000000000000004e+00 +9.1448018154560096e+00 +0.0000000000000000e+00 -7.3999992782055797e+00 +1.1213866811354122e-02 -1.0339734043288282e+00 -5.9035556878559686e-02
-7.5000000000000000e+00 +9.1447247976682995e+00 +0.0000000000000000e+00 -7.4999992485464304e+00 +1.1213904001741212e-02 -1.0339795411915003e+00 -5.9035466031642177e-02
-7.5999999999999996e+00 +9.1446467460835503e+00 +0.0000000000000000e+00 -7.5999992180857303e+00 +1.1213959207685262e-02 -1.0339857506371106e+00 -5.9035374914670903e-02
-7.7000000000000002e+00 +9.1445676607035296e+00 +0.0000000000000000e+00 -7.6999991868127999e+00 +1.1214031078483200e-02 -1.0339920192502634e+00 -5.9035282379902430e-02
-7.7999999999999998e+00 +9.1444875415300100e+00 +0.0000000000000000e+00 -7.7999991547169403e+00 +1.1214117563419942e-02 -1.0339983317404724e+00 -5.9035186877497377e-02
-7.9000000000000004e+00 +9.1444063885594495e+00 +0.0000000000000000e+00 -7.8999991217874603e+00 +1.1214216611856790e-02 -1.0340046728152541e+00 -5.9035086857608297e-02
-8.0000000000000000e+00 +9.1443242017936104e+00 +0.0000000000000000e+00 -7.9999990880136904e+00 +1.1214326173234680e-02 -1.0340110271800524e+00 -5.9034980770377860e-02
-8.0999999999999996e+00 +9.1442409812307197e+00 +0.0000000000000000e+00 -8.0999990533849306e+00 +1.1214444197077995e-02 -1.0340173795382037e+00 -5.9034867065938697e-02
-8.1999999999999993e+00 +9.1441567268743391e+00 +0.0000000000000000e+00 -8.1999990178904891e+00 +1.1214568632997884e-02 -1.0340237145908664e+00 -5.9034744194411938e-02
-8.3000000000000007e+00 +9.1440714387209105e+00 +0.0000000000000000e+00 -8.2999989815196997e+00 +1.1214697430696117e-02 -1.0340300170369938e+00 -5.9034610605907437e-02
-8.4000000000000004e+00 +9.1439851167722104e+00 +0.0000000000000000e+00 -8.3999989442618492e+00 +1.1214828539968384e-02 -1.0340362715732552e+00 -5.9034464750521917e-02
-8.5000000000000000e+00 +9.1438977610300203e+00 +0.0000000000000000e+00 -8.4999989061062706e+00 +1.1214959910707915e-02 -1.0340424628939924e+00 -5.9034305078338421e-02
-8.5999999999999996e+00 +9.1438093714890005e+00 +0.0000000000000000e+00 -8.5999988670422596e+00 +1.1215089492909315e-02 -1.0340485756911868e+00 -5.9034130039426508e-02
-8.6999999999999993e+00 +9.1437199481544802e+00 +0.0000000000000000e+00 -8.6999988270591402e+00 +1.1215215236671567e-02 -1.0340545946543609e+00 -5.9033938083839332e-02
-8.8000000000000007e+00 +9.1436294910247007e+00 +0.0000000000000000e+00 -8.7999987861462294e+00 +1.1215335092202142e-02 -1.0340605044705713e+00 -5.9033727661614833e-02
-8.9000000000000004e+00 +9.1435380000978608e+00 +0.0000000000000000e+00 -8.8999987442928301e+00 +1.1215447009820344e-02 -1.0340662898243385e+00 -5.9033497222774275e-02
-9.0000000000000000e+00 +9.1434454753775292e+00 +0.0000000000000000e+00 -8.9999987014882503e+00 +1.1215548939960712e-02 -1.0340719353975794e+00 -5.9033245217320542e-02
-9.0999999999999996e+00 +9.1433519168619295e+00 +0.0000000000000000e+00 -9.0999986577218195e+00 +1.1215638833176913e-02 -1.0340774258695835e+00 -5.9032970095238842e-02
-9.1999999999999993e+00 +9.1432573245492801e+00 +0.0000000000000000e+00 -9.1999986129828297e+00 +1.1215714640145143e-02 -1.0340827459169453e+00 -5.9032670306495123e-02
-9.3000000000000007e+00 +9.1431616984413608e+00 +0.0000000000000000e+00 -9.2999985672606194e+00 +1.1215774311667610e-02 -1.0340878802135058e+00 -5.9032344301034906e-02
-9.4000000000000004e+00 +9.1430650385381700e+00 +0.0000000000000000e+00 -9.3999985205444805e+00 +1.1215815798676233e-02 -1.0340928134303100e+00 -5.9031990528783176e-02
-9.5000000000000000e+00 +9.1429673448397004e+00 +0.0000000000000000e+00 -9.4999984728237195e+00 +1.1215837052236183e-02 -1.0340975302355548e+00 -5.9031607439643176e-02
-9.5999999999999996e+00 +9.1428686173459699e+00 +0.0000000000000000e+00 -9.5999984240876799e+00 +1.1215836738219534e-02 -1.0341020188246892e+00 -5.9031193978057887e-02
-9.6999999999999993e+00 +9.1427688560551807e+00 +0.0000000000000000e+00 -9.6999983743256504e+00 +1.1215816381405081e-02 -1.0341062815136062e+00 -5.9030751066761977e-02
-9.8000000000000007e+00 +9.1426680609726798e+00 +0.0000000000000000e+00 -9.7999983235269408e+00 +1.1215778221325469e-02 -1.0341103241515688e+00 -5.9030280123006165e-02
-9.9000000000000004e+00 +9.1425662320913492e+00 +0.0000000000000000e+00 -9.8999982716808805e+00 +1.1215724497521080e-02 -1.0341141525914099e+00 -5.9029782563943277e-02
-1.0000000000000000e+01 +9.1424633694165305e+00 +0.0000000000000000e+00 -9.9999982187767706e+00 +1.1215657449539342e-02 -1.0341177726895809e+00 -5.9029259806622776e-02
-1.0100000000000000e+01 +9.1423594729446602e+00 +0.0000000000000000e+00 -1.0099998164803900e+01 +1.1215579316935389e-02 -1.0341211903063190e+00 -5.9028713267990557e-02
-1.0199999999999999e+01 +9.1422545426793000e+00 +0.0000000000000000e+00 -1.0199998109751700e+01 +1.1215492339271608e-02 -1.0341244113057146e+00 -5.9028144364884308e-02
-1.0300000000000001e+01 +9.1421485786168795e+00 +0.0000000000000000e+00 -1.0299998053609301e+01 +1.1215398756118048e-02 -1.0341274415558601e+00 -5.9027554514032479e-02
-1.0400000000000000e+01 +9.1420415807609707e+00 +0.0000000000000000e+00 -1.0399997996366100e+01 +1.1215300807052062e-02 -1.0341302869289242e+00 -5.9026945132049868e-02
-1.0500000000000000e+01 +9.1419335491080194e+00 +0.0000000000000000e+00 -1.0499997938011500e+01 +1.1215200731658673e-02 -1.0341329533012971e+00 -5.9026317635436559e-02
-1.0600000000000000e+01 +9.1418244836597893e+00 +0.0000000000000000e+00 -1.0599997878534600e+01 +1.1215100769530303e-02 -1.0341354465536714e+00 -5.9025673440573759e-02
-1.0699999999999999e+01 +9.1417143844180693e+00 +0.0000000000000000e+00 -1.0699997817925000e+01 +1.1215003160266855e-02 -1.0341377725711669e+00 -5.9025013963721701e-02
-1.0800000000000001e+01 +9.1416032513792906e+00 +0.0000000000000000e+00 -1.0799997756171701e+01 +1.1214910143475938e-02 -1.0341399372434528e+00 -5.9024340621017586e-02
-1.0900000000000000e+01 +9.1414910845470292e+00 +0.0000000000000000e+00 -1.0899997693264300e+01 +1.1214823958772475e-02 -1.0341419464648258e+00 -5.9023654828471196e-02
-1.1000000000000000e+01 +9.1413778839177091e+00 +0.0000000000000000e+00 -1.0999997629191901e+01 +1.1214746845779128e-02 -1.0341438061343595e+00 -5.9022958001964061e-02
-1.1100000000000000e+01 +9.1412636494931299e+00 +0.0000000000000000e+00 -1.1099997563943900e+01 +1.1214681044125943e-02 -1.0341455221559825e+00 -5.9022251557245171e-02
-1.1199999999999999e+01 +9.1411483812750394e+00 +0.0000000000000000e+00 -1.1199997497509599e+01 +1.1214628793450495e-02 -1.0341471004385996e+00 -5.9021536909928889e-02
-1.1300000000000001e+01 +9.1410320792599205e+00 +0.0000000000000000e+00 -1.1299997429878401e+01 +1.1214592333398032e-02 -1.0341485468962175e+00 -5.9020815475492684e-02
-1.1400000000000000e+01 +9.1409147434512903e+00 +0.0000000000000000e+00 -1.1399997361039500e+01 +1.1214573903621123e-02 -1.0341498674480258e+00 -5.9020088669273219e-02
-1.1500000000000000e+01 +9.1407963738456193e+00 +0.0000000000000000e+00 -1.1499997290982201e+01 +1.1214575743780037e-02 -1.0341510680185366e+00 -5.9019357906464995e-02
-1.1600000000000000e+01 +9.1406769704464494e+00 +0.0000000000000000e+00 -1.1599997219695799e+01 +1.1214599398441855e-02 -1.0341521546228718e+00 -5.9018624165144216e-02
-1.1699999999999999e+01 +9.1405565332520098e+00 +0.0000000000000000e+00 -1.1699997147169800e+01 +1.1214643631515493e-02 -1.0341531336207497e+00 -5.9017886675261914e-02
