# multipoles
# s[mm] polynom_b[n=0][T/m^n] polynom_b[n=1][T/m^n] polynom_b[n=2][T/m^n] polynom_b[n=3][T/m^n] polynom_b[n=4][T/m^n] polynom_b[n=5][T/m^n] polynom_b[n=6][T/m^n] 
-0.0000000000000000e+00 -1.0338929656832840e+00 +2.2901165949915403e+00 +1.6034485777436625e+01 +4.7526435890538971e+02 +9.5894204241360436e+04 -2.7003203002579096e+06 -5.0732285087153220e+08 
-1.0000000000000001e-01 -1.0338929015695486e+00 +2.2901751009942295e+00 +1.6002443180817576e+01 +4.7690668944028823e+02 +9.6335656881820178e+04 -2.7200020352941453e+06 -5.0903222654704988e+08 
-2.0000000000000001e-01 -1.0338928527039484e+00 +2.2902352587735835e+00 +1.5972539649418653e+01 +4.7823929602071701e+02 +9.6743687094434150e+04 -2.7375399599745749e+06 -5.1060901168648297e+08 
-2.9999999999999999e-01 -1.0338928232512172e+00 +2.2902974222450587e+00 +1.5945054672974639e+01 +4.7924303780430620e+02 +9.7110595498880444e+04 -2.7527716229185732e+06 -5.1200911634480876e+08 
-4.0000000000000002e-01 -1.0338928173761508e+00 +2.2903619453117310e+00 +1.5920267753803159e+01 +4.7989877434193846e+02 +9.7428682505759047e+04 -2.7655345750429998e+06 -5.1318844987704831e+08 
-5.0000000000000000e-01 -1.0338928392435540e+00 +2.2904291818655755e+00 +1.5898458402543710e+01 +4.8018736553935537e+02 +9.7690248390006818e+04 -2.7756663693495747e+06 -5.1410292126808274e+08 
-5.9999999999999998e-01 -1.0338928930183129e+00 +2.2904994858062913e+00 +1.5879906147788144e+01 +4.8008967113023175e+02 +9.7887593085459841e+04 -2.7830045579840094e+06 -5.1470843809193945e+08 
-6.9999999999999996e-01 -1.0338929828653969e+00 +2.2905732110331498e+00 +1.5864890535859237e+01 +4.7958655089512541e+02 +9.8013016180539722e+04 -2.7873866935026255e+06 -5.1496090646194404e+08 
-8.0000000000000004e-01 -1.0338931129499229e+00 +2.2906507114586474e+00 +1.5853691142744260e+01 +4.7865886428975654e+02 +9.8058816672365982e+04 -2.7886503268053955e+06 -5.1481622981316453e+08 
-9.0000000000000002e-01 -1.0338932874370905e+00 +2.2907323410239835e+00 +1.5846587565833808e+01 +4.7728746999718879e+02 +9.8017293113673513e+04 -2.7866330045866040e+06 -5.1423030956612647e+08 
-1.0000000000000000e+00 -1.0338935104922542e+00 +2.2908184536895959e+00 +1.5843859431689232e+01 +4.7545322620436224e+02 +9.7880743453153904e+04 -2.7811722710131845e+06 -5.1315904433728594e+08 
-1.1000000000000001e+00 -1.0338937862809805e+00 +2.2909094034479955e+00 +1.5845786408893288e+01 +4.7313699024188662e+02 +9.7641464764412332e+04 -2.7721056656828886e+06 -5.1155832857110524e+08 
-1.2000000000000000e+00 -1.0338941189689776e+00 +2.2910055443418527e+00 +1.5852648195633568e+01 +4.7031961805301819e+02 +9.7291753481905456e+04 -2.7592707205786956e+06 -5.0938405366004562e+08 
-1.3000000000000000e+00 -1.0338945127221963e+00 +2.2911072304532412e+00 +1.5864724537463182e+01 +4.6698196452911742e+02 +9.6823905040763697e+04 -2.7425049621173618e+06 -5.0659210617177254e+08 
-1.3999999999999999e+00 -1.0338949717067845e+00 +2.2912148159209473e+00 +1.5882295219989221e+01 +4.6310488299919689e+02 +9.6230214003687797e+04 -2.7216459082117355e+06 -5.0313836841325808e+08 
-1.5000000000000000e+00 -1.0338955000891674e+00 +2.2913286549455769e+00 +1.5905640080251294e+01 +4.5866922510949229e+02 +9.5502973831774914e+04 -2.6965310677016652e+06 -4.9897871730641794e+08 
-1.6000000000000001e+00 -1.0338961005515832e+00 +2.2914489580451520e+00 +1.5934918999700702e+01 +4.5366480257294273e+02 +9.4637391472216710e+04 -2.6670680925702336e+06 -4.9408463397194076e+08 
-1.7000000000000000e+00 -1.0338967697767398e+00 +2.2915754095867742e+00 +1.5969805643759011e+01 +4.4811486428092951e+02 +9.3640348421785660e+04 -2.6334302824936942e+06 -4.8848964557934779e+08 
-1.8000000000000000e+00 -1.0338975029321904e+00 +2.2917075744303861e+00 +1.6009850541293108e+01 +4.4205042956134002e+02 +9.2521651217850129e+04 -2.5958537302673431e+06 -4.8224270780748487e+08 
-1.8999999999999999e+00 -1.0338982951854823e+00 +2.2918450174720073e+00 +1.6054604226579595e+01 +4.3550251650888015e+02 +9.1291106267317795e+04 -2.5545745212066504e+06 -4.7539277568087488e+08 
-2.0000000000000000e+00 -1.0338991417042285e+00 +2.2919873036477365e+00 +1.6103617244840546e+01 +4.2850214180976491e+02 +8.9958519746727179e+04 -2.5098287319250265e+06 -4.6798880309257537e+08 
-2.1000000000000001e+00 -1.0339000376560217e+00 +2.2921339979300064e+00 +1.6156440142888997e+01 +4.2108032084438753e+02 +8.8533697784916294e+04 -2.4618524309049016e+06 -4.6007974366763526e+08 
-2.2000000000000002e+00 -1.0339009782085307e+00 +2.2922846653337841e+00 +1.6212623478589723e+01 +4.1326806744526596e+02 +8.7026446285488113e+04 -2.4108816769162193e+06 -4.5171454990416723e+08 
-2.2999999999999998e+00 -1.0339019585293363e+00 +2.2924388709060137e+00 +1.6271717798520459e+01 +4.0509639419335394e+02 +8.5446571363916970e+04 -2.3571525207115305e+06 -4.4294217526774848e+08 
-2.3999999999999999e+00 -1.0339029737860190e+00 +2.2925961797388603e+00 +1.6333273651047637e+01 +3.9659631198734189e+02 +8.3803879094510266e+04 -2.3009010023770193e+06 -4.3381157295725042e+08 
-2.5000000000000000e+00 -1.0339040191461344e+00 +2.2927561569630335e+00 +1.6396841579015522e+01 +3.8779883020275338e+02 +8.2108175663163420e+04 -2.2423631521575977e+06 -4.2437169664719087e+08 
-2.6000000000000001e+00 -1.0339050897771511e+00 +2.2929183677489555e+00 +1.6461972112458305e+01 +3.7873495662915752e+02 +8.0369267502514645e+04 -2.1817749900273662e+06 -4.1467150110541767e+08 
-2.7000000000000002e+00 -1.0339061808465098e+00 +2.2930823773060762e+00 +1.6528215775719175e+01 +3.6943569745894581e+02 +7.8596961167319052e+04 -2.1193725255017886e+06 -4.0475994160653061e+08 
-2.7999999999999998e+00 -1.0339072875215165e+00 +2.2932477508902283e+00 +1.6595123071707832e+01 +3.5993205704343211e+02 +7.6801063640029446e+04 -2.0553917561437672e+06 -3.9468597538573939e+08 
-2.8999999999999999e+00 -1.0339084049694198e+00 +2.2934140537931578e+00 +1.6662244489515196e+01 +3.5025503812899603e+02 +7.4991382184478178e+04 -1.9900686687717338e+06 -3.8449856091786110e+08 
-3.0000000000000000e+00 -1.0339095283573057e+00 +2.2935808513514750e+00 +1.6729130493927421e+01 +3.4043564161958398e+02 +7.3177724557616253e+04 -1.9236392380792608e+06 -3.7424665894008374e+08 
-3.1000000000000001e+00 -1.0339106528521711e+00 +2.2937477089426035e+00 +1.6795331530951891e+01 +3.3050486662004067e+02 +7.1369898902768778e+04 -1.8563394267170280e+06 -3.6397923191933358e+08 
-3.2000000000000002e+00 -1.0339117736208192e+00 +2.2939141919925543e+00 +1.6860398013491068e+01 +3.2049371018449079e+02 +6.9577714031216441e+04 -1.7884051837509961e+06 -3.5374524539730304e+08 
-3.2999999999999998e+00 -1.0339128858299504e+00 +2.2940798659642456e+00 +1.6923880332832496e+01 +3.1043316762999910e+02 +6.7810979212224047e+04 -1.7200724463878411e+06 -3.4359366699602109e+08 
-3.3999999999999999e+00 -1.0339139846460381e+00 +2.2942442963638143e+00 +1.6985328842411469e+01 +3.0035423231522356e+02 +6.6079504474739806e+04 -1.6515771385973825e+06 -3.3357346781489700e+08 
-3.5000000000000000e+00 -1.0339150652353666e+00 +2.2944070487525794e+00 +1.7044293859959609e+01 +2.9028789520050788e+02 +6.4393100574084296e+04 -1.5831551684267975e+06 -3.2373362227732587e+08 
-3.6000000000000001e+00 -1.0339161240347794e+00 +2.2945677647203118e+00 +1.7100464290391770e+01 +2.8026125686657087e+02 +6.2758830731475166e+04 -1.5150157311894132e+06 -3.1411006028454787e+08 
-3.7000000000000002e+00 -1.0339171625923413e+00 +2.2947262964485580e+00 +1.7154084747754940e+01 +2.7028888636472249e+02 +6.1172835954932139e+04 -1.4472768440298773e+06 -3.0468719018108910e+08 
-3.7999999999999998e+00 -1.0339181837418410e+00 +2.2948825258461887e+00 +1.7205539445236049e+01 +2.6038294789547678e+02 +5.9628534099735196e+04 -1.3800374196868767e+06 -2.9543665509437424e+08 
-3.8999999999999999e+00 -1.0339191903168852e+00 +2.2950363347632909e+00 +1.7255212566134553e+01 +2.5055560730107575e+02 +5.8119343658882084e+04 -1.3133963800260776e+06 -2.8633010127393848e+08 
-4.0000000000000000e+00 -1.0339201851509805e+00 +2.2951876049889446e+00 +1.7303488269436677e+01 +2.4081903215384347e+02 +5.6638683658536393e+04 -1.2474526568740502e+06 -2.7733917757180196e+08 
-4.0999999999999996e+00 -1.0339211710774940e+00 +2.2953362182486097e+00 +1.7350750690715955e+01 +2.3118539185633693e+02 +5.5179973639811833e+04 -1.1823051925920767e+06 -2.6843553534783953e+08 
-4.2000000000000002e+00 -1.0339221509296221e+00 +2.2954820561932565e+00 +1.7397383930721254e+01 +2.2166685796028381e+02 +5.3736633890911326e+04 -1.1180529419845771e+06 -2.5959082961037499e+08 
-4.2999999999999998e+00 -1.0339231275403524e+00 +2.2956250003995464e+00 +1.7443772054997918e+01 +2.1227560418859153e+02 +5.2302085452536878e+04 -1.0547948724594361e+06 -2.5077671903129619e+08 
-4.4000000000000004e+00 -1.0339241037426028e+00 +2.2957649323537748e+00 +1.7490299107868641e+01 +2.0302380691248857e+02 +5.0869749857122384e+04 -9.9262996683688113e+05 -2.4196486471235231e+08 
-4.5000000000000000e+00 -1.0339250823690449e+00 +2.2959017334576948e+00 +1.7537349092473345e+01 +1.9392364501967793e+02 +4.9433049513314290e+04 -9.3165722266514460e+05 -2.3312693202505225e+08 
-4.5999999999999996e+00 -1.0339260662521839e+00 +2.2960352850184726e+00 +1.7585305976306611e+01 +1.8498730018308231e+02 +4.7985407606976347e+04 -8.7197565373342042e+05 -2.2423459014881727e+08 
-4.7000000000000002e+00 -1.0339270582243494e+00 +2.2961654682365582e+00 +1.7634553692964488e+01 +1.7622695726827192e+02 +4.6520248068012901e+04 -8.1368429255443322e+05 -2.1525951190828207e+08 
-4.7999999999999998e+00 -1.0339280611176471e+00 +2.2962921642083884e+00 +1.7685476134930560e+01 +1.6765480426009705e+02 +4.5030995719175917e+04 -7.5688218994418369e+05 -2.0617337450937051e+08 
-4.9000000000000004e+00 -1.0339290777639896e+00 +2.2964152539176119e+00 +1.7738457154132522e+01 +1.5928303251776063e+02 +4.3511076264288145e+04 -7.0166841652726871e+05 -1.9694785947054574e+08 
-5.0000000000000000e+00 -1.0339301109950785e+00 +2.2965346182291380e+00 +1.7793880563298337e+01 +1.5112383699167310e+02 +4.1953916267131128e+04 -6.4814206407593330e+05 -1.8755465253502852e+08 
-5.0999999999999996e+00 -1.0339311636423658e+00 +2.2966501378807971e+00 +1.7852130126809726e+01 +1.4318941646919205e+02 +4.0352943336635879e+04 -5.9640224694921193e+05 -1.7796544457156983e+08 
-5.2000000000000002e+00 -1.0339322385371341e+00 +2.2967616934828778e+00 +1.7913589571873697e+01 +1.3549197358646458e+02 +3.8701585909648711e+04 -5.4654810215381172e+05 -1.6815193052570981e+08 
-5.2999999999999998e+00 -1.0339333385103919e+00 +2.2968691655059450e+00 +1.7978642575667603e+01 +1.2804371524462809e+02 +3.6993273505646997e+04 -4.9867879191528668e+05 -1.5808581065296051e+08 
-5.4000000000000004e+00 -1.0339344663929046e+00 +2.2969724342813760e+00 +1.8047672766610418e+01 +1.2085685256989548e+02 +3.5221436704533611e+04 -4.5289350338162394e+05 -1.4773879041244802e+08 
-5.5000000000000000e+00 -1.0339356250151399e+00 +2.2970713799951143e+00 +1.8121063719298018e+01 +1.1394360083151635e+02 +3.3379507220217987e+04 -4.0929144638570107e+05 -1.3708258063364160e+08 
-5.5999999999999996e+00 -1.0339368164854910e+00 +2.2971658707695748e+00 +1.8199122421975716e+01 +1.0731335135978478e+02 +3.1462079011727870e+04 -3.6794011088785599e+05 -1.2609340612547751e+08 
-5.7000000000000002e+00 -1.0339380401044715e+00 +2.2972557621365572e+00 +1.8281861507164315e+01 +1.0096420793738679e+02 +2.9468354064943527e+04 -3.2878320638139552e+05 -1.1476652403906497e+08 
-5.7999999999999998e+00 -1.0339392944903261e+00 +2.2973409167153918e+00 +1.8369222794963850e+01 +9.4891344385635207e+01 +2.7398678144936297e+04 -2.9173317049898126e+05 -1.0310219507893826e+08 
-5.9000000000000004e+00 -1.0339405782615378e+00 +2.2974211971399465e+00 +1.8461148154235026e+01 +8.9089934086945462e+01 +2.5253395809589063e+04 -2.5670243682079524e+05 -9.1100673460745469e+07 
-6.0000000000000000e+00 -1.0339418900367026e+00 +2.2974964660708190e+00 +1.8557579488364990e+01 +8.3555149766801662e+01 +2.3032850632601887e+04 -2.2360343500709219e+05 -7.8762207729764596e+07 
-6.0999999999999996e+00 -1.0339432284346768e+00 +2.2975665861899670e+00 +1.8658458752599650e+01 +7.8282163665054313e+01 +2.0737384867583420e+04 -1.9234859183532817e+05 -6.6087039153726324e+07 
-6.2000000000000002e+00 -1.0339445920744033e+00 +2.2976314202037655e+00 +1.8763727936940843e+01 +7.3266147506120873e+01 +1.8367339762006966e+04 -1.6285033111438007e+05 -5.3075403178047128e+07 
-6.2999999999999998e+00 -1.0339459795751385e+00 +2.2976908308462782e+00 +1.8873329092501105e+01 +6.8502272359933883e+01 +1.5923055034741583e+04 -1.3502107279704179e+05 -3.9727526890459053e+07 
-6.4000000000000004e+00 -1.0339473895562818e+00 +2.2977446808813222e+00 +1.8987204311658250e+01 +6.3985708625641600e+01 +1.3404869243304229e+04 -1.0877323296320091e+05 -2.6043630735114016e+07 
-6.5000000000000000e+00 -1.0339488206375143e+00 +2.2977928331041402e+00 +1.9105295748890342e+01 +5.9711625983967750e+01 +1.0813119364776518e+04 -8.4019223516530328e+04 -1.2023926457286941e+07 
-6.5999999999999996e+00 -1.0339502714387168e+00 +2.2978351503416565e+00 +1.9227545608202441e+01 +5.5675193398044001e+01 +8.1481410326587411e+03 -6.0671452221851570e+04 +2.3313817713879975e+06 
-6.7000000000000002e+00 -1.0339517405800347e+00 +2.2978714954597090e+00 +1.9353896155001550e+01 +5.1871578920557603e+01 +5.4102682883186917e+03 -3.8642321576913157e+04 +1.7022098602031942e+07 
-6.7999999999999998e+00 -1.0339532266818459e+00 +2.2979017313548384e+00 +1.9484289711965975e+01 +4.8295949945194444e+01 +2.5998336462689049e+03 -1.7844230316075555e+04 +3.2048037230613425e+07 
-6.9000000000000004e+00 -1.0339547283648585e+00 +2.2979257209717736e+00 +1.9618668671082606e+01 +4.4943472692961969e+01 -2.8283215209461059e+02 +1.8104295926333755e+03 +4.7409020618427306e+07 
-7.0000000000000000e+00 -1.0339562442499963e+00 +2.2979433272917649e+00 +1.9756975482580792e+01 +4.1809312586603504e+01 -3.2373999337290957e+03 +2.0409270729273954e+04 +6.3104880531253859e+07 
-7.0999999999999996e+00 -1.0339577729585514e+00 +2.2979544133383571e+00 +1.9899152674321158e+01 +3.8888634080861316e+01 -6.2635424903887433e+03 +3.8039911212704646e+04 +7.9135459501757935e+07 
-7.2000000000000002e+00 -1.0339593131120481e+00 +2.2979588421849013e+00 +2.0045142833821945e+01 +3.6176600445981109e+01 -9.3609342379522095e+03 +5.4789975952568959e+04 +9.5500609212218761e+07 
-7.2999999999999998e+00 -1.0339608633323729e+00 +2.2979564769518914e+00 +2.0194888630720666e+01 +3.3668373882142923e+01 -1.2529251669138019e+04 +7.0747095961541796e+04 +1.1220019271561988e+08 
-7.4000000000000004e+00 -1.0339624222416826e+00 +2.2979471808054597e+00 +2.0348332799083320e+01 +3.1359115555065706e+01 -1.5768173022556033e+04 +8.5998908100305169e+04 +1.2923408287710057e+08 
-7.5000000000000000e+00 -1.0339639884626219e+00 +2.2979308169619954e+00 +2.0505418171858302e+01 +2.9243985954632102e+01 -1.9077378919599116e+04 +1.0063304905238542e+05 +1.4660216507522225e+08 
-7.5999999999999996e+00 -1.0339655612415901e+00 +2.2979076146640214e+00 +2.0666037981153028e+01 +2.7310295124808842e+01 -2.2455056168046205e+04 +1.1476743622353153e+05 +1.6429581591562873e+08 
-7.7000000000000002e+00 -1.0339671423448045e+00 +2.2978795441878970e+00 +2.0829853124639783e+01 +2.5505664499324379e+01 -2.5892654137372101e+04 +1.2869097900478244e+05 +1.8226928408854121e+08 
-7.7999999999999998e+00 -1.0339687341831589e+00 +2.2978490855338904e+00 +2.0996457503835373e+01 +2.3765610176470535e+01 -2.9379723603780436e+04 +1.4274784175512407e+05 +2.0046660224596038e+08 
-7.9000000000000004e+00 -1.0339703391686168e+00 +2.2978187185575605e+00 +2.1165445126987233e+01 +2.2025651330851272e+01 -3.2905817037460874e+04 +1.5728217124088708e+05 +2.1883181004868492e+08 
-8.0000000000000000e+00 -1.0339719597142596e+00 +2.2977909229417359e+00 +2.1336410125492094e+01 +2.0221311116123616e+01 -3.6460488985322052e+04 +1.7263809350783142e+05 +2.3730895597901493e+08 
-8.0999999999999996e+00 -1.0339735982343443e+00 +2.2977681781883534e+00 +2.1508946756640125e+01 +1.8288116860551888e+01 -4.0033296105301961e+04 +1.8915971281849555e+05 +2.5584209744095436e+08 
-8.1999999999999993e+00 -1.0339752571442884e+00 +2.2977529636083789e+00 +2.1682649404199008e+01 +1.6161600358556385e+01 -4.3613797164707197e+04 +2.0719110996416098e+05 +2.7437530070117211e+08 
-8.3000000000000007e+00 -1.0339769388607913e+00 +2.2977477583160848e+00 +2.1857112588731848e+01 +1.3777297972986267e+01 -4.7191553226326054e+04 +2.2707634178701803e+05 +2.9285264173941725e+08 
-8.4000000000000004e+00 -1.0339786458017868e+00 +2.2977550412322088e+00 +2.2031930965101477e+01 +1.1070750534209376e+01 -5.0756127592331162e+04 +2.4915944181433049e+05 +3.1121820594347614e+08 
-8.5000000000000000e+00 -1.0339803803865075e+00 +2.2977772910711129e+00 +2.2206699327978203e+01 +7.9775036765186673e+00 -5.4297085892801093e+04 +2.7378441836515360e+05 +3.2941608847085029e+08 
-8.5999999999999996e+00 -1.0339821450355373e+00 +2.2978169863341833e+00 +2.2381012615040053e+01 +4.4331079848904364e+00 -5.7803996132484892e+04 +3.0129525377695099e+05 +3.4739039442177927e+08 
-8.6999999999999993e+00 -1.0339839421707646e+00 +2.2978766053140913e+00 +2.2554465906661171e+01 +3.7311886387057119e-01 -6.1266428680485267e+04 +3.3203590523366514e+05 +3.6508523876520318e+08 
-8.8000000000000007e+00 -1.0339857742155816e+00 +2.2979586260790019e+00 +2.2726654443718552e+01 -4.2669030494143421e+00 -6.4673956590257018e+04 +3.6635030239664577e+05 +3.8244474779918450e+08 
-8.9000000000000004e+00 -1.0339876435946800e+00 +2.2980655264719121e+00 +2.2897173604096931e+01 -9.5513919028961265e+00 -6.8016155141784955e+04 +4.0458234762810456e+05 +3.9941305692434275e+08 
-9.0000000000000000e+00 -1.0339895527343275e+00 +2.2981997841074926e+00 +2.3065618937927411e+01 -1.5544776559330016e+01 -7.1282602505356554e+04 +4.4707591563754302e+05 +4.1593431378023338e+08 
-9.0999999999999996e+00 -1.0339915040622247e+00 +2.2983638763626812e+00 +2.3231586145693733e+01 -2.2311480348663046e+01 -7.4462879305332419e+04 +4.9417485204503103e+05 +4.3195267609463686e+08 
-9.1999999999999993e+00 -1.0339935000076224e+00 +2.2985602803723046e+00 +2.3394671093619408e+01 -2.9915920992285649e+01 -7.7546568904796877e+04 +5.4622297309507814e+05 +4.4741231300759298e+08 
-9.3000000000000007e+00 -1.0339955430013581e+00 +2.2987914730264096e+00 +2.3554469819108483e+01 -3.8422510541137278e+01 -8.0523257500287495e+04 +6.0356406532349007e+05 +4.6225740548582608e+08 
-9.4000000000000004e+00 -1.0339976354758353e+00 +2.2990599309609694e+00 +2.3710578525150002e+01 -4.7895655129503687e+01 -8.3382533997035192e+04 +6.6654188415818766e+05 +4.7643214566374552e+08 
-9.5000000000000000e+00 -1.0339997798650498e+00 +2.2993681305622289e+00 +2.3862593583666989e+01 -5.8399755418324084e+01 -8.6113990108919141e+04 +7.3550015475503285e+05 +4.8988073720830405e+08 
-9.5999999999999996e+00 -1.0340019766420927e+00 +2.2997175759282791e+00 +2.4010128230796276e+01 -6.9975304632963272e+01 -8.8708738564707630e+04 +8.1065053589964611e+05 +5.0255721206828213e+08 
-9.6999999999999993e+00 -1.0340042175929582e+00 +2.3001053130185429e+00 +2.4152866806164468e+01 -8.2549377513071065e+01 -9.1164642723465935e+04 +8.9157035963969608e+05 +5.1446010530210978e+08 
-9.8000000000000007e+00 -1.0340064920810355e+00 +2.3005271138118597e+00 +2.4290511007947089e+01 -9.6015610386753352e+01 -9.3481441154747707e+04 +9.7764729928485746e+05 +5.2560062318105155e+08 
-9.9000000000000004e+00 -1.0340087894668968e+00 +2.3009787506682535e+00 +2.4422762201391087e+01 -1.1026764572752171e+02 -9.5658866260397728e+04 +1.0682690454051965e+06 +5.3598994338981575e+08 
-1.0000000000000000e+01 -1.0340110991083058e+00 +2.3014559964680945e+00 +2.4549321409897424e+01 -1.2519913845737281e+02 -9.7696643731646269e+04 +1.1628233529544426e+06 +5.4563921082957923e+08 
-1.0100000000000000e+01 -1.0340134103601910e+00 +2.3019546246307243e+00 +2.4669889304899492e+01 -1.4070375647085939e+02 -9.9594492338752985e+04 +1.2606980441793599e+06 +5.5455953655637109e+08 
