# multipoles
# s[mm] polynom_b[n=0][T/m^n] polynom_b[n=1][T/m^n] polynom_b[n=2][T/m^n] polynom_b[n=3][T/m^n] polynom_b[n=4][T/m^n] polynom_b[n=5][T/m^n] polynom_b[n=6][T/m^n] 
+0.0000000000000000e+00 -1.0329461828688025e+00 +2.3252396307641057e+00 +1.1108730786641770e+01 -1.0394905442499376e+03 +1.4654893530360216e+05 +5.7807348111422556e+06 -5.6894952075411999e+08 
+1.0000000000000001e-01 -1.0329472230416030e+00 +2.3252877999325183e+00 +1.1122727680597514e+01 -1.0385728385936488e+03 +1.4632579618211873e+05 +5.7731522930657929e+06 -5.6873171480242455e+08 
+2.0000000000000001e-01 -1.0329483648809985e+00 +2.3252872700021245e+00 +1.1142302552212819e+01 -1.0363564404275960e+03 +1.4601201376844442e+05 +5.7588316525941808e+06 -5.6807616676811767e+08 
+3.0000000000000004e-01 -1.0329496124020592e+00 +2.3252352099061993e+00 +1.1167503904801002e+01 -1.0327666550128558e+03 +1.4560629534282399e+05 +5.7373495263400953e+06 -5.6696923590109396e+08 
+4.0000000000000002e-01 -1.0329509696195145e+00 +2.3251287885604506e+00 +1.1198380211058563e+01 -1.0277287874994622e+03 +1.4510734854624447e+05 +5.7082825501098456e+06 -5.6539728230623889e+08 
+5.0000000000000000e-01 -1.0329524405476549e+00 +2.3249651748811462e+00 +1.1234979902246192e+01 -1.0211681434724823e+03 +1.4451388157221244e+05 +5.6712073618735978e+06 -5.6334666780757105e+08 
+5.9999999999999998e-01 -1.0329540280632339e+00 +2.3247423486447900e+00 +1.1277301253905865e+01 -1.0130312826607623e+03 +1.4382599020046921e+05 +5.6258161953759650e+06 -5.6081294059957707e+08 
+6.9999999999999996e-01 -1.0329557305153685e+00 +2.3244615412524579e+00 +1.1325140017144282e+01 -1.0033503907518252e+03 +1.4304939028675298e+05 +5.5722687104363767e+06 -5.5782880892728543e+08 
+7.9999999999999993e-01 -1.0329575451260995e+00 +2.3241247990738683e+00 +1.1378240747912775e+01 -9.9217921398355338e+02 +1.4219122172927996e+05 +5.5108426954454826e+06 -5.5443638202315485e+08 
+8.9999999999999991e-01 -1.0329594691171302e+00 +2.3237341684733499e+00 +1.1436347967699362e+01 -9.7957149918154471e+02 +1.4125862494408261e+05 +5.4418159439841462e+06 -5.5067777107367373e+08 
+9.9999999999999989e-01 -1.0329614997097720e+00 +2.3232916957998841e+00 +1.1499206155081154e+01 -9.6558099351802298e+02 +1.4025874105072994e+05 +5.3654662538469955e+06 -5.4659509020137179e+08 
+1.0999999999999999e+00 -1.0329636341249802e+00 +2.3227994273978241e+00 +1.1566559748638120e+01 -9.5026144493277673e+02 +1.3919871184253745e+05 +5.2820714301076857e+06 -5.4223045642952466e+08 
+1.2000000000000000e+00 -1.0329658695833825e+00 +2.3222594095946674e+00 +1.1638153150095281e+01 -9.3366660182892429e+02 +1.3808567974431190e+05 +5.1919092837976199e+06 -5.3762598955621397e+08 
+1.3000000000000000e+00 -1.0329682033052934e+00 +2.3216736887074885e+00 +1.1713730723899413e+01 -9.1585021335107751e+02 +1.3692678784867402e+05 +5.0952576340793753e+06 -5.3282381244074339e+08 
+1.4000000000000001e+00 -1.0329706325107371e+00 +2.3210443110404153e+00 +1.1793036799376019e+01 -8.9686602937413397e+02 +1.3572917989581040e+05 +4.9923943086720910e+06 -5.2786605099588197e+08 
+1.5000000000000002e+00 -1.0329731544194047e+00 +2.3203733228878187e+00 +1.1875815663464794e+01 -8.7676780068408118e+02 +1.3450000043753412e+05 +4.8835971454481725e+06 -5.2279483507098579e+08 
+1.6000000000000003e+00 -1.0329757662507633e+00 +2.3196627705282995e+00 +1.1961811573947582e+01 -8.5560927887784942e+02 +1.3324639460535906e+05 +4.7691439923583465e+06 -5.1765229743665618e+08 
+1.7000000000000004e+00 -1.0329784652240004e+00 +2.3189147002295094e+00 +1.2050768750155799e+01 -8.3344421656441546e+02 +1.3197550831549658e+05 +4.6493127090928936e+06 -5.1248057486699444e+08 
+1.8000000000000005e+00 -1.0329812485580390e+00 +2.3181311582415547e+00 +1.2142431374096130e+01 -8.1032636727211525e+02 +1.3069448826644773e+05 +4.5243811671158196e+06 -5.0732180821468955e+08 
+1.9000000000000006e+00 -1.0329841134716120e+00 +2.3173141908028541e+00 +1.2236543598738310e+01 -7.8630948567310270e+02 +1.2941048180562201e+05 +4.3946272514244039e+06 -5.0221814187561607e+08 
+2.0000000000000004e+00 -1.0329870571832498e+00 +2.3164658441334569e+00 +1.2332849545035016e+01 -7.6144732747969499e+02 +1.2813063700699137e+05 +4.2603288605183791e+06 -4.9721172424568367e+08 
+2.1000000000000005e+00 -1.0329900769112064e+00 +2.3155881644466469e+00 +1.2431093290146880e+01 -7.3579364985271320e+02 +1.2686210293007671e+05 +4.1217639092634637e+06 -4.9234470908520645e+08 
+2.2000000000000006e+00 -1.0329931698736443e+00 +2.3146831979311697e+00 +1.2531018891316885e+01 -7.0940221096087544e+02 +1.2561202917110894e+05 +3.9792103268599915e+06 -4.8765925342575043e+08 
+2.3000000000000007e+00 -1.0329963332885197e+00 +2.3137529907627790e+00 +1.2632370368785173e+01 -6.8232677039037753e+02 +1.2438756622592123e+05 +3.8329460597319799e+06 -4.8319751943839967e+08 
+2.4000000000000008e+00 -1.0329995643736494e+00 +2.3127995891013806e+00 +1.2734891713233283e+01 -6.5462108913187399e+02 +1.2319586536339241e+05 +3.6832490719550233e+06 -4.7900167389925915e+08 
+2.5000000000000009e+00 -1.0330028603466890e+00 +2.3118250390924726e+00 +1.2838326881559912e+01 -6.2633892974895105e+02 +1.2204407873026872e+05 +3.5303973468720475e+06 -4.7511388878998148e+08 
+2.6000000000000010e+00 -1.0330062177403534e+00 +2.3108316427273001e+00 +1.2942463151083189e+01 -5.9754051597326600e+02 +1.2093751303339157e+05 +3.3747059304982056e+06 -4.7156523480493027e+08 
+2.7000000000000011e+00 -1.0330096304971126e+00 +2.3098226127975208e+00 +1.3047274849527010e+01 -5.6830770880340424e+02 +1.1987384548621546e+05 +3.2166129502848117e+06 -4.6834128801009387e+08 
+2.8000000000000012e+00 -1.0330130919509262e+00 +2.3088013613159912e+00 +1.3152786943308694e+01 -5.3872671809521523e+02 +1.1884877180106593e+05 +3.0565809862723015e+06 -4.6541591095293725e+08 
+2.9000000000000012e+00 -1.0330165954362314e+00 +2.3077713002787643e+00 +1.3259024451113971e+01 -5.0888375265897662e+02 +1.1785798677812009e+05 +2.8950726117655816e+06 -4.6276296211281449e+08 
+3.0000000000000013e+00 -1.0330201342879444e+00 +2.3067358416676216e+00 +1.3366012442957929e+01 -4.7886502021415220e+02 +1.1689718433050960e+05 +2.7325503925664350e+06 -4.6035629602936488e+08 
+3.1000000000000014e+00 -1.0330237018415251e+00 +2.3056983974589773e+00 +1.3473776048352502e+01 -4.4875672749656798e+02 +1.1596205733446515e+05 +2.5694768870540494e+06 -4.5816976259845757e+08 
+3.2000000000000015e+00 -1.0330272914330705e+00 +2.3046623796123447e+00 +1.3582340466113095e+01 -4.1864507976210297e+02 +1.1504829744961097e+05 +2.4063146427540882e+06 -4.5617720622831309e+08 
+3.3000000000000016e+00 -1.0330308963993216e+00 +2.3036312000803032e+00 +1.3691730966821263e+01 -3.8861628092036739e+02 +1.1415159506618480e+05 +2.2435261965580876e+06 -4.5435246556505179e+08 
+3.4000000000000017e+00 -1.0330345100777485e+00 +2.3026082708028617e+00 +1.3801972901269755e+01 -3.5875653322544440e+02 +1.1326763915727584e+05 +2.0815740724150601e+06 -4.5266937281889331e+08 
+3.5000000000000018e+00 -1.0330381258066186e+00 +2.3015970037088493e+00 +1.3913091709054724e+01 -3.2915203714869267e+02 +1.1239211711589618e+05 +1.9209207800193615e+06 -4.5110175298222178e+08 
+3.6000000000000019e+00 -1.0330417369250595e+00 +2.3006008107198732e+00 +1.4025112927535595e+01 -2.9988899134098750e+02 +1.1152071457786244e+05 +1.7620288140497094e+06 -4.4962342296383065e+08 
+3.7000000000000020e+00 -1.0330453367730408e+00 +2.2996231037423058e+00 +1.4138062186310819e+01 -2.7105359225859831e+02 +1.1064911554715985e+05 +1.6053606514924155e+06 -4.4820819222982699e+08 
+3.8000000000000020e+00 -1.0330489186915575e+00 +2.2986672946749129e+00 +1.4251965232139634e+01 -2.4273203420367858e+02 +1.0977300191202958e+05 +1.4513787512622240e+06 -4.4682986047234392e+08 
+3.9000000000000021e+00 -1.0330524760225630e+00 +2.2977367954080439e+00 +1.4366847918623664e+01 -2.1501050916857369e+02 +1.0888805364979034e+05 +1.3005455528166799e+06 -4.4546221859566444e+08 
+4.0000000000000018e+00 -1.0330560021091260e+00 +2.2968350178173287e+00 +1.4482736226743850e+01 -1.8797520648186918e+02 +1.0798994843622726e+05 +1.1533234735145115e+06 -4.4407904685540277e+08 
+4.1000000000000014e+00 -1.0330594902954258e+00 +2.2959653737723555e+00 +1.4599656262612443e+01 -1.6171231291756030e+02 +1.0707436169464921e+05 +1.0101749087425563e+06 -4.4265411509807801e+08 
+4.2000000000000011e+00 -1.0330629339268593e+00 +2.2951312751315291e+00 +1.4717634270943305e+01 -1.3630801237871250e+02 +1.0613696634152065e+05 +8.7156222949765262e+05 -4.4116118155190086e+08 
+4.3000000000000007e+00 -1.0330663263500350e+00 +2.2943361337436690e+00 +1.4836696633911998e+01 -1.1184848579836111e+02 +1.0517343281131441e+05 +7.3794778129878954e+05 -4.3957399294535506e+08 
+4.4000000000000004e+00 -1.0330696609128882e+00 +2.2935833614479804e+00 +1.4956869884891523e+01 -8.8419910971886054e+01 +1.0417942879981411e+05 +6.0979388263026439e+05 -4.3786628329190487e+08 
+4.5000000000000000e+00 -1.0330729309647289e+00 +2.2928763700702746e+00 +1.5078180713323329e+01 -6.6108462391258811e+01 +1.0315061916886004e+05 +4.8756282406837505e+05 -4.3601177338266009e+08 
+4.5999999999999996e+00 -1.0330761315403298e+00 +2.2922173458938242e+00 +1.5200679000252489e+01 -4.4972639600484982e+01 +1.0208264540954721e+05 +3.7157461126877437e+05 -4.3398388413511616e+08 
+4.6999999999999993e+00 -1.0330792640627986e+00 +2.2916036545226270e+00 +1.5324525106084959e+01 -2.4961067286179468e+01 +1.0097053076112749e+05 +2.6157624675515931e+05 -4.3175188379495120e+08 
+4.7999999999999989e+00 -1.0330823314627251e+00 +2.2910314728803578e+00 +1.5449911009532498e+01 -5.9950003690137610e+00 +9.9809018523369581e+04 +1.5716983270374543e+05 -4.2928326532794416e+08 
+4.8999999999999986e+00 -1.0330853366700667e+00 +2.2904969779305318e+00 +1.5577028636672939e+01 +1.2004306144807744e+01 +9.8592852842746943e+04 +5.7957464250543599e+04 -4.2654552530327511e+08 
+4.9999999999999982e+00 -1.0330882826140912e+00 +2.2899963466916091e+00 +1.5706069854663427e+01 +2.9115596598127343e+01 +9.7316778838591170e+04 -3.6458766319387461e+04 -4.2350616459240842e+08 
+5.0999999999999979e+00 -1.0330911722233418e+00 +2.2895257562383020e+00 +1.5837226470068675e+01 +4.5417614665607239e+01 +9.5975542616212202e+04 -1.2647676977142924e+05 -4.2013268838276744e+08 
+5.1999999999999975e+00 -1.0330940084255662e+00 +2.2890813837033370e+00 +1.5970690219868754e+01 +6.0989103341092807e+01 +9.4563891438441889e+04 -2.1249446017695597e+05 -4.1639260699590009e+08 
+5.2999999999999972e+00 -1.0330967941476492e+00 +2.2886594062823580e+00 +1.6106652767033260e+01 +7.5908804797434001e+01 +9.3076573783355605e+04 -2.9490975433932093e+05 -4.1225343609177262e+08 
+5.3999999999999968e+00 -1.0330995323156438e+00 +2.2882560012392092e+00 +1.6245305703742542e+01 +9.0255460268819860e+01 +9.1508339287797178e+04 -3.7412057143765548e+05 -4.0768269641548991e+08 
+5.4999999999999964e+00 -1.0331022258546001e+00 +2.2878673459002754e+00 +1.6386840533930389e+01 +1.0410781021561633e+02 +8.9853939053418959e+04 -4.5052483421852469e+05 -4.0264791518392360e+08 
+5.5999999999999961e+00 -1.0331048776885956e+00 +2.2874896176697530e+00 +1.6531448676983974e+01 +1.1754459391951619e+02 +8.8108125575584185e+04 -5.2452046697725065e+05 -3.9711662574545449e+08 
+5.6999999999999957e+00 -1.0331074907406230e+00 +2.2871189940207008e+00 +1.6679321456165084e+01 +1.3064454976731517e+02 +8.6265652949003968e+04 -5.9650539750970178e+05 -3.9105636852177882e+08 
+5.7999999999999954e+00 -1.0331100679326155e+00 +2.2867516525111489e+00 +1.6830650104048757e+01 +1.4348641477651688e+02 +8.4321276748430872e+04 -6.6687755455883942e+05 -3.8443469039994270e+08 
+5.8999999999999950e+00 -1.0331126121852885e+00 +2.2863837707749113e+00 +1.6985625742697753e+01 +1.5614892492287674e+02 +8.2269754404602514e+04 -7.3603487012378150e+05 -3.7721914651477593e+08 
+5.9999999999999947e+00 -1.0331151264182217e+00 +2.2860115265295926e+00 +1.7144439397891965e+01 +1.6871081487880323e+02 +8.0105844910194923e+04 -8.0437527808688837e+05 -3.6937729879297000e+08 
+6.0999999999999943e+00 -1.0331176135496554e+00 +2.2856310975823035e+00 +1.7307281973289459e+01 +1.8125081792023468e+02 +7.7824309310273471e+04 -8.7229671410079882e+05 -3.6087671828152150e+08 
+6.1999999999999940e+00 -1.0331200764965205e+00 +2.2852386618320542e+00 +1.7474344257257044e+01 +1.9384766584097335e+02 +7.5419910554368122e+04 -9.4019711528620648e+05 -3.5168498439895588e+08 
+6.2999999999999936e+00 -1.0331225181744152e+00 +2.2848303972677306e+00 +1.7645816921105599e+01 +2.0658008903919438e+02 +7.2887413522971765e+04 -1.0084744210292947e+06 -3.4176968504329836e+08 
+6.3999999999999932e+00 -1.0331249414974943e+00 +2.2844024819755950e+00 +1.7821890506809424e+01 +2.1952681633695909e+02 +7.0221585247698007e+04 -1.0775265722769680e+06 -3.3109841760258698e+08 
+6.4999999999999929e+00 -1.0331273493783892e+00 +2.2839510941242112e+00 +1.8002755417459124e+01 +2.3276657614102606e+02 +6.7417195185018674e+04 -1.1477515198757101e+06 -3.1963879053543681e+08 
+6.5999999999999925e+00 -1.0331297435364442e+00 +2.2834733158862601e+00 +1.8188469967231775e+01 +2.4636194141861824e+02 +6.4472026423650328e+04 -1.2194724744241326e+06 -3.0737456929236269e+08 
+6.6999999999999922e+00 -1.0331321210928572e+00 +2.2829701058254006e+00 +1.8378513207323405e+01 +2.6030042602477511e+02 +6.1396830586326621e+04 -1.2926443176096736e+06 -2.9435844111773241e+08 
+6.7999999999999918e+00 -1.0331344780627105e+00 +2.2824434642356648e+00 +1.8572205292772118e+01 +2.7454803420894206e+02 +5.8205881922068838e+04 -1.3671116379125870e+06 -2.8066174112499905e+08 
+6.8999999999999915e+00 -1.0331368104616283e+00 +2.2818953915853273e+00 +1.8768866417798463e+01 +2.8907076372772178e+02 +5.4913454165004252e+04 -1.4427189783388700e+06 -2.6635580274756029e+08 
+6.9999999999999911e+00 -1.0331391143057447e+00 +2.2813278884676929e+00 +1.8967816816328568e+01 +3.0383460772339293e+02 +5.1533820446516947e+04 -1.5193108504351708e+06 -2.5151195688695097e+08 
+7.0999999999999908e+00 -1.0331413856117668e+00 +2.2807429556090302e+00 +1.9168376768717430e+01 +3.1880555443150826e+02 +4.8081253171349927e+04 -1.5967317322706096e+06 -2.3620153132713261e+08 
+7.1999999999999904e+00 -1.0331436203970197e+00 +2.2801425938682285e+00 +1.9369866607013453e+01 +3.3394958711358646e+02 +4.4570023916742386e+04 -1.6748260677128411e+06 -2.2049585024711353e+08 
+7.2999999999999901e+00 -1.0331458146794126e+00 +2.2795288042411488e+00 +1.9571606708235045e+01 +3.4923268388008233e+02 +4.1014403579641606e+04 -1.7534382651033415e+06 -2.0446623497055721e+08 
+7.3999999999999897e+00 -1.0331479644774932e+00 +2.2789035878673278e+00 +1.9772917501072126e+01 +3.6462081744096122e+02 +3.7428662245766267e+04 -1.8324126955489283e+06 -1.8818400332889518e+08 
+7.4999999999999893e+00 -1.0331500658104831e+00 +2.2782689460288412e+00 +1.9973119468147672e+01 +3.8007995507171177e+02 +3.3827069158472012e+04 -1.9115936923891951e+06 -1.7172046953748751e+08 
+7.5999999999999890e+00 -1.0331521146983145e+00 +2.2776268801584640e+00 +2.0171533150018647e+01 +3.9557605830753943e+02 +3.0223892647243818e+04 -1.9908255490915482e+06 -1.5514694386621380e+08 
+7.6999999999999886e+00 -1.0331541071616170e+00 +2.2769793918346473e+00 +2.0367479141912469e+01 +4.1107508304714332e+02 +2.6633400199026797e+04 -2.0699525196195198e+06 -1.3853473299832395e+08 
+7.7999999999999883e+00 -1.0331560392217616e+00 +2.2763284827985180e+00 +2.0560278098341840e+01 +4.2654297898028199e+02 +2.3069858373055951e+04 -2.1488188147434783e+06 -1.2195513962694639e+08 
+7.8999999999999879e+00 -1.0331579069008914e+00 +2.2756761549458222e+00 +2.0749250735188038e+01 +4.4194568977409568e+02 +1.9547532772467606e+04 -2.2272686028582836e+06 -1.0547946234537701e+08 
+7.9999999999999876e+00 -1.0331597062219804e+00 +2.2750244103349613e+00 +2.0933717836578296e+01 +4.5724915277309577e+02 +1.6080687915237373e+04 -2.3051460079291277e+06 -8.9178995033292994e+07 
+8.0999999999999872e+00 -1.0331614332087680e+00 +2.2743752511897783e+00 +2.1113000244698835e+01 +4.7241929885919376e+02 +1.2683587439911400e+04 -2.3822951083717421e+06 -7.3125027864447862e+07 
+8.1999999999999869e+00 -1.0331630838858590e+00 +2.2737306799017092e+00 +2.1286418871327626e+01 +4.8742205232678003e+02 +9.3704938890173235e+03 -2.4585599360289844e+06 -5.7388846274425104e+07 
+8.2999999999999865e+00 -1.0331646542787520e+00 +2.2730926990407405e+00 +2.1453294700622212e+01 +5.0222333049947895e+02 +6.1556686644495257e+03 -2.5337844736209083e+06 -4.2041730773788594e+07 
+8.3999999999999861e+00 -1.0331661404138186e+00 +2.2724633113455326e+00 +2.1612948784411966e+01 +5.1678904397416454e+02 +3.0533721240407554e+03 -2.6078126559219765e+06 -2.7154957414499667e+07 
+8.4999999999999858e+00 -1.0331675383184693e+00 +2.2718445198039103e+00 +2.1764702271191418e+01 +5.3108509364617282e+02 +7.7862884337877574e+01 -2.6804883547053630e+06 -1.2799794370891949e+07 
+8.5999999999999854e+00 -1.0331688458383330e+00 +2.2712383079333369e+00 +2.1908067661000256e+01 +5.4507430690445665e+02 -2.7601726471030834e+03 -2.7516340755028492e+06 +9.6877720000251697e+05 
+8.6999999999999851e+00 -1.0331700680021554e+00 +2.2706463297566724e+00 +2.2043315860373699e+01 +5.5871406453009729e+02 -5.4638572636461668e+03 -2.8210173909553043e+06 +1.4157861150141757e+07 
+8.7999999999999847e+00 -1.0331712116260992e+00 +2.2700700972537544e+00 +2.2170909109825839e+01 +5.7196186834451044e+02 -8.0397249646147857e+03 -2.8883983183324328e+06 +2.6789680137907948e+07 
+8.8999999999999844e+00 -1.0331722835272779e+00 +2.2695111219723270e+00 +2.2291309758997148e+01 +5.8477523349076887e+02 -1.0494311515007124e+04 -2.9535369515436157e+06 +3.8886463713161044e+07 
+8.9999999999999840e+00 -1.0331732905236790e+00 +2.2689709150376465e+00 +2.2404980252097147e+01 +5.9711168873265831e+02 -1.2834154188540364e+04 -3.0161934660722921e+06 +5.0470447336705409e+07 
+9.0999999999999837e+00 -1.0331742394341761e+00 +2.2684509871347163e+00 +2.2512383129622364e+01 +6.0892877702243379e+02 -1.5065791797547936e+04 -3.0761281223788904e+06 +6.1563872503562428e+07 
+9.1999999999999833e+00 -1.0331751370785767e+00 +2.2679528485016403e+00 +2.2613981034008336e+01 +6.2018405572293284e+02 -1.7195764794801151e+04 -3.1331012672172417e+06 +7.2188987200029776e+07 
+9.2999999999999829e+00 -1.0331759902776787e+00 +2.2674780089082009e+00 +2.2710236715762882e+01 +6.3083509726252851e+02 -1.9230615377414975e+04 -3.1868733374942904e+06 +8.2368046347857326e+07 
+9.3999999999999826e+00 -1.0331768058531778e+00 +2.2670279776481794e+00 +2.2801613022035628e+01 +6.4083948941733843e+02 -2.1176887268985553e+04 -3.2372048620324186e+06 +9.2123310757793680e+07 
+9.4999999999999822e+00 -1.0331775906277911e+00 +2.2666042635217516e+00 +2.2888572912139555e+01 +6.5015483581567651e+02 -2.3041126006581504e+04 -3.2838564644268798e+06 +1.0147704845707412e+08 
+9.5999999999999819e+00 -1.0331783514252662e+00 +2.2662083748245929e+00 +2.2971579457417366e+01 +6.5873875633398109e+02 -2.4829878926621244e+04 -3.3265888655288890e+06 +1.1045153457912357e+08 
+9.6999999999999815e+00 -1.0331790950703430e+00 +2.2658418193356233e+00 +2.3051095836847210e+01 +6.6654888746636891e+02 -2.6549695082905997e+04 -3.3651628855874995e+06 +1.1906905096718331e+08 
+9.7999999999999812e+00 -1.0331798283888385e+00 +2.2655061043015814e+00 +2.3127585347170950e+01 +6.7354288280034450e+02 -2.8207125424955200e+04 -3.3993394470414384e+06 +1.2735188696779811e+08 
+9.8999999999999808e+00 -1.0331805582076357e+00 +2.2652027364233258e+00 +2.3201511401184572e+01 +6.7967841347793183e+02 -2.9808722763530684e+04 -3.4288795773325241e+06 +1.3532233925242278e+08 
+9.9999999999999805e+00 -1.0331812913547043e+00 +2.2649332218422513e+00 +2.3273337530150577e+01 +6.8491316860548727e+02 -3.1361041809826940e+04 -3.4535444112853855e+06 +1.4300271197105199e+08 
+1.0099999999999980e+01 -1.0331820346591429e+00 +2.2646990661318620e+00 +2.3343527388100956e+01 +6.8920485553984213e+02 -3.2870639245745493e+04 -3.4730951928353864e+06 +1.5041531704464602e+08 
