# trajectory
# s[mm] rx[mm] ry[mm] rz[mm] px[rad] py[rad] pz[rad]
0.0000000000000000e+00 +9.1010000000000009e+00 +0.0000000000000000e+00 +0.0000000000000000e+00 +0.0000000000000000e+00 +0.0000000000000000e+00 +1.0000000000000000e+00
1.0000000000000001e-01 +9.1009994836317407e+00 +0.0000000000000000e+00 +9.9999999998222427e-02 -1.0327365670981631e-05 +0.0000000000000000e+00 +9.9999999994667277e-01
2.0000000000000001e-01 +9.1009979345267542e+00 +0.0000000000000000e+00 +1.9999999998577939e-01 -2.0654734709116282e-05 +0.0000000000000000e+00 +9.9999999978669096e-01
3.0000000000000004e-01 +9.1009953526846434e+00 +0.0000000000000000e+00 +2.9999999995200544e-01 -3.0982108381090068e-05 +0.0000000000000000e+00 +9.9999999952005447e-01
4.0000000000000002e-01 +9.1009917381048755e+00 +0.0000000000000000e+00 +3.9999999988623514e-01 -4.1309488097863173e-05 +0.0000000000000000e+00 +9.9999999914676307e-01
5.0000000000000000e-01 +9.1009870907867700e+00 +0.0000000000000000e+00 +4.9999999977780291e-01 -5.1636875414655084e-05 +0.0000000000000000e+00 +9.9999999866681655e-01
5.9999999999999998e-01 +9.1009814107294833e+00 +0.0000000000000000e+00 +5.9999999961604322e-01 -6.1964272020153003e-05 +0.0000000000000000e+00 +9.9999999808021445e-01
6.9999999999999996e-01 +9.1009746979319992e+00 +0.0000000000000000e+00 +6.9999999939029056e-01 -7.2291679617959609e-05 +0.0000000000000000e+00 +9.9999999738695644e-01
7.9999999999999993e-01 +9.1009669523931400e+00 +0.0000000000000000e+00 +7.9999999908987929e-01 -8.2619099808043899e-05 +0.0000000000000000e+00 +9.9999999658704208e-01
8.9999999999999991e-01 +9.1009581741115682e+00 +0.0000000000000000e+00 +8.9999999870414371e-01 -9.2946534075955201e-05 +0.0000000000000000e+00 +9.9999999568047082e-01
9.9999999999999989e-01 +9.1009483630858092e+00 +0.0000000000000000e+00 +9.9999999822241814e-01 -1.0327398379281498e-04 +0.0000000000000000e+00 +9.9999999466724210e-01
1.0999999999999999e+00 +9.1009375193142521e+00 +0.0000000000000000e+00 +1.0999999976340369e+00 -1.1360145021531009e-04 +0.0000000000000000e+00 +9.9999999354735525e-01
1.2000000000000000e+00 +9.1009256427951701e+00 +0.0000000000000000e+00 +1.1999999969283339e+00 -1.2392893448568760e-04 +0.0000000000000000e+00 +9.9999999232080961e-01
1.3000000000000000e+00 +9.1009127335267248e+00 +0.0000000000000000e+00 +1.2999999960946433e+00 -1.3425643763175123e-04 +0.0000000000000000e+00 +9.9999999098760450e-01
1.4000000000000001e+00 +9.1008987915069834e+00 +0.0000000000000000e+00 +1.3999999951222994e+00 -1.4458396056685912e-04 +0.0000000000000000e+00 +9.9999998954773917e-01
1.5000000000000002e+00 +9.1008838167339245e+00 +0.0000000000000000e+00 +1.4999999940006359e+00 -1.5491150408992335e-04 +0.0000000000000000e+00 +9.9999998800121292e-01
1.6000000000000003e+00 +9.1008678092054556e+00 +0.0000000000000000e+00 +1.5999999927189865e+00 -1.6523906888541088e-04 +0.0000000000000000e+00 +9.9999998634802501e-01
1.7000000000000004e+00 +9.1008507689194200e+00 +0.0000000000000000e+00 +1.6999999912666854e+00 -1.7556665552334599e-04 +0.0000000000000000e+00 +9.9999998458817463e-01
1.8000000000000005e+00 +9.1008326958736081e+00 +0.0000000000000000e+00 +1.7999999896330661e+00 -1.8589426445931445e-04 +0.0000000000000000e+00 +9.9999998272166113e-01
1.9000000000000006e+00 +9.1008135900657727e+00 +0.0000000000000000e+00 +1.8999999878074623e+00 -1.9622189603446893e-04 +0.0000000000000000e+00 +9.9999998074848362e-01
2.0000000000000004e+00 +9.1007934514936384e+00 +0.0000000000000000e+00 +1.9999999857792075e+00 -2.0654955047553621e-04 +0.0000000000000000e+00 +9.9999997866864143e-01
2.1000000000000005e+00 +9.1007722801549118e+00 +0.0000000000000000e+00 +2.0999999835376353e+00 -2.1687722789482579e-04 +0.0000000000000000e+00 +9.9999997648213379e-01
2.2000000000000006e+00 +9.1007500760472944e+00 +0.0000000000000000e+00 +2.1999999810720787e+00 -2.2720492829024003e-04 +0.0000000000000000e+00 +9.9999997418896003e-01
2.3000000000000007e+00 +9.1007268391684928e+00 +0.0000000000000000e+00 +2.2999999783718716e+00 -2.3753265154528592e-04 +0.0000000000000000e+00 +9.9999997178911937e-01
2.4000000000000008e+00 +9.1007025695162316e+00 +0.0000000000000000e+00 +2.3999999754263470e+00 -2.4786039742908826e-04 +0.0000000000000000e+00 +9.9999996928261126e-01
2.5000000000000009e+00 +9.1006772670882636e+00 +0.0000000000000000e+00 +2.4999999722248383e+00 -2.5818816559640450e-04 +0.0000000000000000e+00 +9.9999996666943503e-01
2.6000000000000010e+00 +9.1006509318823845e+00 +0.0000000000000000e+00 +2.5999999687566784e+00 -2.6851595559588122e-04 +0.0000000000000000e+00 +9.9999996394959012e-01
2.7000000000000011e+00 +9.1006235638964323e+00 +0.0000000000000000e+00 +2.6999999650112008e+00 -2.7884376696071279e-04 +0.0000000000000000e+00 +9.9999996112307599e-01
2.8000000000000012e+00 +9.1005951631282933e+00 +0.0000000000000000e+00 +2.7999999609777380e+00 -2.8917159929929380e-04 +0.0000000000000000e+00 +9.9999995818989218e-01
2.9000000000000012e+00 +9.1005657295758837e+00 +0.0000000000000000e+00 +2.8999999566456234e+00 -2.9949945230346638e-04 +0.0000000000000000e+00 +9.9999995515003803e-01
3.0000000000000013e+00 +9.1005352632371501e+00 +0.0000000000000000e+00 +2.9999999520041900e+00 -3.0982732574852715e-04 +0.0000000000000000e+00 +9.9999995200351299e-01
3.1000000000000014e+00 +9.1005037641100568e+00 +0.0000000000000000e+00 +3.0999999470427704e+00 -3.2015521949323443e-04 +0.0000000000000000e+00 +9.9999994875031639e-01
3.2000000000000015e+00 +9.1004712321925769e+00 +0.0000000000000000e+00 +3.1999999417506975e+00 -3.3048313347981570e-04 +0.0000000000000000e+00 +9.9999994539044779e-01
3.3000000000000016e+00 +9.1004376674826855e+00 +0.0000000000000000e+00 +3.2999999361173042e+00 -3.4081106773397566e-04 +0.0000000000000000e+00 +9.9999994192390640e-01
3.4000000000000017e+00 +9.1004030699783502e+00 +0.0000000000000000e+00 +3.3999999301319233e+00 -3.5113902236490424e-04 +0.0000000000000000e+00 +9.9999993835069156e-01
3.5000000000000018e+00 +9.1003674396775267e+00 +0.0000000000000000e+00 +3.4999999237838870e+00 -3.6146699756528505e-04 +0.0000000000000000e+00 +9.9999993467080273e-01
3.6000000000000019e+00 +9.1003307765781436e+00 +0.0000000000000000e+00 +3.5999999170625281e+00 -3.7179499361130418e-04 +0.0000000000000000e+00 +9.9999993088423900e-01
3.7000000000000020e+00 +9.1002930806780977e+00 +0.0000000000000000e+00 +3.6999999099571790e+00 -3.8212301086265919e-04 +0.0000000000000000e+00 +9.9999992699099960e-01
3.8000000000000020e+00 +9.1002543519752486e+00 +0.0000000000000000e+00 +3.7999999024571722e+00 -3.9245104976256840e-04 +0.0000000000000000e+00 +9.9999992299108376e-01
3.9000000000000021e+00 +9.1002145904674059e+00 +0.0000000000000000e+00 +3.8999998945518399e+00 -4.0277911083778066e-04 +0.0000000000000000e+00 +9.9999991888449058e-01
4.0000000000000018e+00 +9.1001737961523226e+00 +0.0000000000000000e+00 +3.9999998862305146e+00 -4.1310719469858507e-04 +0.0000000000000000e+00 +9.9999991467121918e-01
4.1000000000000014e+00 +9.1001319690276841e+00 +0.0000000000000000e+00 +4.0999998774825279e+00 -4.2343530203882131e-04 +0.0000000000000000e+00 +9.9999991035126845e-01
4.2000000000000011e+00 +9.1000891090911065e+00 +0.0000000000000000e+00 +4.1999998682972119e+00 -4.3376343363589015e-04 +0.0000000000000000e+00 +9.9999990592463739e-01
4.3000000000000007e+00 +9.1000452163401206e+00 +0.0000000000000000e+00 +4.2999998586638988e+00 -4.4409159035076412e-04 +0.0000000000000000e+00 +9.9999990139132477e-01
4.4000000000000004e+00 +9.1000002907721687e+00 +0.0000000000000000e+00 +4.3999998485719205e+00 -4.5441977312799881e-04 +0.0000000000000000e+00 +9.9999989675132950e-01
4.5000000000000000e+00 +9.0999543323845931e+00 +0.0000000000000000e+00 +4.4999998380106083e+00 -4.6474798299574410e-04 +0.0000000000000000e+00 +9.9999989200465023e-01
4.5999999999999996e+00 +9.0999073411746298e+00 +0.0000000000000000e+00 +4.5999998269692943e+00 -4.7507622106027892e-04 +0.0000000000000000e+00 +9.9999988715128563e-01
4.6999999999999993e+00 +9.0998593171394031e+00 +0.0000000000000000e+00 +4.6999998154373097e+00 -4.8540448844577383e-04 +0.0000000000000000e+00 +9.9999988219123426e-01
4.7999999999999989e+00 +9.0998102602759268e+00 +0.0000000000000000e+00 +4.7999998034039848e+00 -4.9573278623404036e-04 +0.0000000000000000e+00 +9.9999987712449467e-01
4.8999999999999986e+00 +9.0997601705811082e+00 +0.0000000000000000e+00 +4.8999997908586517e+00 -5.0606111545904210e-04 +0.0000000000000000e+00 +9.9999987195106543e-01
4.9999999999999982e+00 +9.0997090480517535e+00 +0.0000000000000000e+00 +4.9999997777906415e+00 -5.1638947710688180e-04 +0.0000000000000000e+00 +9.9999986667094498e-01
5.0999999999999979e+00 +9.0996568926845747e+00 +0.0000000000000000e+00 +5.0999997641892847e+00 -5.2671787211578704e-04 +0.0000000000000000e+00 +9.9999986128413187e-01
5.1999999999999975e+00 +9.0996037044761895e+00 +0.0000000000000000e+00 +5.1999997500439115e+00 -5.3704630137609499e-04 +0.0000000000000000e+00 +9.9999985579062456e-01
5.2999999999999972e+00 +9.0995494834231305e+00 +0.0000000000000000e+00 +5.2999997353438530e+00 -5.4737476573023670e-04 +0.0000000000000000e+00 +9.9999985019042159e-01
5.3999999999999968e+00 +9.0994942295218468e+00 +0.0000000000000000e+00 +5.3999997200784398e+00 -5.5770326597271954e-04 +0.0000000000000000e+00 +9.9999984448352131e-01
5.4999999999999964e+00 +9.0994379427687146e+00 +0.0000000000000000e+00 +5.4999997042370010e+00 -5.6803180285010962e-04 +0.0000000000000000e+00 +9.9999983866992226e-01
5.5999999999999961e+00 +9.0993806231600338e+00 +0.0000000000000000e+00 +5.5999996878088671e+00 -5.7836037706101261e-04 +0.0000000000000000e+00 +9.9999983274962290e-01
5.6999999999999957e+00 +9.0993222706920367e+00 +0.0000000000000000e+00 +5.6999996707833684e+00 -5.8868898925605356e-04 +0.0000000000000000e+00 +9.9999982672262167e-01
5.7999999999999954e+00 +9.0992628853608952e+00 +0.0000000000000000e+00 +5.7999996531498343e+00 -5.9901764003785613e-04 +0.0000000000000000e+00 +9.9999982058891712e-01
5.8999999999999950e+00 +9.0992024671627245e+00 +0.0000000000000000e+00 +5.8999996348975952e+00 -6.0934632996102061e-04 +0.0000000000000000e+00 +9.9999981434850760e-01
5.9999999999999947e+00 +9.0991410160935828e+00 +0.0000000000000000e+00 +5.9999996160159794e+00 -6.1967505953210112e-04 +0.0000000000000000e+00 +9.9999980800139165e-01
6.0999999999999943e+00 +9.0990785321494823e+00 +0.0000000000000000e+00 +6.0999995964943166e+00 -6.3000382920958161e-04 +0.0000000000000000e+00 +9.9999980154756773e-01
6.1999999999999940e+00 +9.0990150153263905e+00 +0.0000000000000000e+00 +6.1999995763219360e+00 -6.4033263940385091e-04 +0.0000000000000000e+00 +9.9999979498703429e-01
6.2999999999999936e+00 +9.0989504656202378e+00 +0.0000000000000000e+00 +6.2999995554881663e+00 -6.5066149047717696e-04 +0.0000000000000000e+00 +9.9999978831978986e-01
6.3999999999999932e+00 +9.0988848830269209e+00 +0.0000000000000000e+00 +6.3999995339823368e+00 -6.6099038274368025e-04 +0.0000000000000000e+00 +9.9999978154583291e-01
6.4999999999999929e+00 +9.0988182675423062e+00 +0.0000000000000000e+00 +6.4999995117937761e+00 -6.7131931646930570e-04 +0.0000000000000000e+00 +9.9999977466516210e-01
6.5999999999999925e+00 +9.0987506191622369e+00 +0.0000000000000000e+00 +6.5999994889118128e+00 -6.8164829187071919e-04 +0.0000000000000000e+00 +9.9999976767777587e-01
6.6999999999999922e+00 +9.0986819378825370e+00 +0.0000000000000000e+00 +6.6999994653257744e+00 -6.9197730910345906e-04 +0.0000000000000000e+00 +9.9999976058367290e-01
6.7999999999999918e+00 +9.0986122236990195e+00 +0.0000000000000000e+00 +6.7999994410249895e+00 -7.0230636825010585e-04 +0.0000000000000000e+00 +9.9999975338285185e-01
6.8999999999999915e+00 +9.0985414766074904e+00 +0.0000000000000000e+00 +6.8999994159987867e+00 -7.1263546931921173e-04 +0.0000000000000000e+00 +9.9999974607531139e-01
6.9999999999999911e+00 +9.0984696966037610e+00 +0.0000000000000000e+00 +6.9999993902364945e+00 -7.2296461224530620e-04 +0.0000000000000000e+00 +9.9999973866105030e-01
7.0999999999999908e+00 +9.0983968836836517e+00 +0.0000000000000000e+00 +7.0999993637274397e+00 -7.3329379688890088e-04 +0.0000000000000000e+00 +9.9999973114006735e-01
7.1999999999999904e+00 +9.0983230378430004e+00 +0.0000000000000000e+00 +7.1999993364609507e+00 -7.4362302303649622e-04 +0.0000000000000000e+00 +9.9999972351236133e-01
7.2999999999999901e+00 +9.0982481590776700e+00 +0.0000000000000000e+00 +7.2999993084263544e+00 -7.5395229040058737e-04 +0.0000000000000000e+00 +9.9999971577793123e-01
7.3999999999999897e+00 +9.0981722473835571e+00 +0.0000000000000000e+00 +7.3999992796129792e+00 -7.6428159861967099e-04 +0.0000000000000000e+00 +9.9999970793677606e-01
7.4999999999999893e+00 +9.0980953027565974e+00 +0.0000000000000000e+00 +7.4999992500101520e+00 -7.7461094725825221e-04 +0.0000000000000000e+00 +9.9999969998889493e-01
7.5999999999999890e+00 +9.0980173251927745e+00 +0.0000000000000000e+00 +7.5999992196072004e+00 -7.8494033580685219e-04 +0.0000000000000000e+00 +9.9999969193428695e-01
7.6999999999999886e+00 +9.0979383146881254e+00 +0.0000000000000000e+00 +7.6999991883934520e+00 -7.9526976368201555e-04 +0.0000000000000000e+00 +9.9999968377295123e-01
7.7999999999999883e+00 +9.0978582712387492e+00 +0.0000000000000000e+00 +7.7999991563582336e+00 -8.0559923022631875e-04 +0.0000000000000000e+00 +9.9999967550488722e-01
7.8999999999999879e+00 +9.0977771948408162e+00 +0.0000000000000000e+00 +7.8999991234908720e+00 -8.1592873470837850e-04 +0.0000000000000000e+00 +9.9999966713009425e-01
7.9999999999999876e+00 +9.0976950854905709e+00 +0.0000000000000000e+00 +7.9999990897806947e+00 -8.2625827632286050e-04 +0.0000000000000000e+00 +9.9999965864857188e-01
8.0999999999999872e+00 +9.0976119431843436e+00 +0.0000000000000000e+00 +8.0999990552170296e+00 -8.3658785419048860e-04 +0.0000000000000000e+00 +9.9999965006031966e-01
8.1999999999999869e+00 +9.0975277679185567e+00 +0.0000000000000000e+00 +8.1999990197892014e+00 -8.4691746735805458e-04 +0.0000000000000000e+00 +9.9999964136533726e-01
8.2999999999999865e+00 +9.0974425596897301e+00 +0.0000000000000000e+00 +8.2999989834865389e+00 -8.5724711479842760e-04 +0.0000000000000000e+00 +9.9999963256362445e-01
8.3999999999999861e+00 +9.0973563184944908e+00 +0.0000000000000000e+00 +8.3999989462983677e+00 -8.6757679541056500e-04 +0.0000000000000000e+00 +9.9999962365518114e-01
8.4999999999999858e+00 +9.0972690443295807e+00 +0.0000000000000000e+00 +8.4999989082140157e+00 -8.7790650801952252e-04 +0.0000000000000000e+00 +9.9999961464000731e-01
8.5999999999999854e+00 +9.0971807371918612e+00 +0.0000000000000000e+00 +8.5999988692228104e+00 -8.8823625138152035e-04 +0.0000000000000000e+00 +9.9999960551810307e-01
8.6999999999999851e+00 +9.0970913970783212e+00 +0.0000000000000000e+00 +8.6999988293140778e+00 -8.9856602423956137e-04 +0.0000000000000000e+00 +9.9999959628946855e-01
8.7999999999999847e+00 +9.0970010239860706e+00 +0.0000000000000000e+00 +8.7999987884771453e+00 -9.0889582537905574e-04 +0.0000000000000000e+00 +9.9999958695410396e-01
8.8999999999999844e+00 +9.0969096179123419e+00 +0.0000000000000000e+00 +8.8999987467013408e+00 -9.1922565363289669e-04 +0.0000000000000000e+00 +9.9999957751200952e-01
8.9999999999999840e+00 +9.0968171788544776e+00 +0.0000000000000000e+00 +8.9999987039759901e+00 -9.2955550788148143e-04 +0.0000000000000000e+00 +9.9999956796318545e-01
9.0999999999999837e+00 +9.0967237068099340e+00 +0.0000000000000000e+00 +9.0999986602904208e+00 -9.3988538705273286e-04 +0.0000000000000000e+00 +9.9999955830763199e-01
9.1999999999999833e+00 +9.0966292017762704e+00 +0.0000000000000000e+00 +9.1999986156339588e+00 -9.5021529012212199e-04 +0.0000000000000000e+00 +9.9999954854534923e-01
9.2999999999999829e+00 +9.0965336637511456e+00 +0.0000000000000000e+00 +9.2999985699959318e+00 -9.6054521611269093e-04 +0.0000000000000000e+00 +9.9999953867633740e-01
9.3999999999999826e+00 +9.0964370927323142e+00 +0.0000000000000000e+00 +9.3999985233656673e+00 -9.7087516409507591e-04 +0.0000000000000000e+00 +9.9999952870059672e-01
9.4999999999999822e+00 +9.0963394887176232e+00 +0.0000000000000000e+00 +9.4999984757324931e+00 -9.8120513318753193e-04 +0.0000000000000000e+00 +9.9999951861812730e-01
9.5999999999999819e+00 +9.0962408517050015e+00 +0.0000000000000000e+00 +9.5999984270857350e+00 -9.9153512255595691e-04 +0.0000000000000000e+00 +9.9999950842892937e-01
9.6999999999999815e+00 +9.0961411816924631e+00 +0.0000000000000000e+00 +9.6999983774147207e+00 -1.0018651314139171e-03 +0.0000000000000000e+00 +9.9999949813300315e-01
9.7999999999999812e+00 +9.0960404786780948e+00 +0.0000000000000000e+00 +9.7999983267087778e+00 -1.0121951590226731e-03 +0.0000000000000000e+00 +9.9999948773034864e-01
9.8999999999999808e+00 +9.0959387426600564e+00 +0.0000000000000000e+00 +9.8999982749572322e+00 -1.0225252046912063e-03 +0.0000000000000000e+00 +9.9999947722096605e-01
9.9999999999999805e+00 +9.0958359736365750e+00 +0.0000000000000000e+00 +9.9999982221494133e+00 -1.0328552677762457e-03 +0.0000000000000000e+00 +9.9999946660485550e-01
1.0099999999999980e+01 +9.0957321716059401e+00 +0.0000000000000000e+00 +1.0099998168274647e+01 -1.0431853476822956e-03 +0.0000000000000000e+00 +9.9999945588201700e-01
1.0199999999999980e+01 +9.0956273365664959e+00 +0.0000000000000000e+00 +1.0199998113322259e+01 -1.0535154438616639e-03 +0.0000000000000000e+00 +9.9999944505245064e-01
1.0299999999999979e+01 +9.0955214685166421e+00 +0.0000000000000000e+00 +1.0299998057281579e+01 -1.0638455558144907e-03 +0.0000000000000000e+00 +9.9999943411615644e-01
1.0399999999999979e+01 +9.0954145674548226e+00 +0.0000000000000000e+00 +1.0399998000141933e+01 -1.0741756830887779e-03 +0.0000000000000000e+00 +9.9999942307313439e-01
1.0499999999999979e+01 +9.0953066333795274e+00 +0.0000000000000000e+00 +1.0499997941892648e+01 -1.0845058252804195e-03 +0.0000000000000000e+00 +9.9999941192338437e-01
1.0599999999999978e+01 +9.0951976662892822e+00 +0.0000000000000000e+00 +1.0599997882523052e+01 -1.0948359820318065e-03 +0.0000000000000000e+00 +9.9999940066690640e-01
1.0699999999999978e+01 +9.0950876661826463e+00 +0.0000000000000000e+00 +1.0699997822022471e+01 -1.1051661530161756e-03 +0.0000000000000000e+00 +9.9999938930370047e-01
1.0799999999999978e+01 +9.0949766330582147e+00 +0.0000000000000000e+00 +1.0799997760380235e+01 -1.1154963379219169e-03 +0.0000000000000000e+00 +9.9999937783376636e-01
1.0899999999999977e+01 +9.0948645669146089e+00 +0.0000000000000000e+00 +1.0899997697585668e+01 -1.1258265364511115e-03 +0.0000000000000000e+00 +9.9999936625710395e-01
1.0999999999999977e+01 +9.0947514677504806e+00 +0.0000000000000000e+00 +1.0999997633628098e+01 -1.1361567483194901e-03 +0.0000000000000000e+00 +9.9999935457371314e-01
1.1099999999999977e+01 +9.0946373355645100e+00 +0.0000000000000000e+00 +1.1099997568496853e+01 -1.1464869732563912e-03 +0.0000000000000000e+00 +9.9999934278359393e-01
1.1199999999999976e+01 +9.0945221703554022e+00 +0.0000000000000000e+00 +1.1199997502181260e+01 -1.1568172110047190e-03 +0.0000000000000000e+00 +9.9999933088674609e-01
1.1299999999999976e+01 +9.0944059721218888e+00 +0.0000000000000000e+00 +1.1299997434670646e+01 -1.1671474613208991e-03 +0.0000000000000000e+00 +9.9999931888316962e-01
1.1399999999999975e+01 +9.0942887408627264e+00 +0.0000000000000000e+00 +1.1399997365954336e+01 -1.1774777239748338e-03 +0.0000000000000000e+00 +9.9999930677286430e-01
1.1499999999999975e+01 +9.0941704765766911e+00 +0.0000000000000000e+00 +1.1499997296021661e+01 -1.1878079987498557e-03 +0.0000000000000000e+00 +9.9999929455583003e-01
1.1599999999999975e+01 +9.0940511792625802e+00 +0.0000000000000000e+00 +1.1599997224861946e+01 -1.1981382854426817e-03 +0.0000000000000000e+00 +9.9999928223206669e-01
1.1699999999999974e+01 +9.0939308489192126e+00 +0.0000000000000000e+00 +1.1699997152464517e+01 -1.2084685838633636e-03 +0.0000000000000000e+00 +9.9999926980157416e-01
1.1799999999999974e+01 +9.0938094855454228e+00 +0.0000000000000000e+00 +1.1799997078818702e+01 -1.2187988938352401e-03 +0.0000000000000000e+00 +9.9999925726435224e-01
