# multipoles
# s[mm] polynom_b[n=0][T/m^n] polynom_b[n=1][T/m^n] polynom_b[n=2][T/m^n] polynom_b[n=3][T/m^n] polynom_b[n=4][T/m^n] polynom_b[n=5][T/m^n] polynom_b[n=6][T/m^n] 
+0.0000000000000000e+00 -1.0330774067536845e+00 +2.3236357717323646e+00 +1.1351134742397665e+01 -1.0583688597157513e+03 +1.4329258577760842e+05 +5.8690732232073229e+06 -5.5947871743956935e+08 
+1.0000000000000001e-01 -1.0330784549054111e+00 +2.3236771202630382e+00 +1.1365947064087727e+01 -1.0571875213426056e+03 +1.4304730557299414e+05 +5.8598260461337157e+06 -5.5911788861800563e+08 
+2.0000000000000001e-01 -1.0330796016829296e+00 +2.3236696081991028e+00 +1.1386063868883603e+01 -1.0547057481099835e+03 +1.4271462129901585e+05 +5.8438303546695327e+06 -5.5832719120494246e+08 
+3.0000000000000004e-01 -1.0330808508494986e+00 +2.3236104321214310e+00 +1.1411504105019027e+01 -1.0508498919617512e+03 +1.4229378018408522e+05 +5.8206680932107912e+06 -5.5709544991502118e+08 
+4.0000000000000002e-01 -1.0330822061679341e+00 +2.3234967886006599e+00 +1.1442286677033495e+01 -1.0455463049348189e+03 +1.4178403007168692e+05 +5.7899212064299295e+06 -5.5541149155480850e+08 
+5.0000000000000000e-01 -1.0330836714006728e+00 +2.3233258742065255e+00 +1.1478430455224567e+01 -1.0387213394723101e+03 +1.4118461922853367e+05 +5.7511716409694003e+06 -5.5326414406965828e+08 
+5.9999999999999998e-01 -1.0330852492284306e+00 +2.3230956912570448e+00 +1.1519909636711590e+01 -1.0303224802925458e+03 +1.4049610382064251e+05 +5.7041168270577025e+06 -5.5065114559836709e+08 
+6.9999999999999996e-01 -1.0330869380293584e+00 +2.3228074730770287e+00 +1.1566518110444951e+01 -1.0203823552482465e+03 +1.3972433544084491e+05 +5.6489212470452897e+06 -5.4760626346942306e+08 
+7.9999999999999993e-01 -1.0330887351111961e+00 +2.3224632627830371e+00 +1.1618004188502365e+01 -1.0089550337677151e+03 +1.3887650724215727e+05 +5.5858674404301690e+06 -5.4417237756088626e+08 
+8.9999999999999991e-01 -1.0330906377813154e+00 +2.3220651034848778e+00 +1.1674116144752681e+01 -9.9609458584090339e+02 +1.3795981296825525e+05 +5.5152379517575847e+06 -5.4039237006780469e+08 
+9.9999999999999989e-01 -1.0330926433466878e+00 +2.3216150382902470e+00 +1.1734602208781871e+01 -9.8185508220175916e+02 +1.3698144709975834e+05 +5.4373153321257094e+06 -5.3630912631292385e+08 
+1.0999999999999999e+00 -1.0330947491139679e+00 +2.3211151102913856e+00 +1.1799210575767965e+01 -9.6629059403411111e+02 +1.3594860468071338e+05 +5.3523821380627044e+06 -5.3196553399145484e+08 
+1.2000000000000000e+00 -1.0330969523894682e+00 +2.3205673625804679e+00 +1.1867689401727016e+01 -9.4945519350066945e+02 +1.3486848143594313e+05 +5.2607209351493111e+06 -5.2740448383707339e+08 
+1.3000000000000000e+00 -1.0330992504791516e+00 +2.3199738382367889e+00 +1.1939786801597839e+01 -9.3140295342132163e+02 +1.3374827382658716e+05 +5.1626142966009416e+06 -5.2266886996782434e+08 
+1.4000000000000001e+00 -1.0331016406887263e+00 +2.3193365803308192e+00 +1.2015250859252316e+01 -9.1218794750543361e+02 +1.3259517888767913e+05 +5.0583448052639375e+06 -5.1780158922447896e+08 
+1.5000000000000002e+00 -1.0331041203235709e+00 +2.3186576319214089e+00 +1.2093829617858503e+01 -8.9186425031566807e+02 +1.3141639442743783e+05 +4.9481950538495108e+06 -5.1284554219339925e+08 
+1.6000000000000003e+00 -1.0331066866888117e+00 +2.3179390360582692e+00 +1.2175271087255968e+01 -8.7048593743398760e+02 +1.3021911891351388e+05 +4.8324476464804951e+06 -5.0784363276906633e+08 
+1.7000000000000004e+00 -1.0331093370892981e+00 +2.3171828357743123e+00 +1.2259323240950581e+01 -8.4810708531474313e+02 +1.2901055154694276e+05 +4.7113851983607598e+06 -5.0283876858524096e+08 
+1.8000000000000005e+00 -1.0331120688297033e+00 +2.3163910740961913e+00 +1.2345734025697006e+01 -8.2478177166114256e+02 +1.2779789211222387e+05 +4.5852903384859674e+06 -4.9787386042117929e+08 
+1.9000000000000006e+00 -1.0331148792143841e+00 +2.3155657940295611e+00 +1.2434251344542284e+01 -8.0056407507409472e+02 +1.2658834131206338e+05 +4.4544457081331173e+06 -4.9299182386141741e+08 
+2.0000000000000004e+00 -1.0331177655475727e+00 +2.3147090385707441e+00 +1.2524623078108407e+01 -7.7550807547915701e+02 +1.2538910039197716e+05 +4.3191339639091762e+06 -4.8823557761975348e+08 
+2.1000000000000005e+00 -1.0331207251332601e+00 +2.3138228506983172e+00 +1.2616597069795130e+01 -7.4966785395265526e+02 +1.2420737143801164e+05 +4.1796377772574951e+06 -4.8364804503275949e+08 
+2.2000000000000006e+00 -1.0331237552752652e+00 +2.3129092733757934e+00 +1.2709921132364984e+01 -7.2309749286575459e+02 +1.2305035728240282e+05 +4.0362398357899887e+06 -4.7927215373081410e+08 
+2.3000000000000007e+00 -1.0331268532772941e+00 +2.3119703495505020e+00 +1.2804343054985232e+01 -6.9585107595140403e+02 +1.2192526137999818e+05 +3.8892228442880185e+06 -4.7515083510471398e+08 
+2.4000000000000008e+00 -1.0331300164428361e+00 +2.3110081221493042e+00 +1.2899610588343212e+01 -6.6798268824118065e+02 +1.2083928812560413e+05 +3.7388695248143403e+06 -4.7132702594784683e+08 
+2.5000000000000009e+00 -1.0331332420753421e+00 +2.3100246340839248e+00 +1.2995471466004952e+01 -6.3954641632218215e+02 +1.1979964245713183e+05 +3.5854626187937255e+06 -4.6784366661879086e+08 
+2.6000000000000010e+00 -1.0331365268326367e+00 +2.3090221856659761e+00 +1.3091722435562723e+01 -6.1060265033874282e+02 +1.1881155907702325e+05 +3.4293200854321220e+06 -4.6473192575425881e+08 
+2.7000000000000011e+00 -1.0331398649352654e+00 +2.3080039899386908e+00 +1.3188369421458534e+01 -5.8123262701183648e+02 +1.1787215108394479e+05 +3.2708744569058786e+06 -4.6197479658498710e+08 
+2.8000000000000012e+00 -1.0331432500324067e+00 +2.3069734585563855e+00 +1.3285474363195270e+01 -5.5152169253423369e+02 +1.1697642850784688e+05 +3.1105802929026345e+06 -4.5954288659603405e+08 
+2.9000000000000012e+00 -1.0331466757737200e+00 +2.3059340031568927e+00 +1.3383099253562358e+01 -5.2155519206852057e+02 +1.1611940043864789e+05 +2.9488921464656349e+06 -4.5740679904115075e+08 
+3.0000000000000013e+00 -1.0331501358093311e+00 +2.3048890353606812e+00 +1.3481306134150321e+01 -4.9141846957864408e+02 +1.1529607513660843e+05 +2.7862645624307957e+06 -4.5553713352936471e+08 
+3.1000000000000014e+00 -1.0331536237899068e+00 +2.3038419667716088e+00 +1.3580157105580314e+01 -4.6119686769728958e+02 +1.1450145982649311e+05 +2.6231520761016323e+06 -4.5390448500266069e+08 
+3.2000000000000015e+00 -1.0331571333667655e+00 +2.3027962089813681e+00 +1.3679714340533017e+01 -4.3097572770375638e+02 +1.1373056046136793e+05 +2.4600092125945608e+06 -4.5247944263871264e+08 
+3.3000000000000016e+00 -1.0331606581918349e+00 +2.3017551735611992e+00 +1.3780040077010593e+01 -4.0084038911948306e+02 +1.1297838185522138e+05 +2.2972904838942192e+06 -4.5123259048325855e+08 
+3.4000000000000017e+00 -1.0331641919178443e+00 +2.3007222720670226e+00 +1.3881196643618738e+01 -3.7087618971216682e+02 +1.1223992719806203e+05 +2.1354503883757959e+06 -4.5013450512722170e+08 
+3.5000000000000018e+00 -1.0331677281982226e+00 +2.2997009160410409e+00 +1.3983246445319990e+01 -3.4116846535668014e+02 +1.1151019833605648e+05 +1.9749434093468583e+06 -4.4915575705594707e+08 
+3.6000000000000019e+00 -1.0331712606872951e+00 +2.2986945170015600e+00 +1.4086251987430813e+01 -3.1180254961867030e+02 +1.1078419531816663e+05 +1.8162240121739721e+06 -4.4826690848955584e+08 
+3.7000000000000020e+00 -1.0331747830402827e+00 +2.2977064864560170e+00 +1.4190275875463362e+01 -2.8286377394073764e+02 +1.1005691640000975e+05 +1.6597466447182365e+06 -4.4743851339912474e+08 
+3.8000000000000020e+00 -1.0331782889133265e+00 +2.2967402358921376e+00 +1.4295380817548033e+01 -2.5443746726074104e+02 +1.0932335800391766e+05 +1.5059657346451317e+06 -4.4664111732423174e+08 
+3.9000000000000021e+00 -1.0331817719636289e+00 +2.2957991767752493e+00 +1.4401629641792820e+01 -2.2660895574017761e+02 +1.0857851438929063e+05 +1.3553356871838004e+06 -4.4584525579692954e+08 
+4.0000000000000018e+00 -1.0331852258494105e+00 +2.2948867205579169e+00 +1.4509085289936149e+01 -1.9946356291887781e+02 +1.0781737778064438e+05 +1.2083108855686823e+06 -4.4502145496501333e+08 
+4.1000000000000014e+00 -1.0331886442300651e+00 +2.2940062786728923e+00 +1.4617810837149875e+01 -1.7308660933635562e+02 +1.0703493798700893e+05 +1.0653456882293259e+06 -4.4414022975942796e+08 
+4.2000000000000011e+00 -1.0331920207661551e+00 +2.2931612625310138e+00 +1.4727869490226457e+01 -1.4756341231414947e+02 +1.0622618244725723e+05 +9.2689442697053100e+05 -4.4317208413460928e+08 
+4.3000000000000007e+00 -1.0331953491194927e+00 +2.2923550835263917e+00 +1.4839324596969030e+01 -1.2297928595019111e+02 +1.0538609605554579e+05 +7.9341140638597123e+05 -4.4208751023995924e+08 
+4.4000000000000004e+00 -1.0331986229531913e+00 +2.2915911530346067e+00 +1.4952239653234056e+01 -9.9419540908218238e+01 +1.0450966102174563e+05 +6.6535090207728569e+05 -4.4085698773005664e+08 
+4.5000000000000000e+00 -1.0332018359317061e+00 +2.2908728824018980e+00 +1.5066678305815262e+01 -7.6969484044616692e+01 +1.0359185682619805e+05 +5.4316715853469714e+05 -4.3945098353398341e+08 
+4.5999999999999996e+00 -1.0332049833056891e+00 +2.2902024587056702e+00 +1.5182716977798885e+01 -5.5686913906086339e+01 +1.0262782236240263e+05 +4.2717334970683261e+05 -4.3784050037624836e+08 
+4.6999999999999993e+00 -1.0332080663100136e+00 +2.2895772605157654e+00 +1.5300499798798134e+01 -3.5520602154397906e+01 +1.0161284001974066e+05 +3.1711553767405020e+05 -4.3599590523635238e+08 
+4.7999999999999989e+00 -1.0332110875838263e+00 +2.2889934826675900e+00 +1.5420191459253781e+01 -1.6392213792905668e+01 +1.0054211223454283e+05 +2.1259665301763616e+05 -4.3388672247539383e+08 
+4.8999999999999986e+00 -1.0332140497656124e+00 +2.2884473200531548e+00 +1.5541956592463617e+01 +1.7765855828640280e+00 +9.9410842395589745e+04 +1.1321962233755694e+05 -4.3148248063042098e+08 
+4.9999999999999982e+00 -1.0332169554932251e+00 +2.2879349676165641e+00 +1.5665959779741760e+01 +1.9064129797153566e+01 +9.8214234737430335e+04 +1.8587369036892575e+04 -4.2875271195691156e+08 
+5.0999999999999979e+00 -1.0332198074037753e+00 +2.2874526203655221e+00 +1.5792365537669916e+01 +3.5548751804132692e+01 +9.6947494582966974e+04 -7.1697185338167008e+04 -4.2566695358834594e+08 
+5.1999999999999975e+00 -1.0332226081335205e+00 +2.2869964733730868e+00 +1.5921338305970705e+01 +5.1308783634294464e+01 +9.5605828562043287e+04 -1.5803112100446082e+05 -4.2219474854901129e+08 
+5.2999999999999972e+00 -1.0332253603179087e+00 +2.2865627217760478e+00 +1.6053042455262112e+01 +6.6422556480392231e+01 +9.4184444444460067e+04 -2.4081152077965197e+05 -4.1830564489940727e+08 
+5.3999999999999968e+00 -1.0332280665914846e+00 +2.2861475607888520e+00 +1.6187642276416952e+01 +8.0968400303109007e+01 +9.2678551342732462e+04 -3.2043546804701543e+05 -4.1396919671529567e+08 
+5.4999999999999964e+00 -1.0332307295878309e+00 +2.2857471856969322e+00 +1.6325301974783962e+01 +9.5024644034020440e+01 +9.1083359805969754e+04 -3.9730004818709148e+05 -4.0915496448479038e+08 
+5.5999999999999961e+00 -1.0332333519395154e+00 +2.2853577918654375e+00 +1.6466185665823815e+01 +1.0866961537346306e+02 +8.9394081891358306e+04 -4.7180234777094558e+05 -4.0383251542249441e+08 
+5.6999999999999957e+00 -1.0332359362780803e+00 +2.2849755747409288e+00 +1.6610457375096850e+01 +1.2198164072988128e+02 +8.7605931156117018e+04 -5.4433945440789964e+05 -3.9797142341165507e+08 
+5.7999999999999954e+00 -1.0332384852338770e+00 +2.2845967298587144e+00 +1.6758281018752832e+01 +1.3503904503552911e+02 +8.5714123020767525e+04 -6.1530845597379794e+05 -3.9154127071170896e+08 
+5.8999999999999950e+00 -1.0332410014361628e+00 +2.2842174528373898e+00 +1.6909820418402791e+01 +1.4792015192965243e+02 +8.3713874467660018e+04 -6.8510644197822420e+05 -3.8451164647728753e+08 
+5.9999999999999947e+00 -1.0332434875129244e+00 +2.2838339393938023e+00 +1.7065239279460563e+01 +1.6070328334558511e+02 +8.1600404451626076e+04 -7.5413050145139080e+05 -3.7685214870853448e+08 
+6.0999999999999943e+00 -1.0332459460908692e+00 +2.2834423853376684e+00 +1.7224701192767331e+01 +1.7346675967747254e+02 +7.9368933851950977e+04 -8.2277772416617675e+05 -3.6853238398172081e+08 
+6.1999999999999940e+00 -1.0332483797954108e+00 +2.2830389865790415e+00 +1.7388369633799815e+01 +1.8628889959190960e+02 +7.7014685479309264e+04 -8.9144519985245436e+05 -3.5952196745823634e+08 
+6.2999999999999936e+00 -1.0332507912505373e+00 +2.2826199391334083e+00 +1.7556407948228820e+01 +1.9924801988713486e+02 +7.4532884338854754e+04 -9.6053001762337529e+05 -3.4979052411039108e+08 
+6.3999999999999932e+00 -1.0332531830788394e+00 +2.2821814391170081e+00 +1.7728979356666169e+01 +2.1242243566519520e+02 +7.1918757531946627e+04 -1.0304292673082950e+06 -3.3930768823245478e+08 
+6.4999999999999929e+00 -1.0332555579013609e+00 +2.2817196827432618e+00 +1.7906246936548513e+01 +2.2589046116837423e+02 +6.9167534690950910e+04 -1.1015400458569124e+06 -3.2804310577610737e+08 
+6.5999999999999925e+00 -1.0332579172104217e+00 +2.2812317712629198e+00 +1.8088246995655879e+01 +2.3971415874985126e+02 +6.6277373609443937e+04 -1.1741836242664515e+06 -3.1598220187424630e+08 
+6.6999999999999922e+00 -1.0332602581888155e+00 +2.2807186829586272e+00 +1.8274462114464821e+01 +2.5388022115059539e+02 +6.3258978446052824e+04 -1.2483090284302467e+06 -3.0317746289748102e+08 
+6.7999999999999918e+00 -1.0332625769934791e+00 +2.2801824368025883e+00 +1.8464223518999209e+01 +2.6835378003869090e+02 +6.0126448465032750e+04 -1.3237541387060499e+06 -2.8969946110825270e+08 
+6.8999999999999915e+00 -1.0332648697819535e+00 +2.2796250519415100e+00 +1.8656862482621730e+01 +2.8309996057704950e+02 +5.6893882253205076e+04 -1.4003567898805409e+06 -2.7561876629868591e+08 
+6.9999999999999911e+00 -1.0332671327123104e+00 +2.2790485476393427e+00 +1.8851710322014036e+01 +2.9808388356880812e+02 +5.3575377712982518e+04 -1.4779547868872785e+06 -2.6100594529995495e+08 
+7.0999999999999908e+00 -1.0332693619432334e+00 +2.2784549432889434e+00 +1.9048098406153475e+01 +3.1327066502093629e+02 +5.0185031900152760e+04 -1.5563859018640253e+06 -2.4593156122992131e+08 
+7.1999999999999904e+00 -1.0332715536339496e+00 +2.2778462584123211e+00 +1.9245358146224920e+01 +3.2862541607851955e+02 +4.6736941218842199e+04 -1.6354878734706463e+06 -2.3046617442130420e+08 
+7.2999999999999901e+00 -1.0332737039444051e+00 +2.2772245126637758e+00 +1.9442821017117055e+01 +3.4411324288455558e+02 +4.3245201019374937e+04 -1.7150984058233923e+06 -2.1468034052492401e+08 
+7.3999999999999897e+00 -1.0332758090351868e+00 +2.2765917258309476e+00 +1.9639818545946206e+01 +3.5969924649589865e+02 +3.9723905821860528e+04 -1.7950551677161951e+06 -1.9864461157876700e+08 
+7.4999999999999893e+00 -1.0332778650675301e+00 +2.2759499178455402e+00 +1.9835682311650384e+01 +3.7534852248747382e+02 +3.6187149333993686e+04 -1.8751957899526495e+06 -1.8242953611836013e+08 
+7.5999999999999890e+00 -1.0332798682034627e+00 +2.2753011087798867e+00 +2.0029743961703598e+01 +3.9102616100111067e+02 +3.2649024138394852e+04 -1.9553578653661623e+06 -1.6610565769648361e+08 
+7.6999999999999886e+00 -1.0332818146056904e+00 +2.2746473188531948e+00 +2.0221335198245100e+01 +4.0669724652394876e+02 +2.9123621952246463e+04 -2.0353789472867430e+06 -1.4974351610303211e+08 
+7.7999999999999883e+00 -1.0332837004377566e+00 +2.2739905684299679e+00 +2.0409787793985078e+01 +4.2232685784865743e+02 +2.5625033349581761e+04 -2.1150965489412323e+06 -1.3341364610410215e+08 
+7.8999999999999879e+00 -1.0332855218639347e+00 +2.2733328780335667e+00 +2.0594433580266397e+01 +4.3788006762376722e+02 +2.2167347978663933e+04 -2.1943481405526735e+06 -1.1718657844833808e+08 
+7.9999999999999876e+00 -1.0332872750493751e+00 +2.2726762683367681e+00 +2.0774604462376580e+01 +4.5332194258063532e+02 +1.8764654284296968e+04 -2.2729711504034502e+06 -1.0113283857319874e+08 
+8.0999999999999872e+00 -1.0332889561600378e+00 +2.2720227601748064e+00 +2.0949632410905583e+01 +4.6861754307848400e+02 +1.5431039678497387e+04 -2.3508029618418827e+06 -8.5322947432053074e+07 
+8.1999999999999869e+00 -1.0332905613628156e+00 +2.2713743745489938e+00 +2.1118849475957436e+01 +4.8373192295058055e+02 +1.2180590270530001e+04 -2.4276809121248657e+06 -6.9827420203999922e+07 
+8.2999999999999865e+00 -1.0332920868254478e+00 +2.2707331326171678e+00 +2.1281587774284674e+01 +4.9863012971262356e+02 +9.0273911273122994e+03 -2.5034422933118301e+06 -5.4716767571312591e+07 
+8.3999999999999861e+00 -1.0332935287166551e+00 +2.2701010557146848e+00 +2.1437179506292615e+01 +5.1327720390350885e+02 +5.9855259447387325e+03 -2.5779243481601481e+06 -4.0061494134962544e+07 
+8.4999999999999858e+00 -1.0332948832061575e+00 +2.2694801654107994e+00 +2.1584956964630781e+01 +5.2763817686467860e+02 +3.0690767563867389e+03 -2.6509642597484291e+06 -2.5932096990665525e+07 
+8.5999999999999854e+00 -1.0332961482810781e+00 +2.2688724484951295e+00 +2.1724444185482415e+01 +5.4167555065159263e+02 +2.8855169050884609e+02 -2.7223814028868061e+06 -1.2382815429233886e+07 
+8.6999999999999851e+00 -1.0332973290916914e+00 +2.2682795010941037e+00 +2.1855924424943812e+01 +5.5534850483410798e+02 -2.3593656752382103e+03 -2.7919538388267104e+06 +5.9420747702935152e+05 
+8.7999999999999847e+00 -1.0332984325669317e+00 +2.2677027616573251e+00 +2.1979872346617476e+01 +5.6861687651738225e+02 -4.8814099519319407e+03 -2.8594554671438457e+06 +1.3021985694344722e+07 
+8.8999999999999844e+00 -1.0332994656366641e+00 +2.2671436681953892e+00 +2.2096762722507584e+01 +5.8144051643462251e+02 -7.2843175284312047e+03 -2.9246602662161435e+06 +2.4923540258678325e+07 
+8.9999999999999840e+00 -1.0333004352315676e+00 +2.2666036582784606e+00 +2.2207070411708710e+01 +5.9377928954935248e+02 -9.5748261786514013e+03 -2.9873422998540541e+06 +3.6321897632960044e+07 
+9.0999999999999837e+00 -1.0333013482832305e+00 +2.2660841690228377e+00 +2.2311270373421245e+01 +6.0559307548818333e+02 -1.1759675311348910e+04 -3.0472757199006504e+06 +4.7240090887784503e+07 
+9.1999999999999833e+00 -1.0333022117241399e+00 +2.2655866370802613e+00 +2.2409837664731224e+01 +6.1684176888890909e+02 -1.3845605916782679e+04 -3.1042347683122456e+06 +5.7701159408100329e+07 
+9.2999999999999829e+00 -1.0333030324876877e+00 +2.2651124986237763e+00 +2.2503247441193796e+01 +6.2748527983759277e+02 -1.5839360570603289e+04 -3.1579937797194049e+06 +6.7728148877811074e+07 
+9.3999999999999826e+00 -1.0333038175082030e+00 +2.2646631893285760e+00 +2.2591974960544789e+01 +6.3748353448456498e+02 -1.7747683503082404e+04 -3.2083271851441273e+06 +7.7344111598110974e+07 
+9.4999999999999822e+00 -1.0333045737209792e+00 +2.2642401443644631e+00 +2.2676495585634271e+01 +6.4679647528167857e+02 -1.9577320641235241e+04 -3.2550095133799408e+06 +8.6572106635804862e+07 
+9.5999999999999819e+00 -1.0333053080623005e+00 +2.2638447983771690e+00 +2.2757284787850548e+01 +6.5538406157778581e+02 -2.1335019676836895e+04 -3.2978153945499770e+06 +9.5435200146656767e+07 
+9.6999999999999815e+00 -1.0333060274694346e+00 +2.2634785854840360e+00 +2.2834818145936580e+01 +6.6320626976134747e+02 -2.3027530034575939e+04 -3.3365195609468068e+06 +1.0395646518654349e+08 
+9.7999999999999812e+00 -1.0333067388806676e+00 +2.2631429392462432e+00 +2.2909571348748695e+01 +6.7022309413719438e+02 -2.4661602907867138e+04 -3.3708968522815346e+06 +1.1215898182439899e+08 
+9.8999999999999808e+00 -1.0333074492353322e+00 +2.2628392926658125e+00 +2.2982020200687778e+01 +6.7639454701872205e+02 -2.6243991376080754e+04 -3.4007222161807148e+06 +1.2006583772734946e+08 
+9.9999999999999805e+00 -1.0333081654738430e+00 +2.2625690781712646e+00 +2.3052640624105653e+01 +6.8168065920427762e+02 -2.7781450428274293e+04 -3.4257707110902285e+06 +1.2770012820375180e+08 
+1.0099999999999980e+01 -1.0333088945376554e+00 +2.2623337275956041e+00 +2.3121908654318741e+01 +6.8604148065101333e+02 -2.9280736865851806e+04 -3.4458175102363452e+06 +1.3508495572054476e+08 
