# field on trajectory
# s[mm] rx[mm] ry[mm] rz[mm] bx[T] by[T] bz[T]
0.0000000000000000e+00 +9.1312999999999995e+00 +0.0000000000000000e+00 +0.0000000000000000e+00 +1.1243761214161740e-02 -1.0350507555189474e+00 -5.9105766108618396e-02
1.0000000000000001e-01 +9.1312994828324481e+00 +0.0000000000000000e+00 +9.9999999998216918e-02 +1.1243671240651055e-02 -1.0350518404419127e+00 -5.9104894416754518e-02
2.0000000000000001e-01 +9.1312979313290921e+00 +0.0000000000000000e+00 +1.9999999998573531e-01 +1.1243574192191240e-02 -1.0350528021452985e+00 -5.9104024756228016e-02
3.0000000000000004e-01 +9.1312953454889723e+00 +0.0000000000000000e+00 +2.9999999995185667e-01 +1.1243469099969842e-02 -1.0350536274443995e+00 -5.9103156261611230e-02
4.0000000000000002e-01 +9.1312917253112662e+00 +0.0000000000000000e+00 +3.9999999988588247e-01 +1.1243354995202050e-02 -1.0350543031530406e+00 -5.9102288067480094e-02
5.0000000000000000e-01 +9.1312870707952989e+00 +0.0000000000000000e+00 +4.9999999977711412e-01 +1.1243230909135742e-02 -1.0350548160833577e+00 -5.9101419308419341e-02
5.9999999999999998e-01 +9.1312813819405587e+00 +0.0000000000000000e+00 +5.9999999961485306e-01 +1.1243096245137221e-02 -1.0350551584234942e+00 -5.9100549409620909e-02
6.9999999999999996e-01 +9.1312746587467029e+00 +0.0000000000000000e+00 +6.9999999938840063e-01 +1.1242951894928131e-02 -1.0350553438715122e+00 -5.9099678958663755e-02
7.9999999999999993e-01 +9.1312669012135448e+00 +0.0000000000000000e+00 +7.9999999908705821e-01 +1.1242799122327446e-02 -1.0350553915023954e+00 -5.9098808833730324e-02
8.9999999999999991e-01 +9.1312581093410383e+00 +0.0000000000000000e+00 +8.9999999870012737e-01 +1.1242639191163176e-02 -1.0350553203904738e+00 -5.9097939913012772e-02
9.9999999999999989e-01 +9.1312482831292510e+00 +0.0000000000000000e+00 +9.9999999821690944e-01 +1.1242473365266471e-02 -1.0350551496096860e+00 -5.9097073074713222e-02
1.0999999999999999e+00 +9.1312374225783550e+00 +0.0000000000000000e+00 +1.0999999976267059e+00 +1.1242302908465686e-02 -1.0350548982338368e+00 -5.9096209197044121e-02
1.2000000000000000e+00 +9.1312255276886010e+00 +0.0000000000000000e+00 +1.1999999969188182e+00 +1.1242129084580469e-02 -1.0350545853368571e+00 -5.9095349158228311e-02
1.3000000000000000e+00 +9.1312125984602996e+00 +0.0000000000000000e+00 +1.2999999960825477e+00 +1.1241953157415822e-02 -1.0350542299930612e+00 -5.9094493836499389e-02
1.4000000000000001e+00 +9.1311986348938081e+00 +0.0000000000000000e+00 +1.3999999951071960e+00 +1.1241776390756198e-02 -1.0350538512774070e+00 -5.9093644110101790e-02
1.5000000000000002e+00 +9.1311836369895030e+00 +0.0000000000000000e+00 +1.4999999939820645e+00 +1.1241600048359578e-02 -1.0350534682657568e+00 -5.9092800857291274e-02
1.6000000000000003e+00 +9.1311676047477679e+00 +0.0000000000000000e+00 +1.5999999926964548e+00 +1.1241425393951520e-02 -1.0350531000351308e+00 -5.9091964956334869e-02
1.7000000000000004e+00 +9.1311505381689706e+00 +0.0000000000000000e+00 +1.6999999912396684e+00 +1.1241253691219266e-02 -1.0350527656639712e+00 -5.9091137285511311e-02
1.8000000000000005e+00 +9.1311324372534450e+00 +0.0000000000000000e+00 +1.7999999896010068e+00 +1.1241086203805810e-02 -1.0350524842323985e+00 -5.9090318723111185e-02
1.9000000000000006e+00 +9.1311133020014736e+00 +0.0000000000000000e+00 +1.8999999877697717e+00 +1.1240924195303955e-02 -1.0350522748224718e+00 -5.9089510147437151e-02
2.0000000000000004e+00 +9.1310931324132660e+00 +0.0000000000000000e+00 +1.9999999857352646e+00 +1.1240768929250420e-02 -1.0350521565184467e+00 -5.9088712436804205e-02
2.1000000000000005e+00 +9.1310719284889412e+00 +0.0000000000000000e+00 +2.0999999834867866e+00 +1.1240621669119882e-02 -1.0350521484070345e+00 -5.9087926469539954e-02
2.2000000000000006e+00 +9.1310496902285081e+00 +0.0000000000000000e+00 +2.1999999810136397e+00 +1.1240483678319068e-02 -1.0350522695776607e+00 -5.9087153123984687e-02
2.3000000000000007e+00 +9.1310264176318459e+00 +0.0000000000000000e+00 +2.2999999783051250e+00 +1.1240356220180832e-02 -1.0350525391227239e+00 -5.9086393278491786e-02
2.4000000000000008e+00 +9.1310021106986863e+00 +0.0000000000000000e+00 +2.3999999753505441e+00 +1.1240240557958194e-02 -1.0350529761378569e+00 -5.9085647811427826e-02
2.5000000000000009e+00 +9.1309767694285924e+00 +0.0000000000000000e+00 +2.4999999721391983e+00 +1.1240137954818461e-02 -1.0350535997221815e+00 -5.9084917601172911e-02
2.6000000000000010e+00 +9.1309503938209442e+00 +0.0000000000000000e+00 +2.5999999686603892e+00 +1.1240049247791725e-02 -1.0350544255830840e+00 -5.9084203173337770e-02
2.7000000000000011e+00 +9.1309229838749175e+00 +0.0000000000000000e+00 +2.6999999649034176e+00 +1.1239973569674079e-02 -1.0350554558492546e+00 -5.9083503642387111e-02
2.8000000000000012e+00 +9.1308945395894874e+00 +0.0000000000000000e+00 +2.7999999608575847e+00 +1.1239909627247271e-02 -1.0350566892559872e+00 -5.9082817769937755e-02
2.9000000000000012e+00 +9.1308650609634228e+00 +0.0000000000000000e+00 +2.8999999565121919e+00 +1.1239856127343465e-02 -1.0350581245405397e+00 -5.9082144317528507e-02
3.0000000000000013e+00 +9.1308345479952937e+00 +0.0000000000000000e+00 +2.9999999518565397e+00 +1.1239811776852616e-02 -1.0350597604421801e+00 -5.9081482046612475e-02
3.1000000000000014e+00 +9.1308030006834695e+00 +0.0000000000000000e+00 +3.0999999468799295e+00 +1.1239775282729859e-02 -1.0350615957022304e+00 -5.9080829718549707e-02
3.2000000000000015e+00 +9.1307704190261187e+00 +0.0000000000000000e+00 +3.1999999415716616e+00 +1.1239745352002927e-02 -1.0350636290641122e+00 -5.9080186094599654e-02
3.3000000000000016e+00 +9.1307368030212128e+00 +0.0000000000000000e+00 +3.2999999359210368e+00 +1.1239720691779538e-02 -1.0350658592733912e+00 -5.9079549935913710e-02
3.4000000000000017e+00 +9.1307021526665277e+00 +0.0000000000000000e+00 +3.3999999299173553e+00 +1.1239700009254791e-02 -1.0350682850778259e+00 -5.9078920003527768e-02
3.5000000000000018e+00 +9.1306664679596423e+00 +0.0000000000000000e+00 +3.4999999235499177e+00 +1.1239682011718592e-02 -1.0350709052274090e+00 -5.9078295058354678e-02
3.6000000000000019e+00 +9.1306297488979418e+00 +0.0000000000000000e+00 +3.5999999168080241e+00 +1.1239665406563000e-02 -1.0350737184744123e+00 -5.9077673861176801e-02
3.7000000000000020e+00 +9.1305919954786194e+00 +0.0000000000000000e+00 +3.6999999096809746e+00 +1.1239648901289695e-02 -1.0350767235734384e+00 -5.9077055172638573e-02
3.8000000000000020e+00 +9.1305532076986768e+00 +0.0000000000000000e+00 +3.7999999021580693e+00 +1.1239631203517344e-02 -1.0350799192814577e+00 -5.9076437753238932e-02
3.9000000000000021e+00 +9.1305133855549236e+00 +0.0000000000000000e+00 +3.8999998942286074e+00 +1.1239611020989009e-02 -1.0350833043578600e+00 -5.9075820363323955e-02
4.0000000000000018e+00 +9.1304725290439830e+00 +0.0000000000000000e+00 +3.9999998858818886e+00 +1.1239587061579568e-02 -1.0350868775644952e+00 -5.9075201763079330e-02
4.1000000000000014e+00 +9.1304306381622862e+00 +0.0000000000000000e+00 +4.0999998771072121e+00 +1.1239558033303112e-02 -1.0350906376657236e+00 -5.9074580712522848e-02
4.2000000000000011e+00 +9.1303877129060833e+00 +0.0000000000000000e+00 +4.1999998678938777e+00 +1.1239522644320352e-02 -1.0350945834284564e+00 -5.9073955971497040e-02
4.3000000000000007e+00 +9.1303437532714344e+00 +0.0000000000000000e+00 +4.2999998582311836e+00 +1.1239479602946044e-02 -1.0350987136222056e+00 -5.9073326299661610e-02
4.4000000000000004e+00 +9.1302987592542166e+00 +0.0000000000000000e+00 +4.3999998481084290e+00 +1.1239427617656384e-02 -1.0351030270191246e+00 -5.9072690456485950e-02
4.5000000000000000e+00 +9.1302527308501258e+00 +0.0000000000000000e+00 +4.4999998375149124e+00 +1.1239365397096445e-02 -1.0351075223940580e+00 -5.9072047201241824e-02
4.5999999999999996e+00 +9.1302056680546730e+00 +0.0000000000000000e+00 +4.5999998264399320e+00 +1.1239292044120015e-02 -1.0351121958978333e+00 -5.9071395648886603e-02
4.6999999999999993e+00 +9.1301575708631955e+00 +0.0000000000000000e+00 +4.6999998148727862e+00 +1.1239208237805500e-02 -1.0351170331748563e+00 -5.9070736337848720e-02
4.7999999999999989e+00 +9.1301084392708649e+00 +0.0000000000000000e+00 +4.7999998028027724e+00 +1.1239115051186252e-02 -1.0351220172395201e+00 -5.9070070162550885e-02
4.8999999999999986e+00 +9.1300582732727094e+00 +0.0000000000000000e+00 +4.8999997902191890e+00 +1.1239013557182761e-02 -1.0351271311021644e+00 -5.9069398017553953e-02
4.9999999999999982e+00 +9.1300070728636236e+00 +0.0000000000000000e+00 +4.9999997771113325e+00 +1.1238904828594480e-02 -1.0351323577687712e+00 -5.9068720797567774e-02
5.0999999999999979e+00 +9.1299548380383921e+00 +0.0000000000000000e+00 +5.0999997634685013e+00 +1.1238789938091659e-02 -1.0351376802406682e+00 -5.9068039397461941e-02
5.1999999999999975e+00 +9.1299015687917020e+00 +0.0000000000000000e+00 +5.1999997492799910e+00 +1.1238669958207166e-02 -1.0351430815142233e+00 -5.9067354712276629e-02
5.2999999999999972e+00 +9.1298472651181637e+00 +0.0000000000000000e+00 +5.2999997345350991e+00 +1.1238545961328299e-02 -1.0351485445805468e+00 -5.9066667637233443e-02
5.3999999999999968e+00 +9.1297919270123256e+00 +0.0000000000000000e+00 +5.3999997192231222e+00 +1.1238419019688620e-02 -1.0351540524251888e+00 -5.9065979067746119e-02
5.4999999999999964e+00 +9.1297355544686916e+00 +0.0000000000000000e+00 +5.4999997033333567e+00 +1.1238290205359781e-02 -1.0351595880278381e+00 -5.9065289899431439e-02
5.5999999999999961e+00 +9.1296781474817355e+00 +0.0000000000000000e+00 +5.5999996868550985e+00 +1.1238160590243317e-02 -1.0351651343620223e+00 -5.9064601028119904e-02
5.6999999999999957e+00 +9.1296197060459239e+00 +0.0000000000000000e+00 +5.6999996697776441e+00 +1.1238031246062492e-02 -1.0351706743948064e+00 -5.9063913349866687e-02
5.7999999999999954e+00 +9.1295602301557270e+00 +0.0000000000000000e+00 +5.7999996520902890e+00 +1.1237903244354098e-02 -1.0351761910864907e+00 -5.9063227760962345e-02
5.8999999999999950e+00 +9.1294997198056400e+00 +0.0000000000000000e+00 +5.8999996337823291e+00 +1.1237777656460265e-02 -1.0351816673903105e+00 -5.9062545157943555e-02
5.9999999999999947e+00 +9.1294381749901987e+00 +0.0000000000000000e+00 +5.9999996148430599e+00 +1.1237655553520291e-02 -1.0351870862521366e+00 -5.9061866437604076e-02
6.0999999999999943e+00 +9.1293755957039959e+00 +0.0000000000000000e+00 +6.0999995952617772e+00 +1.1237538006462433e-02 -1.0351924306101707e+00 -5.9061192497005394e-02
6.1999999999999940e+00 +9.1293119819416990e+00 +0.0000000000000000e+00 +6.1999995750277757e+00 +1.1237426085995721e-02 -1.0351976833946492e+00 -5.9060524233487621e-02
6.2999999999999936e+00 +9.1292473336980677e+00 +0.0000000000000000e+00 +6.2999995541303502e+00 +1.1237320862601772e-02 -1.0352028275275371e+00 -5.9059862544680222e-02
6.3999999999999932e+00 +9.1291816509679684e+00 +0.0000000000000000e+00 +6.3999995325587964e+00 +1.1237223406526576e-02 -1.0352078459222294e+00 -5.9059208328512816e-02
6.4999999999999929e+00 +9.1291149337463953e+00 +0.0000000000000000e+00 +6.4999995103024100e+00 +1.1237134787772329e-02 -1.0352127214832521e+00 -5.9058562483226038e-02
6.5999999999999925e+00 +9.1290471820284846e+00 +0.0000000000000000e+00 +6.5999994873504848e+00 +1.1237055762606082e-02 -1.0352174407306842e+00 -5.9057925728639667e-02
6.6999999999999922e+00 +9.1289783958095292e+00 +0.0000000000000000e+00 +6.6999994636923166e+00 +1.1236985833219896e-02 -1.0352220046776457e+00 -5.9057298069826548e-02
6.7999999999999918e+00 +9.1289085750849726e+00 +0.0000000000000000e+00 +6.7999994393172001e+00 +1.1236924188426197e-02 -1.0352264179618003e+00 -5.9056679333177917e-02
6.8999999999999915e+00 +9.1288377198504129e+00 +0.0000000000000000e+00 +6.8999994142144301e+00 +1.1236870017190530e-02 -1.0352306852214317e+00 -5.9056069345126763e-02
6.9999999999999911e+00 +9.1287658301015924e+00 +0.0000000000000000e+00 +6.9999993883733005e+00 +1.1236822508638770e-02 -1.0352348110955258e+00 -5.9055467932147582e-02
7.0999999999999908e+00 +9.1286929058343951e+00 +0.0000000000000000e+00 +7.0999993617831070e+00 +1.1236780852064270e-02 -1.0352388002238484e+00 -5.9054874920755770e-02
7.1999999999999904e+00 +9.1286189470448438e+00 +0.0000000000000000e+00 +7.1999993344331443e+00 +1.1236744236935086e-02 -1.0352426572470295e+00 -5.9054290137507577e-02
7.2999999999999901e+00 +9.1285439537290909e+00 +0.0000000000000000e+00 +7.2999993063127073e+00 +1.1236711852901125e-02 -1.0352463868066428e+00 -5.9053713408999529e-02
7.3999999999999897e+00 +9.1284679258834167e+00 +0.0000000000000000e+00 +7.3999992774110908e+00 +1.1236682889801392e-02 -1.0352499935452868e+00 -5.9053144561868283e-02
7.4999999999999893e+00 +9.1283908635042241e+00 +0.0000000000000000e+00 +7.4999992477175885e+00 +1.1236656537671131e-02 -1.0352534821066672e+00 -5.9052583422790225e-02
7.5999999999999890e+00 +9.1283127665880350e+00 +0.0000000000000000e+00 +7.5999992172214963e+00 +1.1236631986749049e-02 -1.0352568571356775e+00 -5.9052029818481018e-02
7.6999999999999886e+00 +9.1282336351314850e+00 +0.0000000000000000e+00 +7.6999991859121080e+00 +1.1236608427484494e-02 -1.0352601232784782e+00 -5.9051483575695431e-02
7.7999999999999883e+00 +9.1281534691313180e+00 +0.0000000000000000e+00 +7.7999991537787192e+00 +1.1236585050544685e-02 -1.0352632851825814e+00 -5.9050944521226986e-02
7.8999999999999879e+00 +9.1280722685843845e+00 +0.0000000000000000e+00 +7.8999991208106239e+00 +1.1236561046821860e-02 -1.0352663474969281e+00 -5.9050412481907531e-02
7.9999999999999876e+00 +9.1279900334876309e+00 +0.0000000000000000e+00 +7.9999990869971169e+00 +1.1236535607440550e-02 -1.0352693148719745e+00 -5.9049887284606986e-02
8.0999999999999872e+00 +9.1279067638380997e+00 +0.0000000000000000e+00 +8.0999990523274921e+00 +1.1236507923764705e-02 -1.0352721919597669e+00 -5.9049368756232991e-02
8.1999999999999869e+00 +9.1278224596329256e+00 +0.0000000000000000e+00 +8.1999990167910450e+00 +1.1236477187404963e-02 -1.0352749834140280e+00 -5.9048856723730600e-02
8.2999999999999865e+00 +9.1277371208693268e+00 +0.0000000000000000e+00 +8.2999989803770688e+00 +1.1236442590225814e-02 -1.0352776938902366e+00 -5.9048351014081929e-02
8.3999999999999861e+00 +9.1276507475446031e+00 +0.0000000000000000e+00 +8.3999989430748592e+00 +1.1236403324352854e-02 -1.0352803280457072e+00 -5.9047851454305897e-02
8.4999999999999858e+00 +9.1275633396561329e+00 +0.0000000000000000e+00 +8.4999989048737117e+00 +1.1236358582179950e-02 -1.0352828905396725e+00 -5.9047357871457727e-02
8.5999999999999854e+00 +9.1274748972013615e+00 +0.0000000000000000e+00 +8.5999988657629185e+00 +1.1236307782303081e-02 -1.0352853860445022e+00 -5.9046870080376547e-02
8.6999999999999851e+00 +9.1273854201778075e+00 +0.0000000000000000e+00 +8.6999988257317753e+00 +1.1236251247185433e-02 -1.0352878192790711e+00 -5.9046387846779756e-02
8.7999999999999847e+00 +9.1272949085830462e+00 +0.0000000000000000e+00 +8.7999987847695778e+00 +1.1236189525098706e-02 -1.0352901949752193e+00 -5.9045910923757848e-02
8.8999999999999844e+00 +9.1272033624147131e+00 +0.0000000000000000e+00 +8.8999987428656180e+00 +1.1236123164138512e-02 -1.0352925178666550e+00 -5.9045439063978702e-02
8.9999999999999840e+00 +9.1271107816704973e+00 +0.0000000000000000e+00 +8.9999987000091917e+00 +1.1236052712218336e-02 -1.0352947926890252e+00 -5.9044972019674298e-02
9.0999999999999837e+00 +9.1270171663481339e+00 +0.0000000000000000e+00 +9.0999986561895927e+00 +1.1235978717063590e-02 -1.0352970241799877e+00 -5.9044509542627778e-02
9.1999999999999833e+00 +9.1269225164454042e+00 +0.0000000000000000e+00 +9.1999986113961167e+00 +1.1235901726205599e-02 -1.0352992170792785e+00 -5.9044051384160329e-02
9.2999999999999829e+00 +9.1268268319601251e+00 +0.0000000000000000e+00 +9.2999985656180559e+00 +1.1235822286975632e-02 -1.0353013761287873e+00 -5.9043597295118176e-02
9.3999999999999826e+00 +9.1267301128901508e+00 +0.0000000000000000e+00 +9.3999985188447059e+00 +1.1235740946498898e-02 -1.0353035060726230e+00 -5.9043147025859465e-02
9.4999999999999822e+00 +9.1266323592333602e+00 +0.0000000000000000e+00 +9.4999984710653607e+00 +1.1235658251688553e-02 -1.0353056116571868e+00 -5.9042700326241163e-02
9.5999999999999819e+00 +9.1265335709876609e+00 +0.0000000000000000e+00 +9.5999984222693158e+00 +1.1235574749239721e-02 -1.0353076976312434e+00 -5.9042256945606164e-02
9.6999999999999815e+00 +9.1264337481509781e+00 +0.0000000000000000e+00 +9.6999983724458634e+00 +1.1235490985623479e-02 -1.0353097687459902e+00 -5.9041816632770062e-02
9.7999999999999812e+00 +9.1263328907212529e+00 +0.0000000000000000e+00 +9.7999983215842992e+00 +1.1235407507080875e-02 -1.0353118297551271e+00 -5.9041379136008126e-02
9.8999999999999808e+00 +9.1262309986964354e+00 +0.0000000000000000e+00 +9.8999982696739153e+00 +1.1235324859616903e-02 -1.0353138854149291e+00 -5.9040944203042268e-02
9.9999999999999805e+00 +9.1261280720744811e+00 +0.0000000000000000e+00 +9.9999982167040073e+00 +1.1235243588994538e-02 -1.0353159404843151e+00 -5.9040511581027987e-02
1.0099999999999980e+01 +9.1260241108533489e+00 +0.0000000000000000e+00 +1.0099998162663869e+01 +1.1235164240728707e-02 -1.0353179997249204e+00 -5.9040081016541304e-02
1.0199999999999980e+01 +9.1259191150309906e+00 +0.0000000000000000e+00 +1.0199998107542795e+01 +1.1235087360080281e-02 -1.0353200679011647e+00 -5.9039652255565664e-02
1.0299999999999979e+01 +9.1258130846053511e+00 +0.0000000000000000e+00 +1.0299998051330077e+01 +1.1235013492050078e-02 -1.0353221497803229e+00 -5.9039225043478853e-02
1.0399999999999979e+01 +9.1257060195743591e+00 +0.0000000000000000e+00 +1.0399997994015010e+01 +1.1234943181372860e-02 -1.0353242501325992e+00 -5.9038799125040099e-02
1.0499999999999979e+01 +9.1255979199359292e+00 +0.0000000000000000e+00 +1.0499997935586888e+01 +1.1234876972511297e-02 -1.0353263737311909e+00 -5.9038374244376760e-02
1.0599999999999978e+01 +9.1254887856879492e+00 +0.0000000000000000e+00 +1.0599997876035005e+01 +1.1234815289235787e-02 -1.0353285241715964e+00 -5.9037950405574746e-02
1.0699999999999978e+01 +9.1253786168282804e+00 +0.0000000000000000e+00 +1.0699997815348652e+01 +1.1234758073492458e-02 -1.0353307003276613e+00 -5.9037528654964706e-02
1.0799999999999978e+01 +9.1252674133547629e+00 +0.0000000000000000e+00 +1.0799997753517125e+01 +1.1234705146915432e-02 -1.0353328998915883e+00 -5.9037110300023933e-02
1.0899999999999977e+01 +9.1251551752652098e+00 +0.0000000000000000e+00 +1.0899997690529716e+01 +1.1234656331296340e-02 -1.0353351205544725e+00 -5.9036696648862352e-02
1.0999999999999977e+01 +9.1250419025574132e+00 +0.0000000000000000e+00 +1.0999997626375718e+01 +1.1234611448588687e-02 -1.0353373600062727e+00 -5.9036289010239336e-02
1.1099999999999977e+01 +9.1249275952291491e+00 +0.0000000000000000e+00 +1.1099997561044423e+01 +1.1234570320912195e-02 -1.0353396159357822e+00 -5.9035888693580507e-02
1.1199999999999976e+01 +9.1248122532781739e+00 +0.0000000000000000e+00 +1.1199997494525126e+01 +1.1234532770557167e-02 -1.0353418860305994e+00 -5.9035497008994568e-02
1.1299999999999976e+01 +9.1246958767022335e+00 +0.0000000000000000e+00 +1.1299997426807121e+01 +1.1234498619988825e-02 -1.0353441679770992e+00 -5.9035115267290134e-02
1.1399999999999975e+01 +9.1245784654990594e+00 +0.0000000000000000e+00 +1.1399997357879698e+01 +1.1234467691851682e-02 -1.0353464594604020e+00 -5.9034744779992446e-02
1.1499999999999975e+01 +9.1244600196663743e+00 +0.0000000000000000e+00 +1.1499997287732151e+01 +1.1234439808973901e-02 -1.0353487581643452e+00 -5.9034386859360286e-02
1.1599999999999975e+01 +9.1243405392018939e+00 +0.0000000000000000e+00 +1.1599997216353772e+01 +1.1234414794371629e-02 -1.0353510617714541e+00 -5.9034042818402695e-02
1.1699999999999974e+01 +9.1242200241033284e+00 +0.0000000000000000e+00 +1.1699997143733855e+01 +1.1234392471253392e-02 -1.0353533679629128e+00 -5.9033713970895831e-02
1.1799999999999974e+01 +9.1240984743683864e+00 +0.0000000000000000e+00 +1.1799997069861691e+01 +1.1234372663024421e-02 -1.0353556744185322e+00 -5.9033401631399689e-02
