# trajectory
# s[mm] rx[mm] ry[mm] rz[mm] px[rad] py[rad] pz[rad]
0.0000000000000000e+00 +9.1013000000000002e+00 +0.0000000000000000e+00 +0.0000000000000000e+00 +0.0000000000000000e+00 +0.0000000000000000e+00 +1.0000000000000000e+00
-1.0000000000000001e-01 +9.1012994838604691e+00 +0.0000000000000000e+00 -9.9999999998223996e-02 +1.0322787234923781e-05 +0.0000000000000000e+00 +9.9999999994672006e-01
-2.0000000000000001e-01 +9.1012979354432364e+00 +0.0000000000000000e+00 -1.9999999998579204e-01 +2.0645553975264661e-05 +0.0000000000000000e+00 +9.9999999978688059e-01
-3.0000000000000004e-01 +9.1012953547503717e+00 +0.0000000000000000e+00 -2.9999999995204818e-01 +3.0968299783960337e-05 +0.0000000000000000e+00 +9.9999999952048224e-01
-4.0000000000000002e-01 +9.1012917417839905e+00 +0.0000000000000000e+00 -3.9999999988633655e-01 +4.1291024254312414e-05 +0.0000000000000000e+00 +9.9999999914752569e-01
-5.0000000000000000e-01 +9.1012870965462440e+00 +0.0000000000000000e+00 -4.9999999977800136e-01 +5.1613727009986902e-05 +0.0000000000000000e+00 +9.9999999866801159e-01
-5.9999999999999998e-01 +9.1012814190393225e+00 +0.0000000000000000e+00 -5.9999999961638695e-01 +6.1936407705014780e-05 +0.0000000000000000e+00 +9.9999999808194073e-01
-6.9999999999999996e-01 +9.1012747092654482e+00 +0.0000000000000000e+00 -6.9999999939083768e-01 +7.2259066023792608e-05 +0.0000000000000000e+00 +9.9999999738931367e-01
-7.9999999999999993e-01 +9.1012669672268736e+00 +0.0000000000000000e+00 -7.9999999909069786e-01 +8.2581701681083288e-05 +0.0000000000000000e+00 +9.9999999659013128e-01
-8.9999999999999991e-01 +9.1012581929258758e+00 +0.0000000000000000e+00 -8.9999999870531211e-01 +9.2904314422016828e-05 +0.0000000000000000e+00 +9.9999999568439424e-01
-9.9999999999999989e-01 +9.1012483863647606e+00 +0.0000000000000000e+00 -9.9999999822402497e-01 +1.0322690402209124e-04 +0.0000000000000000e+00 +9.9999999467210321e-01
-1.0999999999999999e+00 +9.1012375475458498e+00 +0.0000000000000000e+00 -1.0999999976361809e+00 +1.1354947028717350e-04 +0.0000000000000000e+00 +9.9999999355325897e-01
-1.2000000000000000e+00 +9.1012256764714863e+00 +0.0000000000000000e+00 -1.1999999969311250e+00 +1.2387201305350058e-04 +0.0000000000000000e+00 +9.9999999232786230e-01
-1.3000000000000000e+00 +9.1012127731440273e+00 +0.0000000000000000e+00 -1.2999999960982018e+00 +1.3419453218768056e-04 +0.0000000000000000e+00 +9.9999999099591386e-01
-1.4000000000000001e+00 +9.1011988375658408e+00 +0.0000000000000000e+00 -1.3999999951267561e+00 +1.4451702758669385e-04 +0.0000000000000000e+00 +9.9999998955741443e-01
-1.5000000000000002e+00 +9.1011838697393035e+00 +0.0000000000000000e+00 -1.4999999940061330e+00 +1.5483949917789443e-04 +0.0000000000000000e+00 +9.9999998801236478e-01
-1.6000000000000003e+00 +9.1011678696667992e+00 +0.0000000000000000e+00 -1.5999999927256774e+00 +1.6516194691901121e-04 +0.0000000000000000e+00 +9.9999998636076570e-01
-1.7000000000000004e+00 +9.1011508373507137e+00 +0.0000000000000000e+00 -1.6999999912747346e+00 +1.7548437079814948e-04 +0.0000000000000000e+00 +9.9999998460261785e-01
-1.8000000000000005e+00 +9.1011327727934344e+00 +0.0000000000000000e+00 -1.7999999896426495e+00 +1.8580677083379247e-04 +0.0000000000000000e+00 +9.9999998273792201e-01
-1.9000000000000006e+00 +9.1011136759973414e+00 +0.0000000000000000e+00 -1.8999999878187674e+00 +1.9612914707480282e-04 +0.0000000000000000e+00 +9.9999998076667884e-01
-2.0000000000000004e+00 +9.1010935469648100e+00 +0.0000000000000000e+00 -1.9999999857924338e+00 +2.0645149960042436e-04 +0.0000000000000000e+00 +9.9999997868888912e-01
-2.1000000000000005e+00 +9.1010723856982079e+00 +0.0000000000000000e+00 -2.0999999835529937e+00 +2.1677382851904874e-04 +0.0000000000000000e+00 +9.9999997650455352e-01
-2.2000000000000006e+00 +9.1010501921998888e+00 +0.0000000000000000e+00 -2.1999999810897930e+00 +2.2709613395463130e-04 +0.0000000000000000e+00 +9.9999997421367282e-01
-2.3000000000000007e+00 +9.1010269664721957e+00 +0.0000000000000000e+00 -2.2999999783921767e+00 +2.3741841603310552e-04 +0.0000000000000000e+00 +9.9999997181624767e-01
-2.4000000000000008e+00 +9.1010027085174574e+00 +0.0000000000000000e+00 -2.3999999754494907e+00 +2.4774067488114737e-04 +0.0000000000000000e+00 +9.9999996931227875e-01
-2.5000000000000009e+00 +9.1009774183379903e+00 +0.0000000000000000e+00 -2.4999999722510808e+00 +2.5806291062617449e-04 +0.0000000000000000e+00 +9.9999996670176672e-01
-2.6000000000000010e+00 +9.1009510959360984e+00 +0.0000000000000000e+00 -2.5999999687862925e+00 +2.6838512339634517e-04 +0.0000000000000000e+00 +9.9999996398471236e-01
-2.7000000000000011e+00 +9.1009237413140731e+00 +0.0000000000000000e+00 -2.6999999650444719e+00 +2.7870731332055711e-04 +0.0000000000000000e+00 +9.9999996116111622e-01
-2.8000000000000012e+00 +9.1008953544741917e+00 +0.0000000000000000e+00 -2.7999999610149646e+00 +2.8902948052844592e-04 +0.0000000000000000e+00 +9.9999995823097909e-01
-2.9000000000000012e+00 +9.1008659354187209e+00 +0.0000000000000000e+00 -2.8999999566871164e+00 +2.9935162515038355e-04 +0.0000000000000000e+00 +9.9999995519430152e-01
-3.0000000000000013e+00 +9.1008354841499113e+00 +0.0000000000000000e+00 -2.9999999520502736e+00 +3.0967374731747646e-04 +0.0000000000000000e+00 +9.9999995205108427e-01
-3.1000000000000014e+00 +9.1008040006700011e+00 +0.0000000000000000e+00 -3.0999999470937820e+00 +3.1999584716156361e-04 +0.0000000000000000e+00 +9.9999994880132792e-01
-3.2000000000000015e+00 +9.1007714849812178e+00 +0.0000000000000000e+00 -3.1999999418069880e+00 +3.3031792481521427e-04 +0.0000000000000000e+00 +9.9999994544503312e-01
-3.3000000000000016e+00 +9.1007379370857731e+00 +0.0000000000000000e+00 -3.2999999361792374e+00 +3.4063998041172544e-04 +0.0000000000000000e+00 +9.9999994198220055e-01
-3.4000000000000017e+00 +9.1007033569858660e+00 +0.0000000000000000e+00 -3.3999999301998769e+00 +3.5096201408511943e-04 +0.0000000000000000e+00 +9.9999993841283075e-01
-3.5000000000000018e+00 +9.1006677446836814e+00 +0.0000000000000000e+00 -3.4999999238582524e+00 +3.6128402597014093e-04 +0.0000000000000000e+00 +9.9999993473692450e-01
-3.6000000000000019e+00 +9.1006311001813938e+00 +0.0000000000000000e+00 -3.5999999171437107e+00 +3.7160601620225402e-04 +0.0000000000000000e+00 +9.9999993095448236e-01
-3.7000000000000020e+00 +9.1005934234811594e+00 +0.0000000000000000e+00 -3.6999999100455980e+00 +3.8192798491763893e-04 +0.0000000000000000e+00 +9.9999992706550489e-01
-3.8000000000000020e+00 +9.1005547145851224e+00 +0.0000000000000000e+00 -3.7999999025532607e+00 +3.9224993225318877e-04 +0.0000000000000000e+00 +9.9999992306999275e-01
-3.9000000000000021e+00 +9.1005149734954163e+00 +0.0000000000000000e+00 -3.8999998946560455e+00 +4.0257185834650575e-04 +0.0000000000000000e+00 +9.9999991896794649e-01
-4.0000000000000018e+00 +9.1004742002141565e+00 +0.0000000000000000e+00 -3.9999998863432991e+00 +4.1289376333589748e-04 +0.0000000000000000e+00 +9.9999991475936678e-01
-4.1000000000000014e+00 +9.1004323947434482e+00 +0.0000000000000000e+00 -4.0999998776043682e+00 +4.2321564736003315e-04 +0.0000000000000000e+00 +9.9999991044425418e-01
-4.2000000000000011e+00 +9.1003895570853803e+00 +0.0000000000000000e+00 -4.1999998684285993e+00 +4.3353751055420309e-04 +0.0000000000000000e+00 +9.9999990602260935e-01
-4.3000000000000007e+00 +9.1003456872420276e+00 +0.0000000000000000e+00 -4.2999998588053394e+00 +4.4385935304658010e-04 +0.0000000000000000e+00 +9.9999990149443285e-01
-4.4000000000000004e+00 +9.1003007852154560e+00 +0.0000000000000000e+00 -4.3999998487239349e+00 +4.5418117495787946e-04 +0.0000000000000000e+00 +9.9999989685972523e-01
-4.5000000000000000e+00 +9.1002548510077172e+00 +0.0000000000000000e+00 -4.4999998381737329e+00 +4.6450297640135874e-04 +0.0000000000000000e+00 +9.9999989211848705e-01
-4.5999999999999996e+00 +9.1002078846208541e+00 +0.0000000000000000e+00 -4.5999998271440807e+00 +4.7482475748281762e-04 +0.0000000000000000e+00 +9.9999988727071887e-01
-4.6999999999999993e+00 +9.1001598860568969e+00 +0.0000000000000000e+00 -4.6999998156243254e+00 +4.8514651830059775e-04 +0.0000000000000000e+00 +9.9999988231642134e-01
-4.7999999999999989e+00 +9.1001108553178671e+00 +0.0000000000000000e+00 -4.7999998036038143e+00 +4.9546825894558263e-04 +0.0000000000000000e+00 +9.9999987725559503e-01
-4.8999999999999986e+00 +9.1000607924057775e+00 +0.0000000000000000e+00 -4.8999997910718935e+00 +5.0578997950119779e-04 +0.0000000000000000e+00 +9.9999987208824048e-01
-4.9999999999999982e+00 +9.1000096973226334e+00 +0.0000000000000000e+00 -4.9999997780179113e+00 +5.1611168004341056e-04 +0.0000000000000000e+00 +9.9999986681435837e-01
-5.0999999999999979e+00 +9.0999575700704334e+00 +0.0000000000000000e+00 -5.0999997644312147e+00 +5.2643336064073037e-04 +0.0000000000000000e+00 +9.9999986143394914e-01
-5.1999999999999975e+00 +9.0999044106511686e+00 +0.0000000000000000e+00 -5.1999997503011501e+00 +5.3675502135420875e-04 +0.0000000000000000e+00 +9.9999985594701346e-01
-5.2999999999999972e+00 +9.0998502190668233e+00 +0.0000000000000000e+00 -5.2999997356170665e+00 +5.4707666223743944e-04 +0.0000000000000000e+00 +9.9999985035355188e-01
-5.3999999999999968e+00 +9.0997949953193800e+00 +0.0000000000000000e+00 -5.3999997203683101e+00 +5.5739828333655893e-04 +0.0000000000000000e+00 +9.9999984465356506e-01
-5.4999999999999964e+00 +9.0997387394108138e+00 +0.0000000000000000e+00 -5.4999997045442290e+00 +5.6771988469024647e-04 +0.0000000000000000e+00 +9.9999983884705357e-01
-5.5999999999999961e+00 +9.0996814513430984e+00 +0.0000000000000000e+00 -5.5999996881341705e+00 +5.7804146632972446e-04 +0.0000000000000000e+00 +9.9999983293401795e-01
-5.6999999999999957e+00 +9.0996231311182036e+00 +0.0000000000000000e+00 -5.6999996711274816e+00 +5.8836302827875884e-04 +0.0000000000000000e+00 +9.9999982691445877e-01
-5.7999999999999954e+00 +9.0995637787380979e+00 +0.0000000000000000e+00 -5.7999996535135114e+00 +5.9868457055365948e-04 +0.0000000000000000e+00 +9.9999982078837668e-01
-5.8999999999999950e+00 +9.0995033942047474e+00 +0.0000000000000000e+00 -5.8999996352816062e+00 +6.0900609316328084e-04 +0.0000000000000000e+00 +9.9999981455577225e-01
-5.9999999999999947e+00 +9.0994419775201205e+00 +0.0000000000000000e+00 -5.9999996164211149e+00 +6.1932759610902220e-04 +0.0000000000000000e+00 +9.9999980821664614e-01
-6.0999999999999943e+00 +9.0993795286861818e+00 +0.0000000000000000e+00 -6.0999995969213847e+00 +6.2964907938627547e-04 +0.0000000000000000e+00 +9.9999980177099890e-01
-6.1999999999999940e+00 +9.0993160477048995e+00 +0.0000000000000000e+00 -6.1999995767717637e+00 +6.3997054300034338e-04 +0.0000000000000000e+00 +9.9999979521883120e-01
-6.2999999999999936e+00 +9.0992515345782365e+00 +0.0000000000000000e+00 -6.2999995559616000e+00 +6.5029198698235739e-04 +0.0000000000000000e+00 +9.9999978856014360e-01
-6.3999999999999932e+00 +9.0991859893081557e+00 +0.0000000000000000e+00 -6.3999995344802416e+00 +6.6061341139072595e-04 +0.0000000000000000e+00 +9.9999978179493665e-01
-6.4999999999999929e+00 +9.0991194118966092e+00 +0.0000000000000000e+00 -6.4999995123170367e+00 +6.7093481631113521e-04 +0.0000000000000000e+00 +9.9999977492321090e-01
-6.5999999999999925e+00 +9.0990518023455405e+00 +0.0000000000000000e+00 -6.5999994894613332e+00 +6.8125620185654991e-04 +0.0000000000000000e+00 +9.9999976794496692e-01
-6.6999999999999922e+00 +9.0989831606568803e+00 +0.0000000000000000e+00 -6.6999994659024793e+00 +6.9157756816721442e-04 +0.0000000000000000e+00 +9.9999976086020514e-01
-6.7999999999999918e+00 +9.0989134868325436e+00 +0.0000000000000000e+00 -6.7999994416298239e+00 +7.0189891541065381e-04 +0.0000000000000000e+00 +9.9999975366892602e-01
-6.8999999999999915e+00 +9.0988427808744277e+00 +0.0000000000000000e+00 -6.8999994166327143e+00 +7.1222024378167492e-04 +0.0000000000000000e+00 +9.9999974637113009e-01
-6.9999999999999911e+00 +9.0987710427844082e+00 +0.0000000000000000e+00 -6.9999993909004994e+00 +7.2254155350236736e-04 +0.0000000000000000e+00 +9.9999973896681771e-01
-7.0999999999999908e+00 +9.0986982725643397e+00 +0.0000000000000000e+00 -7.0999993644225272e+00 +7.3286284482210499e-04 +0.0000000000000000e+00 +9.9999973145598930e-01
-7.1999999999999904e+00 +9.0986244702160484e+00 +0.0000000000000000e+00 -7.1999993371881468e+00 +7.4318411801754694e-04 +0.0000000000000000e+00 +9.9999972383864522e-01
-7.2999999999999901e+00 +9.0985496357413300e+00 +0.0000000000000000e+00 -7.2999993091867061e+00 +7.5350537339263877e-04 +0.0000000000000000e+00 +9.9999971611478577e-01
-7.3999999999999897e+00 +9.0984737691419522e+00 +0.0000000000000000e+00 -7.3999992804075534e+00 +7.6382661127861432e-04 +0.0000000000000000e+00 +9.9999970828441131e-01
-7.4999999999999893e+00 +9.0983968704196450e+00 +0.0000000000000000e+00 -7.4999992508400375e+00 +7.7414783203399659e-04 +0.0000000000000000e+00 +9.9999970034752206e-01
-7.5999999999999890e+00 +9.0983189395761030e+00 +0.0000000000000000e+00 -7.5999992204735074e+00 +7.8446903604459958e-04 +0.0000000000000000e+00 +9.9999969230411823e-01
-7.6999999999999886e+00 +9.0982399766129802e+00 +0.0000000000000000e+00 -7.6999991892973112e+00 +7.9479022372352947e-04 +0.0000000000000000e+00 +9.9999968415420004e-01
-7.7999999999999883e+00 +9.0981599815318877e+00 +0.0000000000000000e+00 -7.7999991573007970e+00 +8.0511139551118658e-04 +0.0000000000000000e+00 +9.9999967589776773e-01
-7.8999999999999879e+00 +9.0980789543343921e+00 +0.0000000000000000e+00 -7.8999991244733136e+00 +8.1543255187526667e-04 +0.0000000000000000e+00 +9.9999966753482128e-01
-7.9999999999999876e+00 +9.0979968950220105e+00 +0.0000000000000000e+00 -7.9999990908042102e+00 +8.2575369331076268e-04 +0.0000000000000000e+00 +9.9999965906536070e-01
-8.0999999999999872e+00 +9.0979138035962102e+00 +0.0000000000000000e+00 -8.0999990562828348e+00 +8.3607482033736988e-04 +0.0000000000000000e+00 +9.9999965048938610e-01
-8.1999999999999869e+00 +9.0978296800584069e+00 +0.0000000000000000e+00 -8.1999990208985363e+00 +8.4639593347092361e-04 +0.0000000000000000e+00 +9.9999964180689749e-01
-8.2999999999999865e+00 +9.0977445244099631e+00 +0.0000000000000000e+00 -8.2999989846406628e+00 +8.5671703319483599e-04 +0.0000000000000000e+00 +9.9999963301789496e-01
-8.3999999999999861e+00 +9.0976583366521986e+00 +0.0000000000000000e+00 -8.3999989474985632e+00 +8.6703811995750030e-04 +0.0000000000000000e+00 +9.9999962412237842e-01
-8.4999999999999858e+00 +9.0975711167863889e+00 +0.0000000000000000e+00 -8.4999989094615866e+00 +8.7735919417229193e-04 +0.0000000000000000e+00 +9.9999961512034796e-01
-8.5999999999999854e+00 +9.0974828648137702e+00 +0.0000000000000000e+00 -8.5999988705190820e+00 +8.8768025621756958e-04 +0.0000000000000000e+00 +9.9999960601180360e-01
-8.6999999999999851e+00 +9.0973935807355399e+00 +0.0000000000000000e+00 -8.6999988306603964e+00 +8.9800130643667643e-04 +0.0000000000000000e+00 +9.9999959679674544e-01
-8.7999999999999847e+00 +9.0973032645528669e+00 +0.0000000000000000e+00 -8.7999987898748806e+00 +9.0832234513794137e-04 +0.0000000000000000e+00 +9.9999958747517348e-01
-8.8999999999999844e+00 +9.0972119162668879e+00 +0.0000000000000000e+00 -8.8999987481518819e+00 +9.1864337259468006e-04 +0.0000000000000000e+00 +9.9999957804708783e-01
-8.9999999999999840e+00 +9.0971195358787149e+00 +0.0000000000000000e+00 -8.9999987054807491e+00 +9.2896438904519645e-04 +0.0000000000000000e+00 +9.9999956851248872e-01
-9.0999999999999837e+00 +9.0970261233894387e+00 +0.0000000000000000e+00 -9.0999986618508295e+00 +9.3928539469278365e-04 +0.0000000000000000e+00 +9.9999955887137626e-01
-9.1999999999999833e+00 +9.0969316788001304e+00 +0.0000000000000000e+00 -9.1999986172514738e+00 +9.4960638970572578e-04 +0.0000000000000000e+00 +9.9999954912375055e-01
-9.2999999999999829e+00 +9.0968362021118470e+00 +0.0000000000000000e+00 -9.2999985716720293e+00 +9.5992737421729893e-04 +0.0000000000000000e+00 +9.9999953926961183e-01
-9.3999999999999826e+00 +9.0967396933256328e+00 +0.0000000000000000e+00 -9.3999985251018447e+00 +9.7024834832577268e-04 +0.0000000000000000e+00 +9.9999952930896041e-01
-9.4999999999999822e+00 +9.0966421524425254e+00 +0.0000000000000000e+00 -9.4999984775302710e+00 +9.8056931209441122e-04 +0.0000000000000000e+00 +9.9999951924179642e-01
-9.5999999999999819e+00 +9.0965435794635567e+00 +0.0000000000000000e+00 -9.5999984289466553e+00 +9.9089026555147525e-04 +0.0000000000000000e+00 +9.9999950906812018e-01
-9.6999999999999815e+00 +9.0964439743897589e+00 +0.0000000000000000e+00 -9.6999983793403448e+00 +1.0012112086902234e-03 +0.0000000000000000e+00 +9.9999949878793204e-01
-9.7999999999999812e+00 +9.0963433372221640e+00 +0.0000000000000000e+00 -9.7999983287006902e+00 +1.0115321414689131e-03 +0.0000000000000000e+00 +9.9999948840123232e-01
-9.8999999999999808e+00 +9.0962416679618130e+00 +0.0000000000000000e+00 -9.8999982770170405e+00 +1.0218530638108026e-03 +0.0000000000000000e+00 +9.9999947790802146e-01
-9.9999999999999805e+00 +9.0961389666097539e+00 +0.0000000000000000e+00 -9.9999982242787446e+00 +1.0321739756041527e-03 +0.0000000000000000e+00 +9.9999946730829992e-01
-1.0099999999999980e+01 +9.0960352331670489e+00 +0.0000000000000000e+00 -1.0099998170475150e+01 +1.0424948767046682e-03 +0.0000000000000000e+00 +9.9999945660206813e-01
-1.0199999999999980e+01 +9.0959304676347745e+00 +0.0000000000000000e+00 -1.0199998115595607e+01 +1.0528157669623429e-03 +0.0000000000000000e+00 +9.9999944578932654e-01
-1.0299999999999979e+01 +9.0958246700140215e+00 +0.0000000000000000e+00 -1.0299998059629464e+01 +1.0631366462483056e-03 +0.0000000000000000e+00 +9.9999943487007570e-01
-1.0399999999999979e+01 +9.0957178403058929e+00 +0.0000000000000000e+00 -1.0399998002566072e+01 +1.0734575144572610e-03 +0.0000000000000000e+00 +9.9999942384431606e-01
-1.0499999999999979e+01 +9.0956099785115008e+00 +0.0000000000000000e+00 -1.0499997944394778e+01 +1.0837783715074907e-03 +0.0000000000000000e+00 +9.9999941271204795e-01
-1.0599999999999978e+01 +9.0955010846319642e+00 +0.0000000000000000e+00 -1.0599997885104932e+01 +1.0940992173408539e-03 +0.0000000000000000e+00 +9.9999940147327182e-01
-1.0699999999999978e+01 +9.0953911586684075e+00 +0.0000000000000000e+00 -1.0699997824685882e+01 +1.1044200519227888e-03 +0.0000000000000000e+00 +9.9999939012798811e-01
-1.0799999999999978e+01 +9.0952802006219553e+00 +0.0000000000000000e+00 -1.0799997763126980e+01 +1.1147408752423128e-03 +0.0000000000000000e+00 +9.9999937867619715e-01
-1.0899999999999977e+01 +9.0951682104937337e+00 +0.0000000000000000e+00 -1.0899997700417572e+01 +1.1250616873120234e-03 +0.0000000000000000e+00 +9.9999936711789927e-01
-1.0999999999999977e+01 +9.0950551882848671e+00 +0.0000000000000000e+00 -1.0999997636547009e+01 +1.1353824881680994e-03 +0.0000000000000000e+00 +9.9999935545309471e-01
-1.1099999999999977e+01 +9.0949411339964730e+00 +0.0000000000000000e+00 -1.1099997571504641e+01 +1.1457032778703013e-03 +0.0000000000000000e+00 +9.9999934368178378e-01
-1.1199999999999976e+01 +9.0948260476296632e+00 +0.0000000000000000e+00 -1.1199997505279816e+01 +1.1560240565019729e-03 +0.0000000000000000e+00 +9.9999933180396672e-01
-1.1299999999999976e+01 +9.0947099291855391e+00 +0.0000000000000000e+00 -1.1299997437861885e+01 +1.1663448241700416e-03 +0.0000000000000000e+00 +9.9999931981964385e-01
-1.1399999999999975e+01 +9.0945927786651914e+00 +0.0000000000000000e+00 -1.1399997369240195e+01 +1.1766655810050192e-03 +0.0000000000000000e+00 +9.9999930772881518e-01
-1.1499999999999975e+01 +9.0944745960696949e+00 +0.0000000000000000e+00 -1.1499997299404097e+01 +1.1869863271610031e-03 +0.0000000000000000e+00 +9.9999929553148104e-01
-1.1599999999999975e+01 +9.0943553814001099e+00 +0.0000000000000000e+00 -1.1599997228342941e+01 +1.1973070628156770e-03 +0.0000000000000000e+00 +9.9999928322764142e-01
-1.1699999999999974e+01 +9.0942351346574757e+00 +0.0000000000000000e+00 -1.1699997156046075e+01 +1.2076277881703124e-03 +0.0000000000000000e+00 +9.9999927081729645e-01
