# multipoles
# s[mm] polynom_b[n=0][T/m^n] polynom_b[n=1][T/m^n] polynom_b[n=2][T/m^n] polynom_b[n=3][T/m^n] polynom_b[n=4][T/m^n] polynom_b[n=5][T/m^n] polynom_b[n=6][T/m^n] 
+0.0000000000000000e+00 -9.6724148514602915e-01 +2.1395075194707314e+00 +1.8466671086103521e+01 +1.8947626865686667e+02 +2.2962318007042734e+02 -3.9911216467769758e+05 +3.4748064157772355e+07 
+1.0000000000000001e-01 -9.6724106580605085e-01 +2.1395455284597813e+00 +1.8469709678370688e+01 +1.8847712359541049e+02 +1.5009256695493656e+02 -3.9452163120820833e+05 +3.5056874581953540e+07 
+2.0000000000000001e-01 -9.6724062987170811e-01 +2.1395863387681295e+00 +1.8471109444457404e+01 +1.8741966695201782e+02 +9.9973434060648017e+01 -3.8965430067127437e+05 +3.5229083366590232e+07 
+3.0000000000000004e-01 -9.6724017901926396e-01 +2.1396295339561338e+00 +1.8470991359121463e+01 +1.8631530369648002e+02 +7.7388900377462718e+01 -3.8456584458507015e+05 +3.5273584030421942e+07 
+4.0000000000000002e-01 -9.6723971492500382e-01 +2.1396746975932661e+00 +1.8469476399509773e+01 +1.8517543848198918e+02 +8.0462038060913216e+01 -3.7931193237132812e+05 +3.5199270325169556e+07 
+5.0000000000000000e-01 -9.6723923926519484e-01 +2.1397214132602671e+00 +1.8466685539449003e+01 +1.8401147554719537e+02 +1.0731598785739287e+02 -3.7394823070462164e+05 +3.5015035666659929e+07 
+5.9999999999999998e-01 -9.6723875371611912e-01 +2.1397692645469104e+00 +1.8462739755052599e+01 +1.8283481879048387e+02 +1.5607383783053015e+02 -3.6853040399879141e+05 +3.4729773754922427e+07 
+6.9999999999999996e-01 -9.6723825995409873e-01 +2.1398178350511881e+00 +1.8457760026643040e+01 +1.8165687174596968e+02 +2.2485859068542069e+02 -3.6311411415253399e+05 +3.4352378726010941e+07 
+7.9999999999999993e-01 -9.6723775965537373e-01 +2.1398667083786123e+00 +1.8451867324789795e+01 +1.8048903762097925e+02 +3.1179342172825915e+02 -3.5775502083223709e+05 +3.3891743942848101e+07 
+8.9999999999999991e-01 -9.6723725449626485e-01 +2.1399154681454102e+00 +1.8445182630544370e+01 +1.7934271915023538e+02 +4.1500128903318546e+02 -3.5250878050383530e+05 +3.3356763870469235e+07 
+9.9999999999999989e-01 -9.6723674615302180e-01 +2.1399636979703445e+00 +1.8437826915909181e+01 +1.7822931884051243e+02 +5.3260530835720533e+02 -3.4743104789172282e+05 +3.2756332284055732e+07 
+1.0999999999999999e+00 -9.6723623630191002e-01 +2.1400109814814439e+00 +1.8429921156023671e+01 +1.7716023875705642e+02 +6.6272850643293600e+02 -3.4257747471373883e+05 +3.2099343488754846e+07 
+1.2000000000000000e+00 -9.6723572661915158e-01 +2.1400569023122435e+00 +1.8421586321282284e+01 +1.7614688059684505e+02 +8.0349397777428328e+02 -3.3800371002132032e+05 +3.1394691552290909e+07 
+1.3000000000000000e+00 -9.6723521878095731e-01 +2.1401010440990347e+00 +1.8412943381386729e+01 +1.7520064576808252e+02 +9.5302479794661565e+02 -3.3376540068581322e+05 +3.0651270754254568e+07 
+1.4000000000000001e+00 -9.6723471446352893e-01 +2.1401429904878984e+00 +1.8404113306178566e+01 +1.7433293516764067e+02 +1.1094440057497918e+03 -3.2991819007538800e+05 +2.9877975673814062e+07 
+1.5000000000000002e+00 -9.6723421534298371e-01 +2.1401823251240537e+00 +1.8395217056361165e+01 +1.7355514946618734e+02 +1.2708747753111879e+03 -3.2651771966385347e+05 +2.9083700387015007e+07 
+1.6000000000000003e+00 -9.6723372309544475e-01 +2.1402186316614280e+00 +1.8386375594887614e+01 +1.7287868880446644e+02 +1.4354401947024535e+03 -3.2361962721061666e+05 +2.8277339538142797e+07 
+1.7000000000000004e+00 -9.6723323939697059e-01 +2.1402514937519430e+00 +1.8377709878020241e+01 +1.7231495311995801e+02 +1.6012634369650368e+03 -3.2127954874008009e+05 +2.7467787523753189e+07 
+1.8000000000000005e+00 -9.6723276592359364e-01 +2.1402804950532257e+00 +1.8369340860864899e+01 +1.7187534186251344e+02 +1.7664676444519143e+03 -3.1955311672042264e+05 +2.6663939076521095e+07 
+1.9000000000000006e+00 -9.6723230435128338e-01 +2.1403052192235146e+00 +1.8361389492699523e+01 +1.7157125415875367e+02 +1.9291760191453229e+03 -3.1849596110400872e+05 +2.5874688831293341e+07 
+2.0000000000000004e+00 -9.6723185635595765e-01 +2.1403252499242416e+00 +1.8353976718610987e+01 +1.7141408870451147e+02 +2.0875117830283998e+03 -3.1816370865989901e+05 +2.5108931540255606e+07 
+2.1000000000000005e+00 -9.6723142321020139e-01 +2.1403403035187627e+00 +1.8347205658244274e+01 +1.7141106643644133e+02 +2.2398396456328860e+03 -3.1859100912221754e+05 +2.4374216797748819e+07 
+2.2000000000000006e+00 -9.6723100455487421e-01 +2.1403506266099939e+00 +1.8341102226312202e+01 +1.7155258212810992e+02 +2.3856473361903604e+03 -3.1972652564639552e+05 +2.3671923135765865e+07 
+2.3000000000000007e+00 -9.6723059961839408e-01 +2.1403565985055875e+00 +1.8335671575979600e+01 +1.7182478459724356e+02 +2.5247424582908820e+03 -3.2149685342428810e+05 +2.3001687279724453e+07 
+2.4000000000000008e+00 -9.6723020762920020e-01 +2.1403585985056046e+00 +1.8330918863101822e+01 +1.7221382282173079e+02 +2.6569325790873486e+03 -3.2382858810442424e+05 +2.2363146058960393e+07 
+2.5000000000000009e+00 -9.6722982781573963e-01 +2.1403570058985451e+00 +1.8326849245460899e+01 +1.7270584611020874e+02 +2.7820252389346538e+03 -3.2664832691393781e+05 +2.1755936369751904e+07 
+2.6000000000000010e+00 -9.6722945940644944e-01 +2.1403521999649797e+00 +1.8323467879517768e+01 +1.7328700399911918e+02 +2.8998280238363704e+03 -3.2988266802358156e+05 +2.1179694796472277e+07 
+2.7000000000000011e+00 -9.6722910162983577e-01 +2.1403445599647477e+00 +1.8320779931301232e+01 +1.7394344665700703e+02 +3.0101483591923443e+03 -3.3345821295542235e+05 +2.0634058581017274e+07 
+2.8000000000000012e+00 -9.6722875371439565e-01 +2.1403344651512457e+00 +1.8318790565460922e+01 +1.7466132447622823e+02 +3.1127937241885274e+03 -3.3730156417103641e+05 +2.0118664584741313e+07 
+2.9000000000000012e+00 -9.6722841488867584e-01 +2.1403222947546059e+00 +1.8317504953287916e+01 +1.7542678859158926e+02 +3.2075715027078254e+03 -3.4133932815608283e+05 +1.9633149978977762e+07 
+3.0000000000000013e+00 -9.6722808438120778e-01 +2.1403084279933000e+00 +1.8316928264176706e+01 +1.7622599055362585e+02 +3.2942891520054391e+03 -3.4549811348542920e+05 +1.9177151419882663e+07 
+3.1000000000000014e+00 -9.6722776142066746e-01 +2.1402932440643356e+00 +1.8317065686113857e+01 +1.7704508264531776e+02 +3.3727538112910470e+03 -3.4970453273106320e+05 +1.8750306909972109e+07 
+3.2000000000000015e+00 -9.6722744523563897e-01 +2.1402771221447723e+00 +1.8317922395086434e+01 +1.7787021783612747e+02 +3.4427728980580832e+03 -3.5388520214328240e+05 +1.8352252914361041e+07 
+3.3000000000000016e+00 -9.6722713505484914e-01 +2.1402604413907289e+00 +1.8319503585225164e+01 +1.7868754986149361e+02 +3.5041535293471329e+03 -3.5796674221340870e+05 +1.7982627124658436e+07 
+3.4000000000000017e+00 -9.6722683010704513e-01 +2.1402435809354836e+00 +1.8321814453203206e+01 +1.7948323326503345e+02 +3.5567028282125179e+03 -3.6187577784570155e+05 +1.7641066965564169e+07 
+3.5000000000000018e+00 -9.6722652962098365e-01 +2.1402269198876627e+00 +1.8324860196309526e+01 +1.8024342349560601e+02 +3.6002279655942193e+03 -3.6553893900551781e+05 +1.7327209377813473e+07 
+3.6000000000000019e+00 -9.6722623282557951e-01 +2.1402108373303337e+00 +1.8328646031903272e+01 +1.8095427693759535e+02 +3.6345357887707301e+03 -3.6888286086563248e+05 +1.7040692583233491e+07 
+3.7000000000000020e+00 -9.6722593894970021e-01 +2.1401957123191049e+00 +1.8333177170929808e+01 +1.8160195099114233e+02 +3.6594333359723496e+03 -3.7183418430417351e+05 +1.6781153599910054e+07 
+3.8000000000000020e+00 -9.6722564722233173e-01 +2.1401819238813391e+00 +1.8338458838790338e+01 +1.8217260412294564e+02 +3.6747274411702197e+03 -3.7431955623876816e+05 +1.6548230110826168e+07 
+3.9000000000000021e+00 -9.6722535687251943e-01 +2.1401698510180092e+00 +1.8344496267952948e+01 +1.8265239580807835e+02 +3.6802248774446134e+03 -3.7626562923103874e+05 +1.6341559772082070e+07 
+4.0000000000000018e+00 -9.6722506712939893e-01 +2.1401598726897655e+00 +1.8351294701748504e+01 +1.8302748697035474e+02 +3.6757322905137780e+03 -3.7759906391708867e+05 +1.6160780522403253e+07 
+4.1000000000000014e+00 -9.6722477697020670e-01 +2.1401522990827977e+00 +1.8358837133047185e+01 +1.8328683402226315e+02 +3.6613042974297323e+03 -3.7826193069118203e+05 +1.6005077472622728e+07 
+4.2000000000000011e+00 -9.6722448435704045e-01 +2.1401471575833018e+00 +1.8367019938870026e+01 +1.8343137003603661e+02 +3.6378653050066664e+03 -3.7826512875002524e+05 +1.5872528790565256e+07 
+4.3000000000000007e+00 -9.6722418699584556e-01 +2.1401444023491214e+00 +1.8375718395921147e+01 +1.8346525006389129e+02 +3.6065255573251011e+03 -3.7763872129547625e+05 +1.5761126978806164e+07 
+4.4000000000000004e+00 -9.6722388259254499e-01 +2.1401439875558625e+00 +1.8384807775603264e+01 +1.8339262934415402e+02 +3.5683954173458819e+03 -3.7641277563009947e+05 +1.5668863940324591e+07 
+4.5000000000000000e+00 -9.6722356885305549e-01 +2.1401458674085960e+00 +1.8394163346929840e+01 +1.8321766292830461e+02 +3.5245853141924499e+03 -3.7461736097596603e+05 +1.5593731217148125e+07 
+4.5999999999999996e+00 -9.6722324348328270e-01 +2.1401499961391171e+00 +1.8403660375489476e+01 +1.8294450580536821e+02 +3.4762057610318739e+03 -3.7228254940825753e+05 +1.5533719916335296e+07 
+4.6999999999999993e+00 -9.6722290418911028e-01 +2.1401563280089988e+00 +1.8413174121372148e+01 +1.8257731283801778e+02 +3.4243674043445094e+03 -3.6943841562848282e+05 +1.5486820446551716e+07 
+4.7999999999999989e+00 -9.6722254867638746e-01 +2.1401648173156880e+00 +1.8422579838227861e+01 +1.8212023863369470e+02 +3.3701810323459772e+03 -3.6611503643123299e+05 +1.5451022511762960e+07 
+4.8999999999999986e+00 -9.6722217465099269e-01 +2.1401754183871087e+00 +1.8431752780476806e+01 +1.8157743773202873e+02 +3.3147574451853898e+03 -3.6234249195993005e+05 +1.5424315706588082e+07 
+4.9999999999999982e+00 -9.6722177981874846e-01 +2.1401880855911193e+00 +1.8440568193159933e+01 +1.8095306434763674e+02 +3.2592076420095809e+03 -3.5815086433438200e+05 +1.5404688649212889e+07 
+5.0999999999999979e+00 -9.6722136188546848e-01 +2.1402027733292730e+00 +1.8448901317232682e+01 +1.8025127262369537e+02 +3.2046427247503980e+03 -3.5357023941687704e+05 +1.5390129427561020e+07 
+5.1999999999999975e+00 -9.6722091855692827e-01 +2.1402194360503528e+00 +1.8456627385646556e+01 +1.7947621623443166e+02 +3.1521739736870381e+03 -3.4863070456103241e+05 +1.5378625240285188e+07 
+5.2999999999999972e+00 -9.6722044753890213e-01 +2.1402380282385862e+00 +1.8463621628591977e+01 +1.7863204879067791e+02 +3.1029127428989614e+03 -3.4336235122601414e+05 +1.5368162909697013e+07 
+5.3999999999999968e+00 -9.6721994653713139e-01 +2.1402585044296467e+00 +1.8469759268709293e+01 +1.7772292339707917e+02 +3.0579705540592340e+03 -3.3779527254735108e+05 +1.5356728433246180e+07 
+5.4999999999999964e+00 -9.6721941325730743e-01 +2.1402808191984501e+00 +1.8474915518490050e+01 +1.7675299305320917e+02 +3.0184591528873575e+03 -3.3195956588038325e+05 +1.5342306693641525e+07 
+5.5999999999999961e+00 -9.6721884540514458e-01 +2.1403049271742800e+00 +1.8478965590951120e+01 +1.7572641022549485e+02 +2.9854902896571521e+03 -3.2588533041272516e+05 +1.5322882556414062e+07 
+5.6999999999999957e+00 -9.6721824068626716e-01 +2.1403307830345559e+00 +1.8481784682893309e+01 +1.7464732709807112e+02 +2.9601760603448479e+03 -3.1960266890618438e+05 +1.5296439182336355e+07 
+5.7999999999999954e+00 -9.6721759680628949e-01 +2.1403583415093963e+00 +1.8483247987026015e+01 +1.7351989544571975e+02 +2.9436286558917445e+03 -3.1314168705590256e+05 +1.5260959282022433e+07 
+5.8999999999999950e+00 -9.6721691147082511e-01 +2.1403875573842974e+00 +1.8483230691540236e+01 +1.7234826660704047e+02 +2.9369603835276180e+03 -3.0653249354337185e+05 +1.5214424979251815e+07 
+5.9999999999999947e+00 -9.6721618238538642e-01 +2.1404183854909511e+00 +1.8481607967333556e+01 +1.7113659187244201e+02 +2.9412839229832875e+03 -2.9980520205250575e+05 +1.5154816607605061e+07 
+6.0999999999999943e+00 -9.6721540823461150e-01 +2.1404507113549704e+00 +1.8478301382133090e+01 +1.6989072773061653e+02 +2.9573495243977309e+03 -2.9299694545858540e+05 +1.5080794714713331e+07 
+6.1999999999999940e+00 -9.6721459167175161e-01 +2.1404841999317190e+00 +1.8473430094469613e+01 +1.6862078445017497e+02 +2.9842058511952760e+03 -2.8615827644258417e+05 +1.4994863496117428e+07 
+6.2999999999999936e+00 -9.6721373635452135e-01 +2.1405184742817296e+00 +1.8467165309633458e+01 +1.6733731302951057e+02 +3.0204266629639324e+03 -2.7933947068730491e+05 +1.4900693014582690e+07 
+6.3999999999999932e+00 -9.6721284594054080e-01 +2.1405531574391614e+00 +1.8459678225578610e+01 +1.6605086388133529e+02 +3.0645857756866353e+03 -2.7259079615345591e+05 +1.4801953400050385e+07 
+6.4999999999999929e+00 -9.6721192408736689e-01 +2.1405878724048470e+00 +1.8451140036770859e+01 +1.6477198707365955e+02 +3.1152569711159763e+03 -2.6596251432769065e+05 +1.4702315330428241e+07 
+6.5999999999999925e+00 -9.6721097445244453e-01 +2.1406222421362107e+00 +1.8441721928253710e+01 +1.6351123257255671e+02 +3.1710141027018244e+03 -2.5950488144810416e+05 +1.4605449550804690e+07 
+6.6999999999999922e+00 -9.6721000069313290e-01 +2.1406558895575674e+00 +1.8431595079691846e+01 +1.6227914988619489e+02 +3.2304310141573060e+03 -2.5326814622274853e+05 +1.4515027275040403e+07 
+6.7999999999999918e+00 -9.6720900646676700e-01 +2.1406884375511703e+00 +1.8420930672941225e+01 +1.6108628823708364e+02 +3.2920813874116320e+03 -2.4730255053563809e+05 +1.4434720940788515e+07 
+6.8999999999999915e+00 -9.6720799543047942e-01 +2.1407195089537230e+00 +1.8409899869643059e+01 +1.5994319662859473e+02 +3.3545391718553792e+03 -2.4165832968680584e+05 +1.4368202158050226e+07 
+6.9999999999999911e+00 -9.6720697124140731e-01 +2.1407487265605818e+00 +1.8398673837750394e+01 +1.5886042364012832e+02 +3.4163780706053967e+03 -2.3638571091645447e+05 +1.4319144183977889e+07 
+7.0999999999999908e+00 -9.6720593755652251e-01 +2.1407757131205014e+00 +1.8387423730646571e+01 +1.5784851751948000e+02 +3.4761719306200080e+03 -2.3153491372467612e+05 +1.4291220092097955e+07 
+7.1999999999999904e+00 -9.6720489803273368e-01 +2.1408000913338472e+00 +1.8376320699789130e+01 +1.5691802617599814e+02 +3.5324945011791820e+03 -2.2715614961487066e+05 +1.4288103927337332e+07 
+7.2999999999999901e+00 -9.6720385632683192e-01 +2.1408214838510076e+00 +1.8365535888198842e+01 +1.5607949715102092e+02 +3.5839195527636307e+03 -2.2329962166218771e+05 +1.4313470158020543e+07 
+7.3999999999999897e+00 -9.6720281609551217e-01 +2.1408395132744502e+00 +1.8355240433050625e+01 +1.5534347751215742e+02 +3.6290208246191546e+03 -2.2001552371894778e+05 +1.4370993938732306e+07 
+7.4999999999999893e+00 -9.6720178099533038e-01 +2.1408538021448105e+00 +1.8345605461246070e+01 +1.5472051417837889e+02 +3.6663721011241191e+03 -2.1735404203028750e+05 +1.4464350770672087e+07 
+7.5999999999999890e+00 -9.6720075468277933e-01 +2.1408639729591816e+00 +1.8336802098680263e+01 +1.5422115333016836e+02 +3.6945470296535996e+03 -2.1536535159185180e+05 +1.4597217393673362e+07 
+7.6999999999999886e+00 -9.6719974081415716e-01 +2.1408696481512020e+00 +1.8329001453780204e+01 +1.5385594092377568e+02 +3.7121194373129620e+03 -2.1409961891192899e+05 +1.4773270265987536e+07 
+7.7999999999999883e+00 -9.6719874304574027e-01 +2.1408704500964184e+00 +1.8322374639879342e+01 +1.5363542247193672e+02 +3.7176628898248314e+03 -2.1360700050605350e+05 +1.4996187717849320e+07 
+7.8999999999999879e+00 -9.6719776503360688e-01 +2.1408660011109348e+00 +1.8317092752693192e+01 +1.5357014302153348e+02 +3.7097511262836374e+03 -2.1393764254556986e+05 +1.5269647862778950e+07 
+7.9999999999999876e+00 -9.6719681043380201e-01 +2.1408559234732309e+00 +1.8313326895552446e+01 +1.5367064624192173e+02 +3.6869574994118134e+03 -2.1514167768451714e+05 +1.5597331254955884e+07 
+8.0999999999999872e+00 -9.6719588187220651e-01 +2.1408399696130269e+00 +1.8311199513289740e+01 +1.5394295693471855e+02 +3.6482823291870063e+03 -2.1724574962177165e+05 +1.5981594701101769e+07 
+8.1999999999999869e+00 -9.6719497781292640e-01 +2.1408183546723314e+00 +1.8310620454187045e+01 +1.5437737879259487e+02 +3.5949685949970340e+03 -2.2019179082696821e+05 +1.6416708020391650e+07 
+8.2999999999999865e+00 -9.6719409567051229e-01 +2.1407913989345260e+00 +1.8311442402351108e+01 +1.5496071982490150e+02 +3.5289377537680871e+03 -2.2390206173419108e+05 +1.6894285808177248e+07 
+8.3999999999999861e+00 -9.6719323285960690e-01 +2.1407594227341380e+00 +1.8313518056471626e+01 +1.5567978694717459e+02 +3.4521110454579089e+03 -2.2829881531604321e+05 +1.7405943269731354e+07 
+8.4999999999999858e+00 -9.6719238679502018e-01 +2.1407227464573224e+00 +1.8316700139576628e+01 +1.5652138612397709e+02 +3.3664093050111624e+03 -2.3330429924752694e+05 +1.7943297202874560e+07 
+8.5999999999999854e+00 -9.6719155489164155e-01 +2.1406816905392221e+00 +1.8320841388412116e+01 +1.5747232243763227e+02 +3.2737531580612699e+03 -2.3884075623686353e+05 +1.8497965084248587e+07 
+8.6999999999999851e+00 -9.6719073456448945e-01 +2.1406365754675631e+00 +1.8325794559600382e+01 +1.5851940005431632e+02 +3.1760629108229123e+03 -2.4483042400006164e+05 +1.9061565563803356e+07 
+8.7999999999999847e+00 -9.6718992322877484e-01 +2.1405877217833642e+00 +1.8331412437725469e+01 +1.5964942218657498e+02 +3.0752583968025951e+03 -2.5119553494681657e+05 +1.9625719188202403e+07 
+8.8999999999999844e+00 -9.6718911829979592e-01 +2.1405354500827141e+00 +1.8337547822503328e+01 +1.6084919109831046e+02 +2.9732592211342580e+03 -2.5785831634624634e+05 +2.0182047231380768e+07 
+8.9999999999999840e+00 -9.6718831719300402e-01 +2.1404800810201126e+00 +1.8344053536679851e+01 +1.6210550801388186e+02 +2.8719846176689184e+03 -2.6474098975917773e+05 +2.0722172346343271e+07 
+9.0999999999999837e+00 -9.6718751732401609e-01 +2.1404219353036464e+00 +1.8350782427553842e+01 +1.6340517329459718e+02 +2.7733534206417662e+03 -2.7176577215460449e+05 +2.1237718694683272e+07 
+9.1999999999999833e+00 -9.6718671610860052e-01 +2.1403613337055827e+00 +1.8357587365891568e+01 +1.6473498614595619e+02 +2.6792840856827688e+03 -2.7885487418743677e+05 +2.1720311837635659e+07 
+9.2999999999999829e+00 -9.6718591096266637e-01 +2.1402985970600574e+00 +1.8364321244270617e+01 +1.6608174471619105e+02 +2.5916947234243275e+03 -2.8593050083708658e+05 +2.2161578565209530e+07 
+9.3999999999999826e+00 -9.6718509930230256e-01 +2.1402340462599363e+00 +1.8370836981619661e+01 +1.6743224621682776e+02 +2.5125030216510409e+03 -2.9291485215719312e+05 +2.2553147237001549e+07 
+9.4999999999999822e+00 -9.6718427854375533e-01 +2.1401680022704457e+00 +1.8376987521341341e+01 +1.6877328653526416e+02 +2.4436262765178776e+03 -2.9973012099154002e+05 +2.2886647639080662e+07 
+9.5999999999999819e+00 -9.6718344610346751e-01 +2.1401007861168750e+00 +1.8382625835715803e+01 +1.7009166063994704e+02 +2.3869813134448650e+03 -3.0629849544839695e+05 +2.3153711342753783e+07 
+9.6999999999999815e+00 -9.6718259939803042e-01 +2.1400327188953181e+00 +1.8387604919971821e+01 +1.7137416228000521e+02 +2.3444846050956203e+03 -3.1254215713817306e+05 +2.3345971120979864e+07 
+9.7999999999999812e+00 -9.6718173584420986e-01 +2.1399641217688901e+00 +1.8391777795970057e+01 +1.7260758411753176e+02 +2.3180521987836596e+03 -3.1838328197362006e+05 +2.3455061296155937e+07 
+9.8999999999999808e+00 -9.6718085285900812e-01 +2.1398953159773804e+00 +1.8394997519527791e+01 +1.7377871747866124e+02 +2.3095995842381562e+03 -3.2374403876698721e+05 +2.3472618343096826e+07 
+9.9999999999999805e+00 -9.6717994785954453e-01 +2.1398266228142604e+00 +1.8397117163840718e+01 +1.7487435335759747e+02 +2.3210420733636911e+03 -3.2854659332014510e+05 +2.3390279097532913e+07 
+1.0099999999999980e+01 -9.6717901900526171e-01 +2.1397583378252660e+00 +1.8398032445455375e+01 +1.7588382825199699e+02 +2.3537033842440737e+03 -3.3272931193495297e+05 +2.3202221745116435e+07 
