# field on trajectory
# s[mm] rx[mm] ry[mm] rz[mm] bx[T] by[T] bz[T]
0.0000000000000000e+00 +9.1463000000000001e+00 +0.0000000000000000e+00 +0.0000000000000000e+00 +1.1189169225851467e-02 -1.0317237308269311e+00 -5.8650671750254908e-02
-1.0000000000000001e-01 +9.1462994844955681e+00 +0.0000000000000000e+00 -9.9999999998228381e-02 +1.1189238152290053e-02 -1.0317202933458938e+00 -5.8651906992947499e-02
-2.0000000000000001e-01 +9.1462979379845653e+00 +0.0000000000000000e+00 -1.9999999998582701e-01 +1.1189303914116381e-02 -1.0317168501356913e+00 -5.8653170945054081e-02
-3.0000000000000004e-01 +9.1462953604704289e+00 +0.0000000000000000e+00 -2.9999999995216620e-01 +1.1189366582246967e-02 -1.0317134163397605e+00 -5.8654463336321759e-02
-4.0000000000000002e-01 +9.1462917519565927e+00 +0.0000000000000000e+00 -3.9999999988661644e-01 +1.1189426227601166e-02 -1.0317100071008360e+00 -5.8655783896511896e-02
-5.0000000000000000e-01 +9.1462871124464602e+00 +0.0000000000000000e+00 -4.9999999977854825e-01 +1.1189482921097057e-02 -1.0317066375608495e+00 -5.8657132355401813e-02
-5.9999999999999998e-01 +9.1462814419433993e+00 +0.0000000000000000e+00 -5.9999999961733230e-01 +1.1189536733647370e-02 -1.0317033228608314e+00 -5.8658508442786667e-02
-6.9999999999999996e-01 +9.1462747404507194e+00 +0.0000000000000000e+00 -6.9999999939233937e-01 +1.1189587736155355e-02 -1.0317000781408145e+00 -5.8659911888481187e-02
-7.9999999999999993e-01 +9.1462670079716641e+00 +0.0000000000000000e+00 -7.9999999909294028e-01 +1.1189635999510715e-02 -1.0316969185397349e+00 -5.8661342422321509e-02
-8.9999999999999991e-01 +9.1462582445093918e+00 +0.0000000000000000e+00 -8.9999999870850600e-01 +1.1189681594585487e-02 -1.0316938591953317e+00 -5.8662799774166989e-02
-9.9999999999999989e-01 +9.1462484500669579e+00 +0.0000000000000000e+00 -9.9999999822840757e-01 +1.1189724592229951e-02 -1.0316909152440523e+00 -5.8664283673902029e-02
-1.0999999999999999e+00 +9.1462376246473038e+00 +0.0000000000000000e+00 -1.0999999976420161e+00 +1.1189765063268523e-02 -1.0316881018209516e+00 -5.8665793851437768e-02
-1.2000000000000000e+00 +9.1462257682532400e+00 +0.0000000000000000e+00 -1.1999999969387027e+00 +1.1189803078495672e-02 -1.0316854340595951e+00 -5.8667330036714024e-02
-1.3000000000000000e+00 +9.1462128808874343e+00 +0.0000000000000000e+00 -1.2999999961078388e+00 +1.1189838708671811e-02 -1.0316829270919590e+00 -5.8668891959700972e-02
-1.4000000000000001e+00 +9.1461989625523916e+00 +0.0000000000000000e+00 -1.3999999951387956e+00 +1.1189872024519187e-02 -1.0316805960483337e+00 -5.8670479350401060e-02
-1.5000000000000002e+00 +9.1461840132504406e+00 +0.0000000000000000e+00 -1.4999999940209445e+00 +1.1189903096717821e-02 -1.0316784560572254e+00 -5.8672091938850715e-02
-1.6000000000000003e+00 +9.1461680329837218e+00 +0.0000000000000000e+00 -1.5999999927436570e+00 +1.1189932072276015e-02 -1.0316765183221515e+00 -5.8673729379027609e-02
-1.7000000000000004e+00 +9.1461510217541733e+00 +0.0000000000000000e+00 -1.6999999912963044e+00 +1.1189959403667762e-02 -1.0316747783529339e+00 -5.8675391020565008e-02
-1.8000000000000005e+00 +9.1461329795635358e+00 +0.0000000000000000e+00 -1.7999999896682584e+00 +1.1189985619738503e-02 -1.0316732277362903e+00 -5.8677076137030146e-02
-1.9000000000000006e+00 +9.1461139064133619e+00 +0.0000000000000000e+00 -1.8999999878488902e+00 +1.1190011249338201e-02 -1.0316718580593194e+00 -5.8678784002018244e-02
-2.0000000000000004e+00 +9.1460938023050229e+00 +0.0000000000000000e+00 -1.9999999858275714e+00 +1.1190036821325109e-02 -1.0316706609097230e+00 -5.8680513889152526e-02
-2.1000000000000005e+00 +9.1460726672397179e+00 +0.0000000000000000e+00 -2.0999999835936736e+00 +1.1190062864569592e-02 -1.0316696278760302e+00 -5.8682265072084461e-02
-2.2000000000000006e+00 +9.1460505012184825e+00 +0.0000000000000000e+00 -2.1999999811365680e+00 +1.1190089907957914e-02 -1.0316687505478159e+00 -5.8684036824493857e-02
-2.3000000000000007e+00 +9.1460273042421960e+00 +0.0000000000000000e+00 -2.2999999784456264e+00 +1.1190118480396019e-02 -1.0316680205159237e+00 -5.8685828420088973e-02
-2.4000000000000008e+00 +9.1460030763115903e+00 +0.0000000000000000e+00 -2.3999999755102204e+00 +1.1190149110813348e-02 -1.0316674293726877e+00 -5.8687639132606738e-02
-2.5000000000000009e+00 +9.1459778174272603e+00 +0.0000000000000000e+00 -2.4999999723197215e+00 +1.1190182328166627e-02 -1.0316669687121551e+00 -5.8689468235812829e-02
-2.6000000000000010e+00 +9.1459515275896699e+00 +0.0000000000000000e+00 -2.5999999688635009e+00 +1.1190218661443657e-02 -1.0316666301303068e+00 -5.8691315003501804e-02
-2.7000000000000011e+00 +9.1459242067991617e+00 +0.0000000000000000e+00 -2.6999999651309299e+00 +1.1190258639667118e-02 -1.0316664052252782e+00 -5.8693178709497328e-02
-2.8000000000000012e+00 +9.1458958550559633e+00 +0.0000000000000000e+00 -2.7999999611113804e+00 +1.1190302791898359e-02 -1.0316662855975838e+00 -5.8695058627652195e-02
-2.9000000000000012e+00 +9.1458664723601970e+00 +0.0000000000000000e+00 -2.8999999567942236e+00 +1.1190351647241204e-02 -1.0316662628503366e+00 -5.8696954031848547e-02
-3.0000000000000013e+00 +9.1458360587118914e+00 +0.0000000000000000e+00 -2.9999999521688308e+00 +1.1190405734845739e-02 -1.0316663285894714e+00 -5.8698864195998075e-02
-3.1000000000000014e+00 +9.1458046141109826e+00 +0.0000000000000000e+00 -3.0999999472245729e+00 +1.1190465583912120e-02 -1.0316664744239652e+00 -5.8700788394042032e-02
-3.2000000000000015e+00 +9.1457721385573301e+00 +0.0000000000000000e+00 -3.1999999419508218e+00 +1.1190531723694355e-02 -1.0316666919660595e+00 -5.8702725899951458e-02
-3.3000000000000016e+00 +9.1457386320507208e+00 +0.0000000000000000e+00 -3.2999999363369490e+00 +1.1190604683504106e-02 -1.0316669728314847e+00 -5.8704675987727349e-02
-3.4000000000000017e+00 +9.1457040945908776e+00 +0.0000000000000000e+00 -3.3999999303723252e+00 +1.1190684992714511e-02 -1.0316673086396777e+00 -5.8706637931400747e-02
-3.5000000000000018e+00 +9.1456685261774702e+00 +0.0000000000000000e+00 -3.4999999240463220e+00 +1.1190773180763931e-02 -1.0316676910140063e+00 -5.8708611005032892e-02
-3.6000000000000019e+00 +9.1456319268101200e+00 +0.0000000000000000e+00 -3.5999999173483106e+00 +1.1190869580192371e-02 -1.0316681116381163e+00 -5.8710594506140593e-02
-3.7000000000000020e+00 +9.1455942964884116e+00 +0.0000000000000000e+00 -3.6999999102676622e+00 +1.1190973735702884e-02 -1.0316685624231143e+00 -5.8712587825957938e-02
-3.8000000000000020e+00 +9.1455556352118990e+00 +0.0000000000000000e+00 -3.7999999027937474e+00 +1.1191084994998124e-02 -1.0316690353368112e+00 -5.8714590379135172e-02
-3.9000000000000021e+00 +9.1455159429801149e+00 +0.0000000000000000e+00 -3.8999998949159380e+00 +1.1191202705735467e-02 -1.0316695223471886e+00 -5.8716601580307420e-02
-4.0000000000000018e+00 +9.1454752197925782e+00 +0.0000000000000000e+00 -3.9999998866236046e+00 +1.1191326215522938e-02 -1.0316700154223331e+00 -5.8718620844091865e-02
-4.1000000000000014e+00 +9.1454334656488001e+00 +0.0000000000000000e+00 -4.0999998779061189e+00 +1.1191454871915137e-02 -1.0316705065303640e+00 -5.8720647585085085e-02
-4.2000000000000011e+00 +9.1453906805482941e+00 +0.0000000000000000e+00 -4.1999998687528519e+00 +1.1191588022409176e-02 -1.0316709876393668e+00 -5.8722681217860298e-02
-4.3000000000000007e+00 +9.1453468644905858e+00 +0.0000000000000000e+00 -4.2999998591531741e+00 +1.1191725014440646e-02 -1.0316714507173259e+00 -5.8724721156964664e-02
-4.4000000000000004e+00 +9.1453020174752169e+00 +0.0000000000000000e+00 -4.3999998490964565e+00 +1.1191865195379496e-02 -1.0316718877320519e+00 -5.8726766816916416e-02
-4.5000000000000000e+00 +9.1452561395017575e+00 +0.0000000000000000e+00 -4.4999998385720712e+00 +1.1192007912526039e-02 -1.0316722906511178e+00 -5.8728817612202382e-02
-4.5999999999999996e+00 +9.1452092305698098e+00 +0.0000000000000000e+00 -4.5999998275693885e+00 +1.1192152513106820e-02 -1.0316726514417864e+00 -5.8730872957274971e-02
-4.6999999999999993e+00 +9.1451612906790185e+00 +0.0000000000000000e+00 -4.6999998160777796e+00 +1.1192298344270591e-02 -1.0316729620709446e+00 -5.8732932266549694e-02
-4.7999999999999989e+00 +9.1451123198290798e+00 +0.0000000000000000e+00 -4.7999998040866156e+00 +1.1192444753084218e-02 -1.0316732145050329e+00 -5.8734994954402139e-02
-4.8999999999999986e+00 +9.1450623180197468e+00 +0.0000000000000000e+00 -4.8999997915852678e+00 +1.1192591086528661e-02 -1.0316734007099777e+00 -5.8737060435165578e-02
-4.9999999999999982e+00 +9.1450112852508401e+00 +0.0000000000000000e+00 -4.9999997785631063e+00 +1.1192736691494851e-02 -1.0316735126511223e+00 -5.8739128123127926e-02
-5.0999999999999979e+00 +9.1449592215222530e+00 +0.0000000000000000e+00 -5.0999997650095032e+00 +1.1192880914779657e-02 -1.0316735422931582e+00 -5.8741197432529209e-02
-5.1999999999999975e+00 +9.1449061268339626e+00 +0.0000000000000000e+00 -5.1999997509138298e+00 +1.1193023103081807e-02 -1.0316734816000572e+00 -5.8743267777558693e-02
-5.2999999999999972e+00 +9.1448520011860346e+00 +0.0000000000000000e+00 -5.2999997362654572e+00 +1.1193162602997837e-02 -1.0316733225350023e+00 -5.8745338572352257e-02
-5.3999999999999968e+00 +9.1447968445786358e+00 +0.0000000000000000e+00 -5.3999997210537565e+00 +1.1193298761017998e-02 -1.0316730570603174e+00 -5.8747409230989561e-02
-5.4999999999999964e+00 +9.1447406570120382e+00 +0.0000000000000000e+00 -5.4999997052680989e+00 +1.1193430923522204e-02 -1.0316726771374019e+00 -5.8749479167491334e-02
-5.5999999999999961e+00 +9.1446834384866271e+00 +0.0000000000000000e+00 -5.5999996888978565e+00 +1.1193558654713099e-02 -1.0316721774299036e+00 -5.8751547873170676e-02
-5.6999999999999957e+00 +9.1446251890029071e+00 +0.0000000000000000e+00 -5.6999996719324004e+00 +1.1193682390496656e-02 -1.0316715634136744e+00 -5.8753615148722356e-02
-5.7999999999999954e+00 +9.1445659085614981e+00 +0.0000000000000000e+00 -5.7999996543611028e+00 +1.1193802784781453e-02 -1.0316708432672843e+00 -5.8755680872206527e-02
-5.8999999999999950e+00 +9.1445055971631248e+00 +0.0000000000000000e+00 -5.8999996361733347e+00 +1.1193920491558292e-02 -1.0316700251687327e+00 -5.8757744921700807e-02
-5.9999999999999947e+00 +9.1444442548086116e+00 +0.0000000000000000e+00 -5.9999996173584682e+00 +1.1194036164904820e-02 -1.0316691172954093e+00 -5.8759807175301396e-02
-6.0999999999999943e+00 +9.1443818814988713e+00 +0.0000000000000000e+00 -6.0999995979058745e+00 +1.1194150458990190e-02 -1.0316681278240485e+00 -5.8761867511123854e-02
-6.1999999999999940e+00 +9.1443184772348971e+00 +0.0000000000000000e+00 -6.1999995778049266e+00 +1.1194264028079687e-02 -1.0316670649306878e+00 -5.8763925807303989e-02
-6.2999999999999936e+00 +9.1442540420177583e+00 +0.0000000000000000e+00 -6.2999995570449956e+00 +1.1194377526539383e-02 -1.0316659367906271e+00 -5.8765981941998793e-02
-6.3999999999999932e+00 +9.1441885758485881e+00 +0.0000000000000000e+00 -6.3999995356154535e+00 +1.1194491608840772e-02 -1.0316647515783841e+00 -5.8768035793387491e-02
-6.4999999999999929e+00 +9.1441220787285786e+00 +0.0000000000000000e+00 -6.4999995135056734e+00 +1.1194606929565410e-02 -1.0316635174676518e+00 -5.8770087239672163e-02
-6.5999999999999925e+00 +9.1440545506589679e+00 +0.0000000000000000e+00 -6.5999994907050272e+00 +1.1194724143409579e-02 -1.0316622426312556e+00 -5.8772136159078892e-02
-6.6999999999999922e+00 +9.1439859916410366e+00 +0.0000000000000000e+00 -6.6999994672028871e+00 +1.1194843905188901e-02 -1.0316609352411132e+00 -5.8774182429858574e-02
-6.7999999999999918e+00 +9.1439164016760976e+00 +0.0000000000000000e+00 -6.7999994429886250e+00 +1.1194966869843011e-02 -1.0316596034681891e+00 -5.8776225930287813e-02
-6.8999999999999915e+00 +9.1438457807654903e+00 +0.0000000000000000e+00 -6.8999994180516140e+00 +1.1195093692440181e-02 -1.0316582554824523e+00 -5.8778266538669847e-02
-6.9999999999999911e+00 +9.1437741289105663e+00 +0.0000000000000000e+00 -6.9999993923812260e+00 +1.1195225028181986e-02 -1.0316568994528352e+00 -5.8780304133335522e-02
-7.0999999999999908e+00 +9.1437014461126882e+00 +0.0000000000000000e+00 -7.0999993659668341e+00 +1.1195361532407936e-02 -1.0316555435471890e+00 -5.8782338592644034e-02
-7.1999999999999904e+00 +9.1436277323732185e+00 +0.0000000000000000e+00 -7.1999993387978103e+00 +1.1195503860600128e-02 -1.0316541959322414e+00 -5.8784369794984005e-02
-7.2999999999999901e+00 +9.1435529876935107e+00 +0.0000000000000000e+00 -7.2999993108635275e+00 +1.1195652668387892e-02 -1.0316528647735548e+00 -5.8786397618774210e-02
-7.3999999999999897e+00 +9.1434772120749024e+00 +0.0000000000000000e+00 -7.3999992821533587e+00 +1.1195808611552447e-02 -1.0316515582354815e+00 -5.8788421942464725e-02
-7.4999999999999893e+00 +9.1434004055187064e+00 +0.0000000000000000e+00 -7.4999992526566759e+00 +1.1195972346031542e-02 -1.0316502844811233e+00 -5.8790442644537561e-02
-7.5999999999999890e+00 +9.1433225680262034e+00 +0.0000000000000000e+00 -7.5999992223628521e+00 +1.1196144323380152e-02 -1.0316490495398341e+00 -5.8792459512086170e-02
-7.6999999999999886e+00 +9.1432436995986368e+00 +0.0000000000000000e+00 -7.6999991912612602e+00 +1.1196324177039757e-02 -1.0316478509101039e+00 -5.8794471966556162e-02
-7.7999999999999883e+00 +9.1431638002372129e+00 +0.0000000000000000e+00 -7.7999991593412723e+00 +1.1196511335831091e-02 -1.0316466839577976e+00 -5.8796479338037923e-02
-7.8999999999999879e+00 +9.1430828699431057e+00 +0.0000000000000000e+00 -7.8999991265922613e+00 +1.1196705228482668e-02 -1.0316455440488226e+00 -5.8798480956697666e-02
-7.9999999999999876e+00 +9.1430009087174646e+00 +0.0000000000000000e+00 -7.9999990930036002e+00 +1.1196905283627051e-02 -1.0316444265491327e+00 -5.8800476152779516e-02
-8.0999999999999872e+00 +9.1429179165614141e+00 +0.0000000000000000e+00 -8.0999990585646611e+00 +1.1197110929797102e-02 -1.0316433268247298e+00 -5.8802464256607720e-02
-8.1999999999999869e+00 +9.1428338934760625e+00 +0.0000000000000000e+00 -8.1999990232648177e+00 +1.1197321595422279e-02 -1.0316422402416692e+00 -5.8804444598588884e-02
-8.2999999999999865e+00 +9.1427488394625058e+00 +0.0000000000000000e+00 -8.2999989870934421e+00 +1.1197536708824878e-02 -1.0316411621660666e+00 -5.8806416509214157e-02
-8.3999999999999861e+00 +9.1426627545218313e+00 +0.0000000000000000e+00 -8.3999989500399082e+00 +1.1197755698216313e-02 -1.0316400879640975e+00 -5.8808379319061341e-02
-8.4999999999999858e+00 +9.1425756386551207e+00 +0.0000000000000000e+00 -8.4999989120935862e+00 +1.1197977991693362e-02 -1.0316390130020037e+00 -5.8810332358797152e-02
-8.5999999999999854e+00 +9.1424874918634575e+00 +0.0000000000000000e+00 -8.5999988732438517e+00 +1.1198203017234450e-02 -1.0316379326460994e+00 -5.8812274959179366e-02
-8.6999999999999851e+00 +9.1423983141479326e+00 +0.0000000000000000e+00 -8.6999988334800769e+00 +1.1198430202695888e-02 -1.0316368422627722e+00 -5.8814206451059031e-02
-8.7999999999999847e+00 +9.1423081055096436e+00 +0.0000000000000000e+00 -8.7999987927916337e+00 +1.1198658975808150e-02 -1.0316357372184912e+00 -5.8816126165382759e-02
-8.8999999999999844e+00 +9.1422168659497061e+00 +0.0000000000000000e+00 -8.8999987511678960e+00 +1.1198888764172119e-02 -1.0316346128798071e+00 -5.8818033433194715e-02
-8.9999999999999840e+00 +9.1421245954692534e+00 +0.0000000000000000e+00 -8.9999987085982358e+00 +1.1199118995255360e-02 -1.0316334646133614e+00 -5.8819927585639004e-02
-9.0999999999999837e+00 +9.1420312940694437e+00 +0.0000000000000000e+00 -9.0999986650720270e+00 +1.1199349096388334e-02 -1.0316322877858888e+00 -5.8821807953961781e-02
-9.1999999999999833e+00 +9.1419369617514636e+00 +0.0000000000000000e+00 -9.1999986205786435e+00 +1.1199578494760717e-02 -1.0316310777642221e+00 -5.8823673869513503e-02
-9.2999999999999829e+00 +9.1418415985165318e+00 +0.0000000000000000e+00 -9.2999985751074572e+00 +1.1199806617417575e-02 -1.0316298299152968e+00 -5.8825524663751093e-02
-9.3999999999999826e+00 +9.1417452043659058e+00 +0.0000000000000000e+00 -9.3999985286478420e+00 +1.1200032891255672e-02 -1.0316285396061573e+00 -5.8827359668240181e-02
-9.4999999999999822e+00 +9.1416477793008859e+00 +0.0000000000000000e+00 -9.4999984811891718e+00 +1.1200256743019690e-02 -1.0316272022039603e+00 -5.8829178214657274e-02
-9.5999999999999819e+00 +9.1415493233228187e+00 +0.0000000000000000e+00 -9.5999984327208185e+00 +1.1200477752274130e-02 -1.0316258144512158e+00 -5.8830979795718441e-02
-9.6999999999999815e+00 +9.1414498364331020e+00 +0.0000000000000000e+00 -9.6999983832321579e+00 +1.1200696110417725e-02 -1.0316243785922263e+00 -5.8832764548012638e-02
-9.7999999999999812e+00 +9.1413493186331802e+00 +0.0000000000000000e+00 -9.7999983327125619e+00 +1.1200912161852070e-02 -1.0316228982481088e+00 -5.8834532769250492e-02
-9.8999999999999808e+00 +9.1412477699245436e+00 +0.0000000000000000e+00 -9.8999982811514045e+00 +1.1201126251008881e-02 -1.0316213770415947e+00 -5.8836284757332706e-02
-9.9999999999999805e+00 +9.1411451903087215e+00 +0.0000000000000000e+00 -9.9999982285380593e+00 +1.1201338722351240e-02 -1.0316198185970689e+00 -5.8838020810353955e-02
-1.0099999999999980e+01 +9.1410415797872844e+00 +0.0000000000000000e+00 -1.0099998174861902e+01 +1.1201549920374837e-02 -1.0316182265406084e+00 -5.8839741226606866e-02
-1.0199999999999980e+01 +9.1409369383618326e+00 +0.0000000000000000e+00 -1.0199998120112305e+01 +1.1201760189609238e-02 -1.0316166045000261e+00 -5.8841446304585918e-02
-1.0299999999999979e+01 +9.1408312660339970e+00 +0.0000000000000000e+00 -1.0299998064278642e+01 +1.1201969874619092e-02 -1.0316149561049071e+00 -5.8843136342991327e-02
-1.0399999999999979e+01 +9.1407245628054365e+00 +0.0000000000000000e+00 -1.0399998007350288e+01 +1.1202179320005430e-02 -1.0316132849866504e+00 -5.8844811640733026e-02
-1.0499999999999979e+01 +9.1406168286778335e+00 +0.0000000000000000e+00 -1.0499997949316617e+01 +1.1202388870406891e-02 -1.0316115947785089e+00 -5.8846472496934497e-02
-1.0599999999999978e+01 +9.1405080636528862e+00 +0.0000000000000000e+00 -1.0599997890167003e+01 +1.1202598870500997e-02 -1.0316098891156282e+00 -5.8848119210936800e-02
-1.0699999999999978e+01 +9.1403982677323103e+00 +0.0000000000000000e+00 -1.0699997829890821e+01 +1.1202809665005408e-02 -1.0316081716350880e+00 -5.8849752082302399e-02
-1.0799999999999978e+01 +9.1402874409178345e+00 +0.0000000000000000e+00 -1.0799997768477445e+01 +1.1203021598679173e-02 -1.0316064459759395e+00 -5.8851371410819059e-02
-1.0899999999999977e+01 +9.1401755832111942e+00 +0.0000000000000000e+00 -1.0899997705916249e+01 +1.1203235016324023e-02 -1.0316047157792474e+00 -5.8852977496503867e-02
-1.0999999999999977e+01 +9.1400626946141301e+00 +0.0000000000000000e+00 -1.0999997642196609e+01 +1.1203450262785618e-02 -1.0316029846881283e+00 -5.8854570639607050e-02
-1.1099999999999977e+01 +9.1399487751283850e+00 +0.0000000000000000e+00 -1.1099997577307899e+01 +1.1203667682954834e-02 -1.0316012563477903e+00 -5.8856151140615903e-02
-1.1199999999999976e+01 +9.1398338247556961e+00 +0.0000000000000000e+00 -1.1199997511239493e+01 +1.1203887621769030e-02 -1.0315995344055735e+00 -5.8857719300258723e-02
-1.1299999999999976e+01 +9.1397178434977970e+00 +0.0000000000000000e+00 -1.1299997443980766e+01 +1.1204110424213334e-02 -1.0315978225109872e+00 -5.8859275419508701e-02
-1.1399999999999975e+01 +9.1396008313564092e+00 +0.0000000000000000e+00 -1.1399997375521094e+01 +1.1204336435321913e-02 -1.0315961243157517e+00 -5.8860819799587794e-02
-1.1499999999999975e+01 +9.1394827883332432e+00 +0.0000000000000000e+00 -1.1499997305849851e+01 +1.1204566000179278e-02 -1.0315944434738364e+00 -5.8862352741970665e-02
-1.1599999999999975e+01 +9.1393637144299902e+00 +0.0000000000000000e+00 -1.1599997234956410e+01 +1.1204799351800550e-02 -1.0315927826913911e+00 -5.8863874590714106e-02
-1.1699999999999974e+01 +9.1392436096483234e+00 +0.0000000000000000e+00 -1.1699997162830149e+01 +1.1205036274704386e-02 -1.0315911408756737e+00 -5.8865385859122793e-02
