# multipoles
# s[mm] polynom_b[n=0][T/m^n] polynom_b[n=1][T/m^n] polynom_b[n=2][T/m^n] polynom_b[n=3][T/m^n] polynom_b[n=4][T/m^n] polynom_b[n=5][T/m^n] polynom_b[n=6][T/m^n] 
+0.0000000000000000e+00 -1.0318494426455478e+00 +2.2907958422121593e+00 +2.2412109930445510e+01 -3.7177468208695323e+01 -8.0542385330210644e+04 +1.2395573984890957e+06 +4.9737288296008724e+08 
-1.0000000000000001e-01 -1.0318442640732282e+00 +2.2914316203012310e+00 +2.2218681080020726e+01 -4.9450844355294770e+01 -7.6908141326583354e+04 +1.2937984964160554e+06 +4.7981118594495803e+08 
-2.0000000000000001e-01 -1.0318390003266553e+00 +2.2920695812258920e+00 +2.2020727674772729e+01 -6.1815680952987968e+01 -7.3210035511688708e+04 +1.3486425311355330e+06 +4.6201609633741891e+08 
-3.0000000000000004e-01 -1.0318336653090272e+00 +2.2927067779094110e+00 +2.1818975593899037e+01 -7.4228717678522059e+01 -6.9455967225880973e+04 +1.4039218085702944e+06 +4.4401012122205406e+08 
-4.0000000000000002e-01 -1.0318282729235866e+00 +2.2933402632972726e+00 +2.1614150726807953e+01 -8.6646694836548704e+01 -6.5653836029267171e+04 +1.4594686377767934e+06 +4.2581576876752716e+08 
-5.0000000000000000e-01 -1.0318228370734994e+00 +2.2939670903520040e+00 +2.1406978959796980e+01 -9.9026353343088076e+01 -6.1811541463918671e+04 +1.5151153314417705e+06 +4.0745554713791740e+08 
-5.9999999999999998e-01 -1.0318173716618730e+00 +2.2945843120264193e+00 +2.1198186181294460e+01 -1.1132443405313511e+02 -5.7936983176419744e+04 +1.5706942025104621e+06 +3.8895196513965738e+08 
-6.9999999999999996e-01 -1.0318118905917273e+00 +2.2951889812590238e+00 +2.0988498281226335e+01 -1.2349767775245147e+02 -5.4038060925606165e+04 +1.6260375647092483e+06 +3.7032753231098068e+08 
-7.9999999999999993e-01 -1.0318064077659168e+00 +2.2957781509591513e+00 +2.0778641143081430e+01 -1.3550282485647989e+02 -5.0122674447153659e+04 +1.6809777313972218e+06 +3.5160475832185674e+08 
-8.9999999999999991e-01 -1.0318009370871890e+00 +2.2963488739856923e+00 +2.0569340654350771e+01 -1.4729661490465548e+02 -4.6198723674324930e+04 +1.7353470131738591e+06 +3.3280615408299375e+08 
-9.9999999999999989e-01 -1.0317954924581030e+00 +2.2968982031434280e+00 +2.0361322698942381e+01 -1.5883578657386843e+02 -4.2274108613914759e+04 +1.7889777185211414e+06 +3.1395423121389586e+08 
-1.0999999999999999e+00 -1.0317900877809543e+00 +2.2974231911625806e+00 +2.0155313149796143e+01 -1.7007707721301909e+02 -3.8356729220900161e+04 +1.8417021516916223e+06 +2.9507150148512274e+08 
-1.2000000000000000e+00 -1.0317847369578579e+00 +2.2979208906886597e+00 +1.9952037882900544e+01 -1.8097722266306175e+02 -3.4454485691056070e+04 +1.8933526122134579e+06 +2.7618047828482735e+08 
-1.3000000000000000e+00 -1.0317794538906204e+00 +2.2983883542646297e+00 +1.9752222762531272e+01 -1.9149295686435428e+02 -3.0575278190350502e+04 +1.9437613931873119e+06 +2.5730367535619542e+08 
-1.4000000000000001e+00 -1.0317742524808184e+00 +2.2988226343172666e+00 +1.9556593655217295e+01 -2.0158101157451966e+02 -2.6727007151320860e+04 +1.9927607802003487e+06 +2.3846360829373032e+08 
-1.5000000000000002e+00 -1.0317691466296348e+00 +2.2992207831486482e+00 +1.9365876410840933e+01 -2.1119811625874883e+02 -2.2917572925370143e+04 +2.0401830513248197e+06 +2.1968279292281619e+08 
-1.6000000000000003e+00 -1.0317641480020516e+00 +2.2995806966289969e+00 +1.9180681545408760e+01 -2.2031324992583049e+02 -1.9153728424474473e+04 +2.0859102060179738e+06 +2.0098070711350951e+08 
-1.7000000000000004e+00 -1.0317592592233831e+00 +2.2999036199874410e+00 +1.9001129065559695e+01 -2.2894318277587541e+02 -1.5437136585974340e+04 +2.1300154516233620e+06 +1.8236240587871534e+08 
-1.8000000000000005e+00 -1.0317544806349621e+00 +2.3001916299709695e+00 +1.8827209071701983e+01 -2.3711633568234035e+02 -1.1768064152079025e+04 +2.1726179108541263e+06 +1.6382877996862876e+08 
-1.9000000000000006e+00 -1.0317498125781319e+00 +2.3004468032168131e+00 +1.8658911674619628e+01 -2.4486112666228024e+02 -8.1467781591152416e+03 +2.2138366914181532e+06 +1.4538072179822290e+08 
-2.0000000000000004e+00 -1.0317452553941620e+00 +2.3006712162714367e+00 +1.8496226982535809e+01 -2.5220597144464887e+02 -4.5735456695287667e+03 +2.2537908893006332e+06 +1.2701912411115326e+08 
-2.1000000000000005e+00 -1.0317408094244307e+00 +2.3008669455684272e+00 +1.8339145123284759e+01 -2.5917928272080371e+02 -1.0486341971563998e+03 +2.2925995840217345e+06 +1.0874488202218641e+08 
-2.2000000000000006e+00 -1.0317364750102820e+00 +2.3010360674318848e+00 +1.8187656223254187e+01 -2.6580947020902795e+02 +2.4276887124570553e+03 +2.3303818388794921e+06 +9.0558890969471768e+07 
-2.3000000000000007e+00 -1.0317322524931736e+00 +2.3011806580759755e+00 +1.8041750425403581e+01 -2.7212494057835761e+02 +5.8551551438811293e+03 +2.3672567002504617e+06 +7.2462048313777730e+07 
-2.4000000000000008e+00 -1.0317281422146396e+00 +2.3013027935963781e+00 +1.7901417882635375e+01 -2.7815409714732039e+02 +9.2334969443014052e+03 +2.4033431956356289e+06 +5.4455252695149906e+07 
-2.5000000000000009e+00 -1.0317241445163208e+00 +2.3014045499738653e+00 +1.7766648759554137e+01 -2.8392533992711458e+02 +1.2562445701976578e+04 +2.4387603336847732e+06 +3.6539404107426979e+07 
-2.6000000000000010e+00 -1.0317202597400006e+00 +2.3014880030629419e+00 +1.7637433235120117e+01 -2.8946706522544014e+02 +1.5841732706247069e+04 +2.4736271016366975e+06 +1.8715404063161150e+07 
-2.7000000000000011e+00 -1.0317164882276348e+00 +2.3015552285922336e+00 +1.7513761505801849e+01 -2.9480766561386781e+02 +1.9071088887837184e+04 +2.5080624649507566e+06 +9.8415587950063276e+05 
-2.8000000000000012e+00 -1.0317128303213619e+00 +2.3016083021624878e+00 +1.7395623783442005e+01 -2.9997552980827226e+02 +2.2250244880482711e+04 +2.5421853663793677e+06 -1.6653435667500665e+07 
-2.9000000000000012e+00 -1.0317092863634907e+00 +2.3016492992443975e+00 +1.7283010293315517e+01 -3.0499904254804960e+02 +2.5378931056740788e+04 +2.5761147250432079e+06 -3.4196464506463580e+07 
-3.0000000000000013e+00 -1.0317058566965953e+00 +2.3016802951674862e+00 +1.7175911283965942e+01 -3.0990658421476780e+02 +2.8456877352923897e+04 +2.6099694339824375e+06 -5.1644022467960782e+07 
-3.1000000000000014e+00 -1.0317025416635002e+00 +2.3017033651259098e+00 +1.7074317023315444e+01 -3.1472653093429597e+02 +3.1483813353858528e+04 +2.6438683605113053e+06 -6.8995199712583244e+07 
-3.2000000000000015e+00 -1.0316993416072908e+00 +2.3017205841730268e+00 +1.6978217798987501e+01 -3.1948725438730179e+02 +3.4459468290012301e+04 +2.6779303449610211e+06 -8.6249084722592115e+07 
-3.3000000000000016e+00 -1.0316962568713532e+00 +2.3017340272116118e+00 +1.6887603920468479e+01 -3.2421712142928197e+02 +3.7383571012890076e+04 +2.7122741981438748e+06 -1.0340476422585328e+08 
-3.4000000000000017e+00 -1.0316932877994023e+00 +2.3017457689984169e+00 +1.6802465722168201e+01 -3.2894449420747912e+02 +4.0255849938205720e+04 +2.7470187019228674e+06 -1.2046132292709766e+08 
-3.5000000000000018e+00 -1.0316904347354803e+00 +2.3017578841344841e+00 +1.6722793560125290e+01 -3.3369772980438836e+02 +4.3076033122109387e+04 +2.7822826067122454e+06 -1.3741784391415626e+08 
-3.6000000000000019e+00 -1.0316876964231585e+00 +2.3017720007685076e+00 +1.6648498914631563e+01 -3.3849637176312331e+02 +4.5844639070202677e+04 +2.8181377433602791e+06 -1.5427538788817316e+08 
-3.7000000000000020e+00 -1.0316850654722045e+00 +2.3017879078768062e+00 +1.6579235482352576e+01 -3.4332247918640303e+02 +4.8564182349684219e+04 +2.8544532123288596e+06 -1.7103699126485339e+08 
-3.8000000000000020e+00 -1.0316825330268351e+00 +2.3018049176803319e+00 +1.6514607209355177e+01 -3.4814807509131168e+02 +5.1237376536068899e+04 +2.8910429452110524e+06 -1.8770464655154479e+08 
-3.9000000000000021e+00 -1.0316800902310810e+00 +2.3018223424445061e+00 +1.6454218014326056e+01 -3.5294518224171259e+02 +5.3866935678298003e+04 +2.9277208662776761e+06 -2.0428034816889608e+08 
-4.0000000000000018e+00 -1.0316777282288057e+00 +2.3018394944992759e+00 +1.6397671789546230e+01 -3.5768582370532812e+02 +5.6455574299506494e+04 +2.9643008957996769e+06 -2.2076609253161332e+08 
-4.1000000000000014e+00 -1.0316754381636548e+00 +2.3018556862430848e+00 +1.6344572394919084e+01 -3.6234202287614966e+02 +5.9006007506512215e+04 +3.0005969498095252e+06 -2.3716387854654831e+08 
-4.2000000000000011e+00 -1.0316732111790858e+00 +2.3018702301541336e+00 +1.6294523660270713e+01 -3.6688580367629243e+02 +6.1520950954073945e+04 +3.0364229408250935e+06 -2.5347570745556906e+08 
-4.3000000000000007e+00 -1.0316710384182712e+00 +2.3018824388101584e+00 +1.6247129373980023e+01 -3.7128919106242364e+02 +6.4003121052317430e+04 +3.0715927805001987e+06 -2.6970358378584379e+08 
-4.4000000000000004e+00 -1.0316689110241719e+00 +2.3018916248837238e+00 +1.6201993290142809e+01 -3.7552421076134982e+02 +6.6455234845585015e+04 +3.1059203776183152e+06 -2.8584951480594236e+08 
-4.5000000000000000e+00 -1.0316668201394910e+00 +2.3018971011670488e+00 +1.6158719124048201e+01 -3.7956288990291245e+02 +6.8880010090135300e+04 +3.1392196414232771e+06 -3.0191551086603200e+08 
-4.5999999999999996e+00 -1.0316647569066566e+00 +2.3018981805701855e+00 +1.6116910548378197e+01 -3.8337725686941070e+02 +7.1280165329177296e+04 +3.1713044803728750e+06 -3.1790358574430346e+08 
-4.6999999999999993e+00 -1.0316627124677726e+00 +2.3018941761420146e+00 +1.6076171187326814e+01 -3.8693934178783871e+02 +7.3658420010359783e+04 +3.2019888045540298e+06 -3.3381575721947306e+08 
-4.7999999999999989e+00 -1.0316606779646824e+00 +2.3018844010703670e+00 +1.6036104623537977e+01 -3.9022117646051157e+02 +7.6017494351798581e+04 +3.2310865249872343e+06 -3.4965404641331995e+08 
-4.8999999999999986e+00 -1.0316586445388587e+00 +2.3018681686991247e+00 +1.5996314384455930e+01 -3.9319479472988502e+02 +7.8360109603470351e+04 +3.2584115552538293e+06 -3.6542047902799886e+08 
-4.9999999999999982e+00 -1.0316566033314796e+00 +2.3018447925356433e+00 +1.5956403951557798e+01 -3.9583223261589768e+02 +8.0688987872280879e+04 +3.2837778119918909e+06 -3.8111708451098555e+08 
-5.0999999999999979e+00 -1.0316545454833683e+00 +2.3018135862637830e+00 +1.5915976751488548e+01 -3.9810552858151846e+02 +8.3006852295942517e+04 +3.3069992160081337e+06 -3.9674589688028121e+08 
-5.1999999999999975e+00 -1.0316524621349359e+00 +2.3017738637503191e+00 +1.5874636149060750e+01 -3.9998672363583472e+02 +8.5316427174902754e+04 +3.3278896925398163e+06 -4.1230895534252447e+08 
-5.2999999999999972e+00 -1.0316503444262664e+00 +2.3017249390589258e+00 +1.5831985457663228e+01 -4.0144786161381171e+02 +8.7620437774864622e+04 +3.3462631724313139e+06 -4.2780830334383553e+08 
-5.3999999999999968e+00 -1.0316481834970204e+00 +2.3016661264555882e+00 +1.5787627926457587e+01 -4.0246098924823332e+02 +8.9921610573138838e+04 +3.3619335921963886e+06 -4.4324598973861468e+08 
-5.4999999999999964e+00 -1.0316459704864622e+00 +2.3015967404217301e+00 +1.5741166742932716e+01 -4.0299815638980084e+02 +9.2222673224215876e+04 +3.3747148950323649e+06 -4.5862406863884681e+08 
-5.5999999999999961e+00 -1.0316436981823620e+00 +2.3015160816321196e+00 +1.5692268337652479e+01 -4.0303292215006542e+02 +9.4526121030784256e+04 +3.3844306533494676e+06 -4.7394540965393299e+08 
-5.6999999999999957e+00 -1.0316413657873085e+00 +2.3014235278079731e+00 +1.5640826509194408e+01 -4.0255032059307644e+02 +9.6834184522360782e+04 +3.3909733966842853e+06 -4.8921961385291630e+08 
-5.7999999999999954e+00 -1.0316389740563334e+00 +2.3013185126392153e+00 +1.5586784001059643e+01 -4.0153975834898910e+02 +9.9149236429809040e+04 +3.3942612830105033e+06 -5.0445905632699996e+08 
-5.8999999999999950e+00 -1.0316365237439766e+00 +2.3012004698848094e+00 +1.5530083485166610e+01 -3.9999064478164166e+02 +1.0147365108430226e+05 +3.3942124863128741e+06 -5.1967612038945264e+08 
-5.9999999999999947e+00 -1.0316340156042587e+00 +2.3010688333363345e+00 +1.5470667559000038e+01 -3.9789239065749518e+02 +1.0380980442983456e+05 +3.3907451894739401e+06 -5.3488319761225885e+08 
-6.0999999999999943e+00 -1.0316314503906188e+00 +2.3009230368207176e+00 +1.5408478740382423e+01 -3.9523440829933583e+02 +1.0616007411483381e+05 +3.3837775853881701e+06 -5.5009268825179183e+08 
-6.1999999999999940e+00 -1.0316288288559776e+00 +2.3007625142046031e+00 +1.5343459472065389e+01 -3.9200611178388624e+02 +1.0852683943280592e+05 +3.3732278783182320e+06 -5.6531700104659688e+08 
-6.2999999999999936e+00 -1.0316261517526450e+00 +2.3005866993933521e+00 +1.5275552112957655e+01 -3.8819691695312360e+02 +1.1091248148050715e+05 +3.3590142840962321e+06 -5.8056855395655942e+08 
-6.3999999999999932e+00 -1.0316234198323855e+00 +2.3003950263263686e+00 +1.5204698943829426e+01 -3.8379624135653359e+02 +1.1331938307109523e+05 +3.3410550300117438e+06 -5.9585977381448865e+08 
-6.4999999999999929e+00 -1.0316206338463301e+00 +2.3001869289915056e+00 +1.5130842157809907e+01 -3.7879350472024930e+02 +1.1574992891466894e+05 +3.3192683576985719e+06 -6.1120309719240201e+08 
-6.5999999999999925e+00 -1.0316177945449641e+00 +2.2999618414104650e+00 +1.5053923857099829e+01 -3.7317812859818099e+02 +1.1820650569999905e+05 +3.2935725213280460e+06 -6.2661097085122228e+08 
-6.6999999999999922e+00 -1.0316149026781729e+00 +2.2997191976520606e+00 +1.4973886059654209e+01 -3.6693953680998578e+02 +1.2069150196473859e+05 +3.2638857903197277e+06 -6.4209585112020874e+08 
-6.7999999999999918e+00 -1.0316119589951640e+00 +2.2994584318280054e+00 +1.4890670688750197e+01 -3.6006715537602776e+02 +1.2320730831481479e+05 +3.2301264491353743e+06 -6.5767020501191711e+08 
-6.8999999999999915e+00 -1.0316089642444877e+00 +2.2991789780899650e+00 +1.4804219575402628e+01 -3.5255041250363615e+02 +1.2575631737696860e+05 +3.1922127974168085e+06 -6.7334650999168396e+08 
-6.9999999999999911e+00 -1.0316059191739688e+00 +2.2988802706421660e+00 +1.4714474449636361e+01 -3.4437873901363082e+02 +1.2834092398274342e+05 +3.1500631526418733e+06 -6.8913725491676438e+08 
-7.0999999999999908e+00 -1.0316028245307767e+00 +2.2985617437299082e+00 +1.4621376948797687e+01 -3.3554156805854382e+02 +1.3096352501421381e+05 +3.1035958486538064e+06 -7.0505493931502485e+08 
-7.1999999999999904e+00 -1.0315996810613286e+00 +2.2982228316473337e+00 +1.4524868605929862e+01 -3.2602833542554089e+02 +1.3362651963432375e+05 +3.0527292376464596e+06 -7.2111207451695061e+08 
-7.2999999999999901e+00 -1.0315964895112744e+00 +2.2978629687381957e+00 +1.4424890847106768e+01 -3.1582847960410174e+02 +1.3633230934858276e+05 +2.9973816907025916e+06 -7.3732118398537016e+08 
-7.3999999999999897e+00 -1.0315932506255756e+00 +2.2974815893953018e+00 +1.4321385001118765e+01 -3.0493144185298365e+02 +1.3908329783019988e+05 +2.9374715984276542e+06 -7.5369480251626611e+08 
-7.4999999999999893e+00 -1.0315899651483655e+00 +2.2970781281101837e+00 +1.4214292287862035e+01 -2.9332666831512648e+02 +1.4188189103790876e+05 +2.8729173868600773e+06 -7.7024547630893397e+08 
-7.5999999999999890e+00 -1.0315866351433580e+00 +2.2966525428663731e+00 +1.4103652653135820e+01 -2.8101706015158283e+02 +1.4472866560653650e+05 +2.8037179803852905e+06 -7.8697694609152067e+08 
-7.6999999999999886e+00 -1.0315832679972006e+00 +2.2962068136929261e+00 +1.3989859668743382e+01 -2.6805614214441079e+02 +1.4761795810458239e+05 +2.7301746680893470e+06 -8.0386429421396470e+08 
-7.7999999999999883e+00 -1.0315798724461702e+00 +2.2957434176830920e+00 +1.3873386350518564e+01 -2.5450963888796355e+02 +1.5054277938241902e+05 +2.6526620778606627e+06 -8.2087689700530064e+08 
-7.8999999999999879e+00 -1.0315764572275419e+00 +2.2952648318589173e+00 +1.3754705822621524e+01 -2.4044327492127508e+02 +1.5349613844658135e+05 +2.5715548453913727e+06 -8.3798412314036679e+08 
-7.9999999999999876e+00 -1.0315730310796389e+00 +2.2947735331330219e+00 +1.3634291324150805e+01 -2.2592277340664020e+02 +1.5647104231657492e+05 +2.4872276026435103e+06 -8.5515533260885668e+08 
-8.0999999999999872e+00 -1.0315696027418253e+00 +2.2942719983241369e+00 +1.3512616207135528e+01 -2.1101385667210548e+02 +1.5946049607248569e+05 +2.4000549812775054e+06 -8.7235987697818065e+08 
-8.1999999999999869e+00 -1.0315661809545820e+00 +2.2937627041458652e+00 +1.3390153947437241e+01 -1.9578224593045374e+02 +1.6245750264339201e+05 +2.3104116111219651e+06 -8.8956709838515842e+08 
-8.2999999999999865e+00 -1.0315627744595239e+00 +2.2932481272008505e+00 +1.3267378145212191e+01 -1.8029366118263110e+02 +1.6545506280761244e+05 +2.2186721198285585e+06 -9.0674632956743014e+08 
-8.3999999999999861e+00 -1.0315593919994506e+00 +2.2927307439793259e+00 +1.3144762531125798e+01 -1.6461382122876674e+02 +1.6844617507781551e+05 +2.1252111330739688e+06 -9.2386689333493245e+08 
-8.4999999999999858e+00 -1.0315560423183865e+00 +2.2922130308580608e+00 +1.3022780971641428e+01 -1.4880844372949866e+02 +1.7142383560288989e+05 +2.0304032751840928e+06 -9.4089810211960196e+08 
-8.5999999999999854e+00 -1.0315527341616280e+00 +2.2916974640926919e+00 +1.2901907474182803e+01 -1.3294324500894214e+02 +1.7438103807369759e+05 +1.9346231680373955e+06 -9.5780925754520261e+08 
-8.6999999999999851e+00 -1.0315494762757496e+00 +2.2911865198157870e+00 +1.2782616187479132e+01 -1.1708394009861071e+02 +1.7731077372355838e+05 +1.8382454316187014e+06 -9.7456965045731103e+08 
-8.7999999999999847e+00 -1.0315462774087234e+00 +2.2906826740319337e+00 +1.2665381416944848e+01 -1.0129624263620212e+02 +1.8020603103186860e+05 +1.7416446835344119e+06 -9.9114855951063180e+08 
-8.8999999999999844e+00 -1.0315431463098390e+00 +2.2901884026196462e+00 +1.2550677612633335e+01 -8.5645864996824216e+01 +1.8305979597140121e+05 +1.6451955399832122e+06 -1.0075152524053237e+09 
-8.9999999999999840e+00 -1.0315400917298603e+00 +2.2897061813155419e+00 +1.2438979390379043e+01 -7.0198517901972949e+01 +1.8586505159497206e+05 +1.5492726136826742e+06 -1.0236389838964516e+09 
-9.0999999999999837e+00 -1.0315371224210013e+00 +2.2892384857243111e+00 +1.2330761527990479e+01 -5.5019910754397735e+01 +1.8861477811809804e+05 +1.4542505159283809e+06 -1.0394889962248538e+09 
-9.1999999999999833e+00 -1.0315342471369562e+00 +2.2887877913039172e+00 +1.2226498967881328e+01 -4.0175751292616461e+01 +1.9130195287529600e+05 +1.3605038548255044e+06 -1.0550345189355160e+09 
-9.2999999999999829e+00 -1.0315314746330171e+00 +2.2883565733712379e+00 +1.2126666832204872e+01 -2.5731745809159495e+01 +1.9391955003270449e+05 +1.2684072367027649e+06 -1.0702447675166948e+09 
-9.3999999999999826e+00 -1.0315288136660139e+00 +2.2879473070913270e+00 +1.2031740414646805e+01 -1.1753598911539097e+01 +1.9646054075211278e+05 +1.1783352649374034e+06 -1.0850889442169766e+09 
-9.4999999999999822e+00 -1.0315262729944077e+00 +2.2875624674454316e+00 +1.1942195187313608e+01 +1.6929871289965375e+00 +1.9891789306109439e+05 +1.0906625366616852e+06 -1.0995362374293678e+09 
-9.5999999999999819e+00 -1.0315238584570576e+00 +2.2872039958808688e+00 +1.1858358201105569e+01 +1.4554492869940542e+01 +2.0128641218573260e+05 +1.0057031992006780e+06 -1.1135625954895058e+09 
-9.6999999999999815e+00 -1.0315215640598310e+00 +2.2868715434681337e+00 +1.1780006010544316e+01 +2.6831433537773545e+01 +2.0356718193219387e+05 +9.2350048294856597e+05 -1.1271656418437176e+09 
-9.7999999999999812e+00 -1.0315193807952536e+00 +2.2865641384074875e+00 +1.1706787308076780e+01 +3.8539471897983553e+01 +2.0576259276614472e+05 +8.4402108114012459e+05 -1.1403470798185928e+09 
-9.8999999999999808e+00 -1.0315172996560198e+00 +2.2862808092702789e+00 +1.1638350855248763e+01 +4.9694262672987954e+01 +2.0787503319529156e+05 +7.6723172751042654e+05 -1.1531086017773969e+09 
-9.9999999999999805e+00 -1.0315153116348863e+00 +2.2860205850481106e+00 +1.1574345463864534e+01 +6.0311450800580154e+01 +2.0990689021723185e+05 +6.9309920371069328e+05 -1.1654518912199466e+09 
-1.0099999999999980e+01 -1.0315134077247445e+00 +2.2857824951737249e+00 +1.1514420005980936e+01 +7.0406670897116783e+01 +2.1186054911205551e+05 +6.2159034221806156e+05 -1.1773786217437451e+09 
