# field on trajectory
# s[mm] rx[mm] ry[mm] rz[mm] bx[T] by[T] bz[T]
0.0000000000000000e+00 +9.0449999999999999e+00 +0.0000000000000000e+00 +0.0000000000000000e+00 +2.7850151585259593e-03 -5.1493192574116144e-02 -4.2259748484130223e-04
-1.0000000000000001e-01 +9.0449994832521270e+00 +0.0000000000000000e+00 -9.9999999998219791e-02 +2.7850180369778051e-03 -5.1493212289862325e-02 -4.2259097833905596e-04
-2.0000000000000001e-01 +9.0449979330082417e+00 +0.0000000000000000e+00 -1.9999999998575846e-01 +2.7850202562284656e-03 -5.1493233066561464e-02 -4.2258255613078911e-04
-3.0000000000000004e-01 +9.0449953492679267e+00 +0.0000000000000000e+00 -2.9999999995193483e-01 +2.7850218286517305e-03 -5.1493254893131710e-02 -4.2257237680049019e-04
-4.0000000000000002e-01 +9.0449917320307449e+00 +0.0000000000000000e+00 -3.9999999988606777e-01 +2.7850227666249786e-03 -5.1493277758501432e-02 -4.2256059893198061e-04
-5.0000000000000000e-01 +9.0449870812962363e+00 +0.0000000000000000e+00 -4.9999999977747606e-01 +2.7850230825282648e-03 -5.1493301651606885e-02 -4.2254738110860562e-04
-5.9999999999999998e-01 +9.0449813970639230e+00 +0.0000000000000000e+00 -5.9999999961547845e-01 +2.7850227887433869e-03 -5.1493326561389725e-02 -4.2253288191292223e-04
-6.9999999999999996e-01 +9.0449746793333059e+00 +0.0000000000000000e+00 -6.9999999938939383e-01 +2.7850218976529493e-03 -5.1493352476794756e-02 -4.2251725992638800e-04
-7.9999999999999993e-01 +9.0449669281038645e+00 +0.0000000000000000e+00 -7.9999999908854103e-01 +2.7850204216394482e-03 -5.1493379386767409e-02 -4.2250067372905011e-04
-8.9999999999999991e-01 +9.0449581433750605e+00 +0.0000000000000000e+00 -8.9999999870223868e-01 +2.7850183730843284e-03 -5.1493407280251355e-02 -4.2248328189923353e-04
-9.9999999999999989e-01 +9.0449483251463345e+00 +0.0000000000000000e+00 -9.9999999821980556e-01 +2.7850157643670719e-03 -5.1493436146186247e-02 -4.2246524301323151e-04
-1.0999999999999999e+00 +9.0449374734171091e+00 +0.0000000000000000e+00 -1.0999999976305603e+00 +2.7850126078642558e-03 -5.1493465973505181e-02 -4.2244671564499242e-04
-1.2000000000000000e+00 +9.0449255881867856e+00 +0.0000000000000000e+00 -1.1999999969238218e+00 +2.7850089159486275e-03 -5.1493496751132344e-02 -4.2242785836580998e-04
-1.3000000000000000e+00 +9.0449126694547477e+00 +0.0000000000000000e+00 -1.2999999960889084e+00 +2.7850047009881809e-03 -5.1493528467980637e-02 -4.2240882974401149e-04
-1.4000000000000001e+00 +9.0448987172203612e+00 +0.0000000000000000e+00 -1.3999999951151390e+00 +2.7849999753452237e-03 -5.1493561112949282e-02 -4.2238978834464695e-04
-1.5000000000000002e+00 +9.0448837314829724e+00 +0.0000000000000000e+00 -1.4999999939918323e+00 +2.7849947513754465e-03 -5.1493594674921414e-02 -4.2237089272917729e-04
-1.6000000000000003e+00 +9.0448677122419081e+00 +0.0000000000000000e+00 -1.5999999927083068e+00 +2.7849890414270049e-03 -5.1493629142761690e-02 -4.2235230145516364e-04
-1.7000000000000004e+00 +9.0448506594964790e+00 +0.0000000000000000e+00 -1.6999999912538810e+00 +2.7849828578395803e-03 -5.1493664505313910e-02 -4.2233417307595592e-04
-1.8000000000000005e+00 +9.0448325732459764e+00 +0.0000000000000000e+00 -1.7999999896178736e+00 +2.7849762129434552e-03 -5.1493700751398593e-02 -4.2231666614038081e-04
-1.9000000000000006e+00 +9.0448134534896756e+00 +0.0000000000000000e+00 -1.8999999877896030e+00 +2.7849691190585881e-03 -5.1493737869810624e-02 -4.2229993919243113e-04
-2.0000000000000004e+00 +9.0447933002268339e+00 +0.0000000000000000e+00 -1.9999999857583879e+00 +2.7849615884936803e-03 -5.1493775849316817e-02 -4.2228415077095359e-04
-2.1000000000000005e+00 +9.0447721134566912e+00 +0.0000000000000000e+00 -2.0999999835135466e+00 +2.7849536392043671e-03 -5.1493814656677184e-02 -4.2226943346848644e-04
-2.2000000000000006e+00 +9.0447498931784711e+00 +0.0000000000000000e+00 -2.1999999810443978e+00 +2.7849453117746148e-03 -5.1493854170727639e-02 -4.2225581611196345e-04
-2.3000000000000007e+00 +9.0447266393913814e+00 +0.0000000000000000e+00 -2.2999999783402596e+00 +2.7849366524478757e-03 -5.1493894248334067e-02 -4.2224330159186296e-04
-2.4000000000000008e+00 +9.0447023520946228e+00 +0.0000000000000000e+00 -2.3999999753904504e+00 +2.7849277074699324e-03 -5.1493934746374592e-02 -4.2223189280487112e-04
-2.5000000000000009e+00 +9.0446770312873834e+00 +0.0000000000000000e+00 -2.4999999721842889e+00 +2.7849185230896809e-03 -5.1493975521742147e-02 -4.2222159265482753e-04
-2.6000000000000010e+00 +9.0446506769688497e+00 +0.0000000000000000e+00 -2.5999999687110931e+00 +2.7849091455599494e-03 -5.1494016431347094e-02 -4.2221240405367527e-04
-2.7000000000000011e+00 +9.0446232891382028e+00 +0.0000000000000000e+00 -2.6999999649601816e+00 +2.7848996211382857e-03 -5.1494057332119855e-02 -4.2220432992240789e-04
-2.8000000000000012e+00 +9.0445948677946237e+00 +0.0000000000000000e+00 -2.7999999609208723e+00 +2.7848899960877648e-03 -5.1494098081013427e-02 -4.2219737319201779e-04
-2.9000000000000012e+00 +9.0445654129372990e+00 +0.0000000000000000e+00 -2.8999999565824841e+00 +2.7848803166777886e-03 -5.1494138535006020e-02 -4.2219153680444365e-04
-3.0000000000000013e+00 +9.0445349245654203e+00 +0.0000000000000000e+00 -2.9999999519343348e+00 +2.7848706291848818e-03 -5.1494178551103699e-02 -4.2218682371351847e-04
-3.1000000000000014e+00 +9.0445034026781883e+00 +0.0000000000000000e+00 -3.0999999469657427e+00 +2.7848609798935002e-03 -5.1494217986342863e-02 -4.2218323688591769e-04
-3.2000000000000015e+00 +9.0444708472748143e+00 +0.0000000000000000e+00 -3.1999999416660261e+00 +2.7848514150968277e-03 -5.1494256697792944e-02 -4.2218077930210600e-04
-3.3000000000000016e+00 +9.0444372583545256e+00 +0.0000000000000000e+00 -3.2999999360245029e+00 +2.7848419810975744e-03 -5.1494294542558931e-02 -4.2217945395728556e-04
-3.4000000000000017e+00 +9.0444026359165672e+00 +0.0000000000000000e+00 -3.3999999300304915e+00 +2.7848327242087799e-03 -5.1494331377784010e-02 -4.2217926386234296e-04
-3.5000000000000018e+00 +9.0443669799602020e+00 +0.0000000000000000e+00 -3.4999999236733101e+00 +2.7848236907546159e-03 -5.1494367060652156e-02 -4.2218021204479765e-04
-3.6000000000000019e+00 +9.0443302904847194e+00 +0.0000000000000000e+00 -3.5999999169422767e+00 +2.7848149270711829e-03 -5.1494401448390667e-02 -4.2218230154974747e-04
-3.7000000000000020e+00 +9.0442925674894319e+00 +0.0000000000000000e+00 -3.6999999098267096e+00 +2.7848064795073131e-03 -5.1494434398272851e-02 -4.2218553544081771e-04
-3.8000000000000020e+00 +9.0442538109736823e+00 +0.0000000000000000e+00 -3.7999999023159265e+00 +2.7847983944253715e-03 -5.1494465767620554e-02 -4.2218991680110715e-04
-3.9000000000000021e+00 +9.0442140209368471e+00 +0.0000000000000000e+00 -3.8999998943992460e+00 +2.7847907182020539e-03 -5.1494495413806789e-02 -4.2219544873413502e-04
-4.0000000000000018e+00 +9.0441731973783348e+00 +0.0000000000000000e+00 -3.9999998860659858e+00 +2.7847834972291896e-03 -5.1494523194258290e-02 -4.2220213436478877e-04
-4.1000000000000014e+00 +9.0441313402975929e+00 +0.0000000000000000e+00 -4.0999998773054642e+00 +2.7847767602109828e-03 -5.1494549013555879e-02 -4.2220994680509916e-04
-4.2000000000000011e+00 +9.0440884496941063e+00 +0.0000000000000000e+00 -4.1999998681069997e+00 +2.7847704650462608e-03 -5.1494572964701966e-02 -4.2221873903932835e-04
-4.3000000000000007e+00 +9.0440445255674007e+00 +0.0000000000000000e+00 -4.2999998584599100e+00 +2.7847645519260538e-03 -5.1494595187776625e-02 -4.2222833401243292e-04
-4.4000000000000004e+00 +9.0439995679170320e+00 +0.0000000000000000e+00 -4.3999998483535130e+00 +2.7847589610348576e-03 -5.1494615822830124e-02 -4.2223855466219721e-04
-4.5000000000000000e+00 +9.0439535767425916e+00 +0.0000000000000000e+00 -4.4999998377771266e+00 +2.7847536325500463e-03 -5.1494635009880198e-02 -4.2224922391838771e-04
-4.5999999999999996e+00 +9.0439065520436994e+00 +0.0000000000000000e+00 -4.5999998267200697e+00 +2.7847485066412911e-03 -5.1494652888909406e-02 -4.2226016470190482e-04
-4.6999999999999993e+00 +9.0438584938200020e+00 +0.0000000000000000e+00 -4.6999998151716600e+00 +2.7847435234699836e-03 -5.1494669599862583e-02 -4.2227119992393754e-04
-4.7999999999999989e+00 +9.0438094020711688e+00 +0.0000000000000000e+00 -4.7999998031212154e+00 +2.7847386231886536e-03 -5.1494685282644101e-02 -4.2228215248511699e-04
-4.8999999999999986e+00 +9.0437592767968891e+00 +0.0000000000000000e+00 -4.8999997905580539e+00 +2.7847337459403852e-03 -5.1494700077115402e-02 -4.2229284527467095e-04
-4.9999999999999982e+00 +9.0437081179968715e+00 +0.0000000000000000e+00 -4.9999997774714942e+00 +2.7847288318582374e-03 -5.1494714123092096e-02 -4.2230310116957701e-04
-5.0999999999999979e+00 +9.0436559256708389e+00 +0.0000000000000000e+00 -5.0999997638508532e+00 +2.7847238210646687e-03 -5.1494727560341694e-02 -4.2231274303371940e-04
-5.1999999999999975e+00 +9.0436026998185266e+00 +0.0000000000000000e+00 -5.1999997496854506e+00 +2.7847186536709440e-03 -5.1494740528580676e-02 -4.2232159371704203e-04
-5.2999999999999972e+00 +9.0435484404396806e+00 +0.0000000000000000e+00 -5.2999997349646035e+00 +2.7847132697765673e-03 -5.1494753167471943e-02 -4.2232947605470503e-04
-5.3999999999999968e+00 +9.0434931475340523e+00 +0.0000000000000000e+00 -5.3999997196776306e+00 +2.7847076094686921e-03 -5.1494765616622307e-02 -4.2233621286624014e-04
-5.4999999999999964e+00 +9.0434368211013982e+00 +0.0000000000000000e+00 -5.4999997038138488e+00 +2.7847016128215423e-03 -5.1494778015579654e-02 -4.2234162695470670e-04
-5.5999999999999961e+00 +9.0433794611414751e+00 +0.0000000000000000e+00 -5.5999996873625770e+00 +2.7846952198958370e-03 -5.1494790503830531e-02 -4.2234554110584825e-04
-5.6999999999999957e+00 +9.0433210676540376e+00 +0.0000000000000000e+00 -5.6999996703131339e+00 +2.7846883707382006e-03 -5.1494803220797344e-02 -4.2234777808724871e-04
-5.7999999999999954e+00 +9.0432616406388373e+00 +0.0000000000000000e+00 -5.7999996526548365e+00 +2.7846810053805890e-03 -5.1494816305835779e-02 -4.2234816064749044e-04
-5.8999999999999950e+00 +9.0432011800956182e+00 +0.0000000000000000e+00 -5.8999996343770036e+00 +2.7846730638397079e-03 -5.1494829898232203e-02 -4.2234651151531094e-04
-5.9999999999999947e+00 +9.0431396860241122e+00 +0.0000000000000000e+00 -5.9999996154689521e+00 +2.7846644861164328e-03 -5.1494844137201040e-02 -4.2234265339876150e-04
-6.0999999999999943e+00 +9.0430771584240404e+00 +0.0000000000000000e+00 -6.0999995959200008e+00 +2.7846552333416542e-03 -5.1494859127135952e-02 -4.2233646420626668e-04
-6.1999999999999940e+00 +9.0430135972951096e+00 +0.0000000000000000e+00 -6.1999995757194686e+00 +2.7846453512231635e-03 -5.1494874833400962e-02 -4.2232804272064893e-04
-6.2999999999999936e+00 +9.0429490026370107e+00 +0.0000000000000000e+00 -6.2999995548566723e+00 +2.7846349066182334e-03 -5.1494891186626653e-02 -4.2231754294323862e-04
-6.3999999999999932e+00 +9.0428833744494224e+00 +0.0000000000000000e+00 -6.3999995333209299e+00 +2.7846239663887611e-03 -5.1494908117466744e-02 -4.2230511887226901e-04
-6.4999999999999929e+00 +9.0428167127320123e+00 +0.0000000000000000e+00 -6.4999995111015592e+00 +2.7846125974015472e-03 -5.1494925556599409e-02 -4.2229092450283526e-04
-6.5999999999999925e+00 +9.0427490174844376e+00 +0.0000000000000000e+00 -6.5999994881878790e+00 +2.7846008665285953e-03 -5.1494943434728775e-02 -4.2227511382685154e-04
-6.6999999999999922e+00 +9.0426802887063467e+00 +0.0000000000000000e+00 -6.6999994645692063e+00 +2.7845888406474026e-03 -5.1494961682586327e-02 -4.2225784083300993e-04
-6.7999999999999918e+00 +9.0426105263973806e+00 +0.0000000000000000e+00 -6.7999994402348598e+00 +2.7845765866412516e-03 -5.1494980230932332e-02 -4.2223925950673715e-04
-6.8999999999999915e+00 +9.0425397305571735e+00 +0.0000000000000000e+00 -6.8999994151741566e+00 +2.7845641713994968e-03 -5.1494999010557242e-02 -4.2221952383015145e-04
-6.9999999999999911e+00 +9.0424679011853577e+00 +0.0000000000000000e+00 -6.9999993893764145e+00 +2.7845516618178697e-03 -5.1495017952283187e-02 -4.2219878778202086e-04
-7.0999999999999908e+00 +9.0423950382815601e+00 +0.0000000000000000e+00 -7.0999993628309523e+00 +2.7845391247987529e-03 -5.1495036986965372e-02 -4.2217720533771816e-04
-7.1999999999999904e+00 +9.0423211418454077e+00 +0.0000000000000000e+00 -7.1999993355270870e+00 +2.7845266272514828e-03 -5.1495056045493488e-02 -4.2215493046917810e-04
-7.2999999999999901e+00 +9.0422462118765257e+00 +0.0000000000000000e+00 -7.2999993074541365e+00 +2.7845142360926347e-03 -5.1495075058793152e-02 -4.2213211714485309e-04
-7.3999999999999897e+00 +9.0421702483745392e+00 +0.0000000000000000e+00 -7.3999992786014195e+00 +2.7845020182463206e-03 -5.1495093957827372e-02 -4.2210891932966896e-04
-7.4999999999999893e+00 +9.0420932513390788e+00 +0.0000000000000000e+00 -7.4999992489582530e+00 +2.7844900406444649e-03 -5.1495112673597881e-02 -4.2208549098497983e-04
-7.5999999999999890e+00 +9.0420152207697768e+00 +0.0000000000000000e+00 -7.5999992185139549e+00 +2.7844783702271093e-03 -5.1495131137146710e-02 -4.2206198606852354e-04
-7.6999999999999886e+00 +9.0419361566662708e+00 +0.0000000000000000e+00 -7.6999991872578422e+00 +2.7844670739426954e-03 -5.1495149279557464e-02 -4.2203855853437615e-04
-7.7999999999999883e+00 +9.0418560590282056e+00 +0.0000000000000000e+00 -7.7999991551792336e+00 +2.7844562187483526e-03 -5.1495167031956904e-02 -4.2201536233290557e-04
-7.8999999999999879e+00 +9.0417749278552328e+00 +0.0000000000000000e+00 -7.8999991222674470e+00 +2.7844458716101902e-03 -5.1495184325516197e-02 -4.2199255141072599e-04
-7.9999999999999876e+00 +9.0416927631470152e+00 +0.0000000000000000e+00 -7.9999990885117995e+00 +2.7844360995035850e-03 -5.1495201091452482e-02 -4.2197027971065110e-04
-8.0999999999999872e+00 +9.0416095649032240e+00 +0.0000000000000000e+00 -8.0999990539016089e+00 +2.7844269429954062e-03 -5.1495217277944504e-02 -4.2194868582091282e-04
-8.1999999999999869e+00 +9.0415253331235430e+00 +0.0000000000000000e+00 -8.1999990184261939e+00 +2.7844183369852920e-03 -5.1495232900873940e-02 -4.2192784692475982e-04
-8.2999999999999865e+00 +9.0414400678076685e+00 +0.0000000000000000e+00 -8.2999989820748716e+00 +2.7844101899581141e-03 -5.1495247993075373e-02 -4.2190782485977506e-04
-8.3999999999999861e+00 +9.0413537689553056e+00 +0.0000000000000000e+00 -8.3999989448369607e+00 +2.7844024104031273e-03 -5.1495262587421209e-02 -4.2188868147059538e-04
-8.4999999999999858e+00 +9.0412664365661719e+00 +0.0000000000000000e+00 -8.4999989067017783e+00 +2.7843949068140869e-03 -5.1495276716822531e-02 -4.2187047860919099e-04
-8.5999999999999854e+00 +9.0411780706399920e+00 +0.0000000000000000e+00 -8.5999988676586412e+00 +2.7843875876893713e-03 -5.1495290414230288e-02 -4.2185327813514634e-04
-8.6999999999999851e+00 +9.0410886711765013e+00 +0.0000000000000000e+00 -8.6999988276968683e+00 +2.7843803615321028e-03 -5.1495303712636185e-02 -4.2183714191593890e-04
-8.7999999999999847e+00 +9.0409982381754421e+00 +0.0000000000000000e+00 -8.7999987868057765e+00 +2.7843731368502669e-03 -5.1495316645073869e-02 -4.2182213182721947e-04
-8.8999999999999844e+00 +9.0409067716365641e+00 +0.0000000000000000e+00 -8.8999987449746847e+00 +2.7843658221568335e-03 -5.1495329244619754e-02 -4.2180830975309028e-04
-8.9999999999999840e+00 +9.0408142715596256e+00 +0.0000000000000000e+00 -8.9999987021929098e+00 +2.7843583259698802e-03 -5.1495341544394287e-02 -4.2179573758638551e-04
-9.0999999999999837e+00 +9.0407207379443868e+00 +0.0000000000000000e+00 -9.0999986584497687e+00 +2.7843505568127080e-03 -5.1495353577562734e-02 -4.2178447722894926e-04
-9.1999999999999833e+00 +9.0406261707906186e+00 +0.0000000000000000e+00 -9.1999986137345804e+00 +2.7843424232139734e-03 -5.1495365377336427e-02 -4.2177459059191487e-04
-9.2999999999999829e+00 +9.0405305700980936e+00 +0.0000000000000000e+00 -9.2999985680366635e+00 +2.7843338337078067e-03 -5.1495376976973650e-02 -4.2176613959598322e-04
-9.3999999999999826e+00 +9.0404339358665879e+00 +0.0000000000000000e+00 -9.3999985213453332e+00 +2.7843246968339273e-03 -5.1495388409780733e-02 -4.2175918617170139e-04
-9.4999999999999822e+00 +9.0403362680958832e+00 +0.0000000000000000e+00 -9.4999984736499101e+00 +2.7843149211377828e-03 -5.1495399709113050e-02 -4.2175379225974015e-04
-9.5999999999999819e+00 +9.0402375667857626e+00 +0.0000000000000000e+00 -9.5999984249397095e+00 +2.7843044151706626e-03 -5.1495410908376116e-02 -4.2175001981117297e-04
-9.6999999999999815e+00 +9.0401378319360131e+00 +0.0000000000000000e+00 -9.6999983752040499e+00 +2.7842930874898229e-03 -5.1495422041026591e-02 -4.2174793078775350e-04
-9.7999999999999812e+00 +9.0400370635464213e+00 +0.0000000000000000e+00 -9.7999983244322504e+00 +2.7842808466586157e-03 -5.1495433140573227e-02 -4.2174758716219239e-04
-9.8999999999999808e+00 +9.0399352616167743e+00 +0.0000000000000000e+00 -9.8999982726136277e+00 +2.7842676012466124e-03 -5.1495444240577996e-02 -4.2174905091843583e-04
-9.9999999999999805e+00 +9.0398324261468606e+00 +0.0000000000000000e+00 -9.9999982197374990e+00 +2.7842532598297285e-03 -5.1495455374657148e-02 -4.2175238405194168e-04
-1.0099999999999980e+01 +9.0397285571364687e+00 +0.0000000000000000e+00 -1.0099998165793183e+01 +2.7842377555583123e-03 -5.1495466587788911e-02 -4.2175760590782346e-04
-1.0199999999999980e+01 +9.0396236545853839e+00 +0.0000000000000000e+00 -1.0199998110769997e+01 +2.7842211198604301e-03 -5.1495477970179865e-02 -4.2176456517753523e-04
-1.0299999999999979e+01 +9.0395177184933875e+00 +0.0000000000000000e+00 -1.0299998054657259e+01 +2.7842034087248390e-03 -5.1495489623242310e-02 -4.2177306787570778e-04
-1.0399999999999979e+01 +9.0394107488602575e+00 +0.0000000000000000e+00 -1.0399997997444284e+01 +2.7841846781286065e-03 -5.1495501648269076e-02 -4.2178292000454330e-04
-1.0499999999999979e+01 +9.0393027456857649e+00 +0.0000000000000000e+00 -1.0499997939120394e+01 +2.7841649840367913e-03 -5.1495514146430166e-02 -4.2179392755350894e-04
-1.0599999999999978e+01 +9.0391937089696697e+00 +0.0000000000000000e+00 -1.0599997879674904e+01 +2.7841443824021127e-03 -5.1495527218769648e-02 -4.2180589649903053e-04
-1.0699999999999978e+01 +9.0390836387117197e+00 +0.0000000000000000e+00 -1.0699997819097131e+01 +2.7841229291646311e-03 -5.1495540966202354e-02 -4.2181863280418765e-04
-1.0799999999999978e+01 +9.0389725349116521e+00 +0.0000000000000000e+00 -1.0799997757376396e+01 +2.7841006802514136e-03 -5.1495555489510729e-02 -4.2183194241840840e-04
-1.0899999999999977e+01 +9.0388603975691861e+00 +0.0000000000000000e+00 -1.0899997694502012e+01 +2.7840776915762189e-03 -5.1495570889341535e-02 -4.2184563127716656e-04
-1.0999999999999977e+01 +9.0387472266840252e+00 +0.0000000000000000e+00 -1.0999997630463300e+01 +2.7840540190391641e-03 -5.1495587266202625e-02 -4.2185950530167655e-04
-1.1099999999999977e+01 +9.0386330222558513e+00 +0.0000000000000000e+00 -1.1099997565249577e+01 +2.7840297185264006e-03 -5.1495604720459776e-02 -4.2187337039859192e-04
-1.1199999999999976e+01 +9.0385177842843287e+00 +0.0000000000000000e+00 -1.1199997498850159e+01 +2.7840048459097915e-03 -5.1495623352333361e-02 -4.2188703245970210e-04
-1.1299999999999976e+01 +9.0384015127690933e+00 +0.0000000000000000e+00 -1.1299997431254365e+01 +2.7839794570465801e-03 -5.1495643261895284e-02 -4.2190029736163207e-04
-1.1399999999999975e+01 +9.0382842077097578e+00 +0.0000000000000000e+00 -1.1399997362451511e+01 +2.7839536077790676e-03 -5.1495664549065498e-02 -4.2191297096554037e-04
-1.1499999999999975e+01 +9.0381658691059084e+00 +0.0000000000000000e+00 -1.1499997292430916e+01 +2.7839273539342828e-03 -5.1495687313609019e-02 -4.2192485911681941e-04
-1.1599999999999975e+01 +9.0380464969571008e+00 +0.0000000000000000e+00 -1.1599997221181896e+01 +2.7839007513236584e-03 -5.1495711655132607e-02 -4.2193576764479578e-04
-1.1699999999999974e+01 +9.0379260912628574e+00 +0.0000000000000000e+00 -1.1699997148693768e+01 +2.7838738557427038e-03 -5.1495737673081382e-02 -4.2194550236243172e-04
