# multipoles
# s[mm] polynom_b[n=0][T/m^n] polynom_b[n=1][T/m^n] polynom_b[n=2][T/m^n] polynom_b[n=3][T/m^n] polynom_b[n=4][T/m^n] polynom_b[n=5][T/m^n] polynom_b[n=6][T/m^n] 
+0.0000000000000000e+00 -3.4167769201975634e-01 +7.6340383542859036e-01 +7.1188469029315566e+00 +1.7372181146513800e+01 -6.5049262283149210e+03 +9.1119836173936972e+04 +3.5602731599365868e+07 
+1.0000000000000001e-01 -3.4167768037673624e-01 +7.6341112034044067e-01 +7.1149732472393259e+00 +1.7054604800122227e+01 -6.4828341534905230e+03 +9.3524752681814658e+04 +3.5623775952134058e+07 
+2.0000000000000001e-01 -3.4167767026806989e-01 +7.6341992022516669e-01 +7.1109462365485285e+00 +1.6714086074405344e+01 -6.4561768312002378e+03 +9.5989389498407560e+04 +3.5620649494614229e+07 
+3.0000000000000004e-01 -3.4167766207520689e-01 +7.6343014962752831e-01 +7.1067877785466260e+00 +1.6352126172978338e+01 -6.4253320135623180e+03 +9.8506841094673800e+04 +3.5594880191013157e+07 
+4.0000000000000002e-01 -3.4167765617958984e-01 +7.6344172309175462e-01 +7.1025197789235310e+00 +1.5970226264942642e+01 -6.3906774030649804e+03 +1.0107020235785370e+05 +3.5547995738465503e+07 
+5.0000000000000000e-01 -3.4167765296267805e-01 +7.6345455516601624e-01 +7.0981641449427721e+00 +1.5569887350025731e+01 -6.3525907259687410e+03 +1.0367256939311637e+05 +3.5481523932175905e+07 
+5.9999999999999998e-01 -3.4167765280592344e-01 +7.6346856039519140e-01 +7.0937427820240435e+00 +1.5152610484809788e+01 -6.3114496639615654e+03 +1.0630703815135406e+05 +3.5396992331413813e+07 
+6.9999999999999996e-01 -3.4167765609078982e-01 +7.6348365332492474e-01 +7.0892775964147283e+00 +1.4719896664507617e+01 -6.2676319065251773e+03 +1.0896670511569118e+05 +3.5295928511593215e+07 
+7.9999999999999993e-01 -3.4167766319873039e-01 +7.6349974849804914e-01 +7.0847904925949869e+00 +1.4273246933112489e+01 -6.2215151037554451e+03 +1.1164466663752837e+05 +3.5179859847654134e+07 
+8.9999999999999991e-01 -3.4167767451121145e-01 +7.6351676045786909e-01 +7.0803033757667828e+00 +1.3814162289582413e+01 -6.1734769098652478e+03 +1.1433401947686484e+05 +3.5050313709188707e+07 
+9.9999999999999989e-01 -3.4167769040968754e-01 +7.6353460374138948e-01 +7.0758381495093321e+00 +1.3344143900689817e+01 -6.1238949444826485e+03 +1.1702785950980315e+05 +3.4908817293448351e+07 
+1.0999999999999999e+00 -3.4167771127561375e-01 +7.6355319288319801e-01 +7.0714167168237072e+00 +1.2864692979149819e+01 -6.0731468085979068e+03 +1.1971928245901312e+05 +3.4756897689748697e+07 
+1.2000000000000000e+00 -3.4167773749044439e-01 +7.6357244241499633e-01 +7.0670609801967679e+00 +1.2377310811077724e+01 -6.0216100878199240e+03 +1.2240138369454327e+05 +3.4596081901422732e+07 
+1.3000000000000000e+00 -3.4167776943562694e-01 +7.6359226686175197e-01 +7.0627928411280285e+00 +1.1883498868626239e+01 -5.9696623449421168e+03 +1.2506725756698445e+05 +3.4427896814149246e+07 
+1.4000000000000001e+00 -3.4167780749260918e-01 +7.6361258074344562e-01 +7.0586342006450407e+00 +1.1384758771762563e+01 -5.9176811277134047e+03 +1.2770999759310561e+05 +3.4253869228095479e+07 
+1.5000000000000002e+00 -3.4167785204283235e-01 +7.6363329857416318e-01 +7.0546069589246940e+00 +1.0882592307761307e+01 -5.8660439642401006e+03 +1.3032269635419897e+05 +3.4075525842314981e+07 
+1.6000000000000003e+00 -3.4167790346771559e-01 +7.6365433486098677e-01 +7.0507330130217598e+00 +1.0378501479382194e+01 -5.8151283184676904e+03 +1.3289844517087098e+05 +3.3894393040493585e+07 
+1.7000000000000004e+00 -3.4167796214869944e-01 +7.6367560410224478e-01 +7.0470342629661120e+00 +9.8739885521566997e+00 -5.7653117099846340e+03 +1.3543033382962222e+05 +3.3711997470686570e+07 
+1.8000000000000005e+00 -3.4167802846718570e-01 +7.6369702078875890e-01 +7.0435326033950565e+00 +9.3705560364585097e+00 -5.7169715493156491e+03 +1.3791145063167860e+05 +3.3529865247175861e+07 
+1.9000000000000006e+00 -3.4167810280458760e-01 +7.6371849940264191e-01 +7.0402499308215045e+00 +8.8697067063197021e+00 -5.6704852832731021e+03 +1.4033488232570229e+05 +3.3349522660992779e+07 
+2.0000000000000004e+00 -3.4167818554229756e-01 +7.6373995441483533e-01 +7.0372081389224306e+00 +8.3729436983196717e+00 -5.6262303002423014e+03 +1.4269371345725877e+05 +3.3172495716415998e+07 
+2.1000000000000005e+00 -3.4167827702361458e-01 +7.6376130917064100e-01 +7.0344234565138635e+00 +7.8815628699324121e+00 -5.5844867402611308e+03 +1.4498288877556357e+05 +3.2999915677552432e+07 
+2.2000000000000006e+00 -3.4167837744345209e-01 +7.6378252417630910e-01 +7.0318897915432750e+00 +7.3960127700152709e+00 -5.5451519684702998e+03 +1.4720473980096233e+05 +3.2831345447046179e+07 
+2.3000000000000007e+00 -3.4167848696047670e-01 +7.6380356964288998e-01 +7.0295955347608965e+00 +6.9165254149896835e+00 -5.5080288121040949e+03 +1.4936343625152097e+05 +3.2665956770429622e+07 
+2.4000000000000008e+00 -3.4167860573339193e-01 +7.6382441577835081e-01 +7.0275290819637659e+00 +6.4433328838854065e+00 -5.4729202025282229e+03 +1.5146314763002135e+05 +3.2502921915816180e+07 
+2.5000000000000009e+00 -3.4167873392088349e-01 +7.6384503278842619e-01 +7.0256788276135147e+00 +5.9766672930283837e+00 -5.4396290594682550e+03 +1.5350804337503735e+05 +3.2341413139926944e+07 
+2.6000000000000010e+00 -3.4167887168164979e-01 +7.6386539087836780e-01 +7.0240331686496384e+00 +5.5167607419525710e+00 -5.4079583623281887e+03 +1.5550229318811579e+05 +3.2180603023250677e+07 
+2.7000000000000011e+00 -3.4167901917439175e-01 +7.6388546025124238e-01 +7.0225805031600288e+00 +5.0638453619067807e+00 -5.3777111270569558e+03 +1.5745006675702261e+05 +3.2019664367137428e+07 
+2.8000000000000012e+00 -3.4167917655781616e-01 +7.6390521110923881e-01 +7.0213092311828627e+00 +4.6181532743097549e+00 -5.3486904243338495e+03 +1.5935553401225843e+05 +3.1857770288500406e+07 
+2.9000000000000012e+00 -3.4167934399064337e-01 +7.6392461365558140e-01 +7.0202077555195732e+00 +4.1799165330037154e+00 -5.3206993945741388e+03 +1.6122286547283389e+05 +3.1694094289714564e+07 
+3.0000000000000013e+00 -3.4167952163160131e-01 +7.6394363809062260e-01 +7.0192644811776583e+00 +3.7493672331079684e+00 -5.2935412400662253e+03 +1.6305623162944414e+05 +3.1527810229907170e+07 
+3.1000000000000014e+00 -3.4167970963941158e-01 +7.6396225461785527e-01 +7.0184678137419851e+00 +3.3267373417814898e+00 -5.2670191947494741e+03 +1.6485980391781253e+05 +3.1358092182329889e+07 
+3.2000000000000015e+00 -3.4167990817282717e-01 +7.6398043343854072e-01 +7.0178061641189835e+00 +2.9122588436771224e+00 -5.2409366168931001e+03 +1.6663775390541795e+05 +3.1184114883973043e+07 
+3.3000000000000016e+00 -3.4168011739059717e-01 +7.6399814475653505e-01 +7.0172679442143915e+00 +2.5061636025116978e+00 -5.2150969069432340e+03 +1.6839425409573733e+05 +3.1005053343615521e+07 
+3.4000000000000017e+00 -3.4168033745148618e-01 +7.6401535877610660e-01 +7.0168415696145283e+00 +2.1086834196738633e+00 -5.1893035621172221e+03 +1.7013347760518396e+05 +3.0820083112500720e+07 
+3.5000000000000018e+00 -3.4168056851427042e-01 +7.6403204570335359e-01 +7.0165154590318650e+00 +1.7200499912831466e+00 -5.1633601652015586e+03 +1.7185959842226867e+05 +3.0628380229196426e+07 
+3.6000000000000019e+00 -3.4168081073773604e-01 +7.6404817574661466e-01 +7.0162780342292272e+00 +1.3404948995250976e+00 -5.1370703865010328e+03 +1.7357679144916497e+05 +3.0429121239208519e+07 
+3.7000000000000020e+00 -3.4168106428068917e-01 +7.6406371911522131e-01 +7.0161177212846306e+00 +9.7024963878424431e-01 -5.1102380070538638e+03 +1.7528923238633794e+05 +3.0221483302334994e+07 
+3.8000000000000020e+00 -3.4168132930195089e-01 +7.6407864602214903e-01 +7.0160229503317462e+00 +6.0954553801610301e-01 -5.0826669186556892e+03 +1.7700109818580921e+05 +3.0004644207634605e+07 
+3.9000000000000021e+00 -3.4168160596034414e-01 +7.6409292668307816e-01 +7.0159821537532121e+00 +2.5861379041679278e-01 -5.0541610880948674e+03 +1.7871656687850092e+05 +2.9777782199232295e+07 
+4.0000000000000018e+00 -3.4168189441472768e-01 +7.6410653131670769e-01 +7.0159837705684458e+00 -8.2314556020681412e-02 -5.0245246422478212e+03 +1.8043981759914142e+05 +2.9540076382811207e+07 
+4.1000000000000014e+00 -3.4168219474935158e-01 +7.6411943530331938e-01 +7.0160202463956294e+00 -4.1292744395512615e-01 -4.9936624093882974e+03 +1.8217287927248274e+05 +2.9291234980481148e+07 
+4.2000000000000011e+00 -3.4168250673746020e-01 +7.6413162409572044e-01 +7.0160980748724073e+00 -7.3235998892107756e-01 -4.9618510958800953e+03 +1.8390780362976194e+05 +2.9033017179373294e+07 
+4.3000000000000007e+00 -3.4168283007174149e-01 +7.6414308302866096e-01 +7.0162268486514074e+00 -1.0395488619098625e+00 -4.9294543806814754e+03 +1.8563375580592261e+05 +2.8767688106940266e+07 
+4.4000000000000004e+00 -3.4168316444487334e-01 +7.6415379743634315e-01 +7.0164161585886724e+00 -1.3334306554592286e+00 -4.8968359019254394e+03 +1.8733990006179374e+05 +2.8497512690891426e+07 
+4.5000000000000000e+00 -3.4168350954950066e-01 +7.6416375265840508e-01 +7.0166755907015714e+00 -1.6129420656647941e+00 -4.8643591959390669e+03 +1.8901540093795347e+05 +2.8224755351353496e+07 
+4.5999999999999996e+00 -3.4168386507825321e-01 +7.6417293403469544e-01 +7.0170147281377027e+00 -1.8770197337182950e+00 -4.8323877320945257e+03 +1.9064942229732565e+05 +2.7951680159522757e+07 
+4.6999999999999993e+00 -3.4168423072372561e-01 +7.6418132690916818e-01 +7.0174431488048628e+00 -2.1246003523739190e+00 -4.8012848676338663e+03 +1.9223112791437344e+05 +2.7680550622198485e+07 
+4.7999999999999989e+00 -3.4168460617850455e-01 +7.6418891662718391e-01 +7.0179704285767395e+00 -2.3546205881205085e+00 -4.7714139078414610e+03 +1.9374968101135222e+05 +2.7413629966503326e+07 
+4.8999999999999986e+00 -3.4168499113513029e-01 +7.6419568853876474e-01 +7.0186061363657490e+00 -2.5660171666484719e+00 -4.7431380090783741e+03 +1.9519424471667616e+05 +2.7153180668094411e+07 
+4.9999999999999982e+00 -3.4168538528612469e-01 +7.6420162799759384e-01 +7.0193598376391755e+00 -2.7577268412239762e+00 -4.7168202472932044e+03 +1.9655398185923535e+05 +2.6901464783051707e+07 
+5.0999999999999979e+00 -3.4168578832397761e-01 +7.6420672035980985e-01 +7.0202410926804335e+00 -2.9286863536353347e+00 -4.6928235818746361e+03 +1.9781805471912140e+05 +2.6660743766372737e+07 
+5.1999999999999975e+00 -3.4168619994114802e-01 +7.6421095098575376e-01 +7.0212594563801840e+00 -3.0778324802088668e+00 -4.6715108500384695e+03 +1.9897562526612217e+05 +2.6433278440718506e+07 
+5.2999999999999972e+00 -3.4168661983006265e-01 +7.6421430524044465e-01 +7.0224244781257159e+00 -3.2041020378387595e+00 -4.6532447635927265e+03 +2.0001585516221952e+05 +2.6221328978037827e+07 
+5.3999999999999968e+00 -3.4168704768310787e-01 +7.6421676849284537e-01 +7.0237457008589388e+00 -3.3064318652825149e+00 -4.6383878918126857e+03 +2.0092790564584924e+05 +2.6027154820082165e+07 
+5.4999999999999964e+00 -3.4168748319264064e-01 +7.6421832611558993e-01 +7.0252326621418826e+00 -3.3837588020676614e+00 -4.6273026781626932e+03 +2.0170093735892355e+05 +2.5853014748290967e+07 
+5.5999999999999961e+00 -3.4168792605097359e-01 +7.6421896348748919e-01 +7.0268948924137691e+00 -3.4350197638120519e+00 -4.6203514076273268e+03 +2.0232411077973395e+05 +2.5701166728962466e+07 
+5.6999999999999957e+00 -3.4168837595039092e-01 +7.6421866599096777e-01 +7.0287419165251910e+00 -3.4591516596844061e+00 -4.6178962318869471e+03 +2.0278658570773204e+05 +2.5573868022583336e+07 
+5.7999999999999954e+00 -3.4168883258313260e-01 +7.6421741901434348e-01 +7.0307832520546443e+00 -3.4550914544308697e+00 -4.6202991392877748e+03 +2.0307752159631639e+05 +2.5473375046132024e+07 
+5.8999999999999950e+00 -3.4168929564139289e-01 +7.6421520795046960e-01 +7.0330284090062234e+00 -3.4217761242118709e+00 -4.6279219465807137e+03 +2.0318607727264683e+05 +2.5401943326234788e+07 
+5.9999999999999947e+00 -3.4168976481732327e-01 +7.6421201819946638e-01 +7.0354868897102270e+00 -3.3581427431901814e+00 -4.6411262950540113e+03 +2.0310141151881745e+05 +2.5361827482975658e+07 
+6.0999999999999943e+00 -3.4169023977555513e-01 +7.6420785028102001e-01 +7.0381652847599838e+00 -3.2636489459915445e+00 -4.6602017979791017e+03 +2.0281639708982914e+05 +2.5354883151872009e+07 
+6.1999999999999940e+00 -3.4169072007002871e-01 +7.6420277169696016e-01 +7.0410572736359365e+00 -3.1401280658937236e+00 -4.6851070289948057e+03 +2.0234077316952383e+05 +2.5381068347718600e+07 
+6.2999999999999936e+00 -3.4169120522657664e-01 +7.6419686871342285e-01 +7.0441529182180087e+00 -2.9900982201928912e+00 -4.7157047437090705e+03 +2.0168913817875012e+05 +2.5439776709830210e+07 
+6.3999999999999932e+00 -3.4169169477105327e-01 +7.6419022760116073e-01 +7.0474422822551901e+00 -2.8160776425060403e+00 -4.7518577150424726e+03 +2.0087609124893585e+05 +2.5530401876377139e+07 
+6.4999999999999929e+00 -3.4169218822933417e-01 +7.6418293463634668e-01 +7.0509154316174261e+00 -2.6205846626997702e+00 -4.7934287429503929e+03 +1.9991623187187585e+05 +2.5652337555896651e+07 
+6.5999999999999925e+00 -3.4169268512731815e-01 +7.6417507609779833e-01 +7.0545624344710944e+00 -2.4061376170151125e+00 -4.8402806593756586e+03 +1.9882415934935983e+05 +2.5804977556413315e+07 
+6.6999999999999922e+00 -3.4169318499092138e-01 +7.6416673826826609e-01 +7.0583733605277130e+00 -2.1752548903165918e+00 -4.8922763121270782e+03 +1.9761447306011873e+05 +2.5987715701941196e+07 
+6.7999999999999918e+00 -3.4169368734608446e-01 +7.6415800743443907e-01 +7.0623382819303941e+00 -1.9304549099810551e+00 -4.9492785813731580e+03 +1.9630177240237501e+05 +2.6199945908338007e+07 
+6.8999999999999915e+00 -3.4169419171877824e-01 +7.6414896988727532e-01 +7.0664472739946627e+00 -1.6742561555930571e+00 -5.0111503941713900e+03 +1.9490065685672473e+05 +2.6441062254047621e+07 
+6.9999999999999911e+00 -3.4169469763499938e-01 +7.6413971192153374e-01 +7.0706904146031153e+00 -1.4091771508516042e+00 -5.0777547121120679e+03 +1.9342572595638482e+05 +2.6710458916912351e+07 
+7.0999999999999908e+00 -3.4169520462076441e-01 +7.6413031983698299e-01 +7.0750577834036594e+00 -1.1377364835970591e+00 -5.1489545144467838e+03 +1.9189157936037343e+05 +2.7007530089116722e+07 
+7.1999999999999904e+00 -3.4169571220212580e-01 +7.6412087993661049e-01 +7.0795394637781035e+00 -8.6245276427185236e-01 -5.2246128371150171e+03 +1.9031281664595881e+05 +2.7331670166388258e+07 
+7.2999999999999901e+00 -3.4169621990515858e-01 +7.6411147852848949e-01 +7.0841255414819688e+00 -5.8584467077943558e-01 -5.3045927461121328e+03 +1.8870403754248275e+05 +2.7682273617659498e+07 
+7.3999999999999897e+00 -3.4169672725597838e-01 +7.6410220192475176e-01 +7.0888061063745758e+00 -3.1043092241659370e-01 -5.3887573688861148e+03 +1.8707984179556256e+05 +2.8058735130098965e+07 
+7.4999999999999893e+00 -3.4169723378072342e-01 +7.6409313644298171e-01 +7.0935712505689246e+00 -3.8730317934045806e-02 -5.4769698591205288e+03 +1.8545482938150337e+05 +2.8460449439726446e+07 
+7.5999999999999890e+00 -3.4169773900557637e-01 +7.6408436840486316e-01 +7.0984110708648567e+00 +2.2673831149844820e-01 -5.5690934434358360e+03 +1.8384360021392067e+05 +2.8886811554884396e+07 
+7.6999999999999886e+00 -3.4169824245674119e-01 +7.6407598413698397e-01 +7.1033156660932963e+00 +4.8345606765575977e-01 -5.6649913698380878e+03 +1.8226075437918230e+05 +2.9337216506281629e+07 
+7.7999999999999883e+00 -3.4169874366046632e-01 +7.6406806997030996e-01 +7.1082751397285735e+00 +7.2890402003446475e-01 -5.7645269562185767e+03 +1.8072089188067924e+05 +2.9811059573616788e+07 
+7.8999999999999879e+00 -3.4169924214303193e-01 +7.6406071224227057e-01 +7.1132795984386750e+00 +9.6056312585861525e-01 -5.8675635637201931e+03 +1.7923861316263181e+05 +3.0307736161248866e+07 
+7.9999999999999876e+00 -3.4169973743075494e-01 +7.6405399728591206e-01 +7.1183191518032638e+00 +1.1759146174133248e+00 -5.9739645772210133e+03 +1.7782851678549376e+05 +3.0826641670815516e+07 
+8.0999999999999872e+00 -3.4170022908626019e-01 +7.6404797738520369e-01 +7.1233790249967130e+00 +1.3733458069002300e+00 -6.0834489092326139e+03 +1.7650056276862649e+05 +3.1366370960144747e+07 
+8.1999999999999869e+00 -3.4170071683687719e-01 +7.6404259094430060e-01 +7.1284307402168645e+00 +1.5541485243384243e+00 -6.1952936454553892e+03 +1.7525043018231002e+05 +3.1922996385742716e+07 
+8.2999999999999865e+00 -3.4170120045536512e-01 +7.6403775263080298e-01 +7.1334436443478131e+00 +1.7201868580605677e+00 -6.3086937644348536e+03 +1.7407116653678316e+05 +3.2492097459212467e+07 
+8.3999999999999861e+00 -3.4170167971448567e-01 +7.6403337710789454e-01 +7.1383870876217399e+00 +1.8733248465597219e+00 -6.4228443544532356e+03 +1.7295582062251191e+05 +3.3069254369864970e+07 
+8.4999999999999858e+00 -3.4170215438699458e-01 +7.6402937903537893e-01 +7.1432304225746766e+00 +2.0154264712245111e+00 -6.5369405990721934e+03 +1.7189744236518288e+05 +3.3650047948374428e+07 
+8.5999999999999854e+00 -3.4170262424566039e-01 +7.6402567306970903e-01 +7.1479430070419330e+00 +2.1483556487907767e+00 -6.6501778377310211e+03 +1.7088908290044987e+05 +3.4230059964957856e+07 
+8.6999999999999851e+00 -3.4170308906325175e-01 +7.6402217386317672e-01 +7.1524942020669098e+00 +2.2739762516541950e+00 -6.7617515246752846e+03 +1.6992379447697100e+05 +3.4804872933164202e+07 
+8.7999999999999847e+00 -3.4170354861253505e-01 +7.6401879606480472e-01 +7.1568533721231846e+00 +2.3941520700506045e+00 -6.8708572368340865e+03 +1.6899463072130168e+05 +3.5370070157630980e+07 
+8.8999999999999844e+00 -3.4170400266627654e-01 +7.6401545431846085e-01 +7.1609898850895402e+00 +2.5107468667529242e+00 -6.9766906725824365e+03 +1.6809464633320554e+05 +3.5921235728586175e+07 
+8.9999999999999840e+00 -3.4170445099725766e-01 +7.6401206326366844e-01 +7.1648731150887146e+00 +2.6256243502688226e+00 -7.0784477133981754e+03 +1.6721689726037421e+05 +3.6453954837150075e+07 
+9.0999999999999837e+00 -3.4170489337824983e-01 +7.6400853753612175e-01 +7.1684724382436471e+00 +2.7406481455393554e+00 -7.1753243360257129e+03 +1.6635444092320773e+05 +3.6963813339890368e+07 
+9.1999999999999833e+00 -3.4170532958203031e-01 +7.6400479176583269e-01 +7.1717572356272612e+00 +2.8576818488040781e+00 -7.2665166772090470e+03 +1.6550033590288079e+05 +3.7446398092163801e+07 
+9.2999999999999829e+00 -3.4170575938138192e-01 +7.6400074057952216e-01 +7.1746968932456019e+00 +2.9785889542128796e+00 -7.3512210327863686e+03 +1.6464764239264504e+05 +3.7897296942405753e+07 
+9.3999999999999826e+00 -3.4170618254908902e-01 +7.6399629859690765e-01 +7.1772608013100108e+00 +3.1052329459332881e+00 -7.4286338449977065e+03 +1.6378942171690485e+05 +3.8312098678021505e+07 
+9.4999999999999822e+00 -3.4170659885793148e-01 +7.6399138043334025e-01 +7.1794183537862564e+00 +3.2394772301889754e+00 -7.4979516953593502e+03 +1.6291873671432649e+05 +3.8686392995986432e+07 
+9.5999999999999819e+00 -3.4170700808069482e-01 +7.6398590069996664e-01 +7.1811389498221612e+00 +3.3831851111109197e+00 -7.5583713355663685e+03 +1.6202865194601234e+05 +3.9015770661925897e+07 
+9.6999999999999815e+00 -3.4170740999017868e-01 +7.6397977400070405e-01 +7.1823919946821926e+00 +3.5382198839547745e+00 -7.6090897039728006e+03 +1.6111223314715704e+05 +3.9295823586914733e+07 
+9.7999999999999812e+00 -3.4170780435917464e-01 +7.6397291493465624e-01 +7.1831468975358339e+00 +3.7064447522618926e+00 -7.6493038889657018e+03 +1.6016254775901511e+05 +3.9522144668930858e+07 
+9.8999999999999808e+00 -3.4170819096046695e-01 +7.6396523809485606e-01 +7.1833730709472592e+00 +3.8897228647892299e+00 -7.6782111159168344e+03 +1.5917266472399942e+05 +3.9690327723332152e+07 
+9.9999999999999805e+00 -3.4170856956688517e-01 +7.6395665808707636e-01 +7.1830399407592891e+00 +4.0899166177822339e+00 -7.6950089803678657e+03 +1.5813565815112836e+05 +3.9795968661724940e+07 
+1.0099999999999980e+01 -3.4170894006746283e-01 +7.6394713394438429e-01 +7.1821294781824374e+00 +4.3077630304767460e+00 -7.6991840759383358e+03 +1.5704957835072998e+05 +3.9836167318835706e+07 
