# trajectory
# s[mm] rx[mm] ry[mm] rz[mm] px[rad] py[rad] pz[rad]
0.0000000000000000e+00 +9.1013000000000002e+00 +0.0000000000000000e+00 +0.0000000000000000e+00 +0.0000000000000000e+00 +0.0000000000000000e+00 +1.0000000000000000e+00
1.0000000000000001e-01 +9.1012994849542412e+00 +0.0000000000000000e+00 +9.9999999998231517e-02 -1.0300915196059092e-05 +0.0000000000000000e+00 +9.9999999994694555e-01
2.0000000000000001e-01 +9.1012979398169520e+00 +0.0000000000000000e+00 +1.9999999998585216e-01 -2.0601830626819721e-05 +0.0000000000000000e+00 +9.9999999978778231e-01
3.0000000000000004e-01 +9.1012953645881023e+00 +0.0000000000000000e+00 +2.9999999995225102e-01 -3.0902746463891482e-05 +0.0000000000000000e+00 +9.9999999952251017e-01
4.0000000000000002e-01 +9.1012917592676406e+00 +0.0000000000000000e+00 +3.9999999988681723e-01 -4.1203662883736446e-05 +0.0000000000000000e+00 +9.9999999915112914e-01
5.0000000000000000e-01 +9.1012871238554993e+00 +0.0000000000000000e+00 +4.9999999977893989e-01 -5.1504580067668819e-05 +0.0000000000000000e+00 +9.9999999867363920e-01
5.9999999999999998e-01 +9.1012814583515951e+00 +0.0000000000000000e+00 +5.9999999961800810e-01 -6.1805498201854535e-05 +0.0000000000000000e+00 +9.9999999809004025e-01
6.9999999999999996e-01 +9.1012747627558213e+00 +0.0000000000000000e+00 +6.9999999939341095e-01 -7.2106417477310904e-05 +0.0000000000000000e+00 +9.9999999740033230e-01
7.9999999999999993e-01 +9.1012670370680553e+00 +0.0000000000000000e+00 +7.9999999909453756e-01 -8.2407338089906168e-05 +0.0000000000000000e+00 +9.9999999660451533e-01
8.9999999999999991e-01 +9.1012582812881533e+00 +0.0000000000000000e+00 +8.9999999871077707e-01 -9.2708260240359136e-05 +0.0000000000000000e+00 +9.9999999570258924e-01
9.9999999999999989e-01 +9.1012484954159500e+00 +0.0000000000000000e+00 +9.9999999823151842e-01 -1.0300918413423873e-04 +0.0000000000000000e+00 +9.9999999469455403e-01
1.0999999999999999e+00 +9.1012376794512608e+00 +0.0000000000000000e+00 +1.0999999976461508e+00 -1.1331010998196356e-04 +0.0000000000000000e+00 +9.9999999358040947e-01
1.2000000000000000e+00 +9.1012258333938814e+00 +0.0000000000000000e+00 +1.1999999969440633e+00 -1.2361103799880146e-04 +0.0000000000000000e+00 +9.9999999236015558e-01
1.3000000000000000e+00 +9.1012129572435825e+00 +0.0000000000000000e+00 +1.2999999961146449e+00 -1.3391196840486908e-04 +0.0000000000000000e+00 +9.9999999103379233e-01
1.4000000000000001e+00 +9.1011990510001137e+00 +0.0000000000000000e+00 +1.3999999951472848e+00 -1.4421290142513138e-04 +0.0000000000000000e+00 +9.9999998960131953e-01
1.5000000000000002e+00 +9.1011841146632033e+00 +0.0000000000000000e+00 +1.4999999940313720e+00 -1.5451383728940109e-04 +0.0000000000000000e+00 +9.9999998806273704e-01
1.6000000000000003e+00 +9.1011681482325546e+00 +0.0000000000000000e+00 +1.5999999927562953e+00 -1.6481477623233839e-04 +0.0000000000000000e+00 +9.9999998641804477e-01
1.7000000000000004e+00 +9.1011511517078478e+00 +0.0000000000000000e+00 +1.6999999913114439e+00 -1.7511571849345019e-04 +0.0000000000000000e+00 +9.9999998466724260e-01
1.8000000000000005e+00 +9.1011331250887384e+00 +0.0000000000000000e+00 +1.7999999896862067e+00 -1.8541666431708982e-04 +0.0000000000000000e+00 +9.9999998281033031e-01
1.9000000000000006e+00 +9.1011140683748586e+00 +0.0000000000000000e+00 +1.8999999878699729e+00 -1.9571761395245635e-04 +0.0000000000000000e+00 +9.9999998084730779e-01
2.0000000000000004e+00 +9.1010939815658141e+00 +0.0000000000000000e+00 +1.9999999858521313e+00 -2.0601856765359408e-04 +0.0000000000000000e+00 +9.9999997877817481e-01
2.1000000000000005e+00 +9.1010728646611838e+00 +0.0000000000000000e+00 +2.0999999836220709e+00 -2.1631952567887985e-04 +0.0000000000000000e+00 +9.9999997660293127e-01
2.2000000000000006e+00 +9.1010507176605255e+00 +0.0000000000000000e+00 +2.1999999811691806e+00 -2.2662048828538762e-04 +0.0000000000000000e+00 +9.9999997432157695e-01
2.3000000000000007e+00 +9.1010275405633667e+00 +0.0000000000000000e+00 +2.2999999784828491e+00 -2.3692145572325383e-04 +0.0000000000000000e+00 +9.9999997193411161e-01
2.4000000000000008e+00 +9.1010033333692117e+00 +0.0000000000000000e+00 +2.3999999755524657e+00 -2.4722242823516544e-04 +0.0000000000000000e+00 +9.9999996944053515e-01
2.5000000000000009e+00 +9.1009780960775419e+00 +0.0000000000000000e+00 +2.4999999723674189e+00 -2.5752340605636036e-04 +0.0000000000000000e+00 +9.9999996684084724e-01
2.6000000000000010e+00 +9.1009518286878155e+00 +0.0000000000000000e+00 +2.5999999689170981e+00 -2.6782438941462810e-04 +0.0000000000000000e+00 +9.9999996413504766e-01
2.7000000000000011e+00 +9.1009245311994675e+00 +0.0000000000000000e+00 +2.6999999651908917e+00 -2.7812537853031023e-04 +0.0000000000000000e+00 +9.9999996132313629e-01
2.8000000000000012e+00 +9.1008962036119101e+00 +0.0000000000000000e+00 +2.7999999611781883e+00 -2.8842637361630136e-04 +0.0000000000000000e+00 +9.9999995840511280e-01
2.9000000000000012e+00 +9.1008668459245374e+00 +0.0000000000000000e+00 +2.8999999568683772e+00 -2.9872737487804960e-04 +0.0000000000000000e+00 +9.9999995538097697e-01
3.0000000000000013e+00 +9.1008364581367225e+00 +0.0000000000000000e+00 +2.9999999522508469e+00 -3.0902838251355776e-04 +0.0000000000000000e+00 +9.9999995225072846e-01
3.1000000000000014e+00 +9.1008050402478169e+00 +0.0000000000000000e+00 +3.0999999473149860e+00 -3.1932939671338423e-04 +0.0000000000000000e+00 +9.9999994901436706e-01
3.2000000000000015e+00 +9.1007725922571545e+00 +0.0000000000000000e+00 +3.1999999420501832e+00 -3.2963041766064405e-04 +0.0000000000000000e+00 +9.9999994567189254e-01
3.3000000000000016e+00 +9.1007391141640532e+00 +0.0000000000000000e+00 +3.2999999364458272e+00 -3.3993144553101006e-04 +0.0000000000000000e+00 +9.9999994222330468e-01
3.4000000000000017e+00 +9.1007046059678114e+00 +0.0000000000000000e+00 +3.3999999304913069e+00 -3.5023248049271416e-04 +0.0000000000000000e+00 +9.9999993866860315e-01
3.5000000000000018e+00 +9.1006690676677131e+00 +0.0000000000000000e+00 +3.4999999241760107e+00 -3.6053352270654868e-04 +0.0000000000000000e+00 +9.9999993500778761e-01
3.6000000000000019e+00 +9.1006324992630230e+00 +0.0000000000000000e+00 +3.5999999174893271e+00 -3.7083457232586780e-04 +0.0000000000000000e+00 +9.9999993124085784e-01
3.7000000000000020e+00 +9.1005949007529949e+00 +0.0000000000000000e+00 +3.6999999104206451e+00 -3.8113562949658908e-04 +0.0000000000000000e+00 +9.9999992736781351e-01
3.8000000000000020e+00 +9.1005562721368669e+00 +0.0000000000000000e+00 +3.7999999029593527e+00 -3.9143669435719495e-04 +0.0000000000000000e+00 +9.9999992338865440e-01
3.9000000000000021e+00 +9.1005166134138626e+00 +0.0000000000000000e+00 +3.8999998950948389e+00 -4.0173776703873460e-04 +0.0000000000000000e+00 +9.9999991930338017e-01
4.0000000000000018e+00 +9.1004759245831934e+00 +0.0000000000000000e+00 +3.9999998868164917e+00 -4.1203884766482563e-04 +0.0000000000000000e+00 +9.9999991511199060e-01
4.1000000000000014e+00 +9.1004342056440599e+00 +0.0000000000000000e+00 +4.0999998781136995e+00 -4.2233993635179334e-04 +0.0000000000000000e+00 +9.9999991081448525e-01
4.2000000000000011e+00 +9.1003914565956503e+00 +0.0000000000000000e+00 +4.1999998689758513e+00 -4.3264103321018422e-04 +0.0000000000000000e+00 +9.9999990641086400e-01
4.3000000000000007e+00 +9.1003476774371421e+00 +0.0000000000000000e+00 +4.2999998593923348e+00 -4.4294213834627751e-04 +0.0000000000000000e+00 +9.9999990190112642e-01
4.4000000000000004e+00 +9.1003028681677023e+00 +0.0000000000000000e+00 +4.3999998493525387e+00 -4.5324325186222198e-04 +0.0000000000000000e+00 +9.9999989728527228e-01
4.5000000000000000e+00 +9.1002570287864870e+00 +0.0000000000000000e+00 +4.4999998388458513e+00 -4.6354437385603481e-04 +0.0000000000000000e+00 +9.9999989256330124e-01
4.5999999999999996e+00 +9.1002101592926454e+00 +0.0000000000000000e+00 +4.5999998278616614e+00 -4.7384550442160055e-04 +0.0000000000000000e+00 +9.9999988773521298e-01
4.6999999999999993e+00 +9.1001622596853142e+00 +0.0000000000000000e+00 +4.6999998163893570e+00 -4.8414664364866992e-04 +0.0000000000000000e+00 +9.9999988280100716e-01
4.7999999999999989e+00 +9.1001133299636248e+00 +0.0000000000000000e+00 +4.7999998044183263e+00 -4.9444779162285848e-04 +0.0000000000000000e+00 +9.9999987776068355e-01
4.8999999999999986e+00 +9.1000633701266960e+00 +0.0000000000000000e+00 +4.8999997919379572e+00 -5.0474894842564549e-04 +0.0000000000000000e+00 +9.9999987261424172e-01
4.9999999999999982e+00 +9.1000123801736432e+00 +0.0000000000000000e+00 +4.9999997789376378e+00 -5.1505011413437239e-04 +0.0000000000000000e+00 +9.9999986736168145e-01
5.0999999999999979e+00 +9.0999603601035712e+00 +0.0000000000000000e+00 +5.0999997654067561e+00 -5.2535128882224104e-04 +0.0000000000000000e+00 +9.9999986200300239e-01
5.1999999999999975e+00 +9.0999073099155776e+00 +0.0000000000000000e+00 +5.1999997513347012e+00 -5.3565247255831254e-04 +0.0000000000000000e+00 +9.9999985653820422e-01
5.2999999999999972e+00 +9.0998532296087546e+00 +0.0000000000000000e+00 +5.2999997367108600e+00 -5.4595366540750509e-04 +0.0000000000000000e+00 +9.9999985096728672e-01
5.3999999999999968e+00 +9.0997981191821893e+00 +0.0000000000000000e+00 +5.3999997215246207e+00 -5.5625486743059269e-04 +0.0000000000000000e+00 +9.9999984529024943e-01
5.4999999999999964e+00 +9.0997419786349614e+00 +0.0000000000000000e+00 +5.4999997057653722e+00 -5.6655607868420299e-04 +0.0000000000000000e+00 +9.9999983950709215e-01
5.5999999999999961e+00 +9.0996848079661437e+00 +0.0000000000000000e+00 +5.5999996894225017e+00 -5.7685729922081529e-04 +0.0000000000000000e+00 +9.9999983361781453e-01
5.6999999999999957e+00 +9.0996266071748053e+00 +0.0000000000000000e+00 +5.6999996724853972e+00 -5.8715852908875876e-04 +0.0000000000000000e+00 +9.9999982762241624e-01
5.7999999999999954e+00 +9.0995673762600120e+00 +0.0000000000000000e+00 +5.7999996549434476e+00 -5.9745976833220998e-04 +0.0000000000000000e+00 +9.9999982152089695e-01
5.8999999999999950e+00 +9.0995071152208240e+00 +0.0000000000000000e+00 +5.8999996367860392e+00 -6.0776101699119118e-04 +0.0000000000000000e+00 +9.9999981531325632e-01
5.9999999999999947e+00 +9.0994458240562981e+00 +0.0000000000000000e+00 +5.9999996180025610e+00 -6.1806227510156745e-04 +0.0000000000000000e+00 +9.9999980899949403e-01
6.0999999999999943e+00 +9.0993835027654875e+00 +0.0000000000000000e+00 +6.0999995985824009e+00 -6.2836354269534835e-04 +0.0000000000000000e+00 +9.9999980257960985e-01
6.1999999999999940e+00 +9.0993201513474418e+00 +0.0000000000000000e+00 +6.1999995785149462e+00 -6.3866481980402322e-04 +0.0000000000000000e+00 +9.9999979605360345e-01
6.2999999999999936e+00 +9.0992557698012089e+00 +0.0000000000000000e+00 +6.2999995577895849e+00 -6.4896610646190012e-04 +0.0000000000000000e+00 +9.9999978942147438e-01
6.3999999999999932e+00 +9.0991903581258313e+00 +0.0000000000000000e+00 +6.3999995363957041e+00 -6.5926740270641070e-04 +0.0000000000000000e+00 +9.9999978268322243e-01
6.4999999999999929e+00 +9.0991239163203481e+00 +0.0000000000000000e+00 +6.4999995143226919e+00 -6.6956870857811269e-04 +0.0000000000000000e+00 +9.9999977583884725e-01
6.5999999999999925e+00 +9.0990564443837947e+00 +0.0000000000000000e+00 +6.5999994915599363e+00 -6.7987002412069173e-04 +0.0000000000000000e+00 +9.9999976888834852e-01
6.6999999999999922e+00 +9.0989879423152011e+00 +0.0000000000000000e+00 +6.6999994680968245e+00 -6.9017134938096378e-04 +0.0000000000000000e+00 +9.9999976183172601e-01
6.7999999999999918e+00 +9.0989184101135940e+00 +0.0000000000000000e+00 +6.7999994439227445e+00 -7.0047268440887750e-04 +0.0000000000000000e+00 +9.9999975466897928e-01
6.8999999999999915e+00 +9.0988478477779928e+00 +0.0000000000000000e+00 +6.8999994190270835e+00 -7.1077402925751629e-04 +0.0000000000000000e+00 +9.9999974740010789e-01
6.9999999999999911e+00 +9.0987762553074134e+00 +0.0000000000000000e+00 +6.9999993933992286e+00 -7.2107538398310145e-04 +0.0000000000000000e+00 +9.9999974002511161e-01
7.0999999999999908e+00 +9.0987036327008646e+00 +0.0000000000000000e+00 +7.0999993670285679e+00 -7.3137674864499436e-04 +0.0000000000000000e+00 +9.9999973254399011e-01
7.1999999999999904e+00 +9.0986299799573498e+00 +0.0000000000000000e+00 +7.1999993399044886e+00 -7.4167812330569937e-04 +0.0000000000000000e+00 +9.9999972495674294e-01
7.2999999999999901e+00 +9.0985552970758672e+00 +0.0000000000000000e+00 +7.2999993120163786e+00 -7.5197950803086657e-04 +0.0000000000000000e+00 +9.9999971726336989e-01
7.3999999999999897e+00 +9.0984795840554060e+00 +0.0000000000000000e+00 +7.3999992833536252e+00 -7.6228090288929463e-04 +0.0000000000000000e+00 +9.9999970946387040e-01
7.4999999999999893e+00 +9.0984028408949484e+00 +0.0000000000000000e+00 +7.4999992539056155e+00 -7.7258230795293405e-04 +0.0000000000000000e+00 +9.9999970155824425e-01
7.5999999999999890e+00 +9.0983250675934713e+00 +0.0000000000000000e+00 +7.5999992236617366e+00 -7.8288372329688989e-04 +0.0000000000000000e+00 +9.9999969354649099e-01
7.6999999999999886e+00 +9.0982462641499424e+00 +0.0000000000000000e+00 +7.6999991926113758e+00 -7.9318514899942539e-04 +0.0000000000000000e+00 +9.9999968542861029e-01
7.7999999999999883e+00 +9.0981664305633227e+00 +0.0000000000000000e+00 +7.7999991607439210e+00 -8.0348658514196479e-04 +0.0000000000000000e+00 +9.9999967720460170e-01
7.8999999999999879e+00 +9.0980855668325624e+00 +0.0000000000000000e+00 +7.8999991280487585e+00 -8.1378803180909710e-04 +0.0000000000000000e+00 +9.9999966887446490e-01
7.9999999999999876e+00 +9.0980036729566063e+00 +0.0000000000000000e+00 +7.9999990945152764e+00 -8.2408948908857949e-04 +0.0000000000000000e+00 +9.9999966043819943e-01
8.0999999999999872e+00 +9.0979207489343885e+00 +0.0000000000000000e+00 +8.0999990601328609e+00 -8.3439095707086533e-04 +0.0000000000000000e+00 +9.9999965189580486e-01
8.1999999999999869e+00 +9.0978367947648326e+00 +0.0000000000000000e+00 +8.1999990248909000e+00 -8.4469243584387788e-04 +0.0000000000000000e+00 +9.9999964324728086e-01
8.2999999999999865e+00 +9.0977518104468569e+00 +0.0000000000000000e+00 +8.2999989887787802e+00 -8.5499392548777893e-04 +0.0000000000000000e+00 +9.9999963449262697e-01
8.3999999999999861e+00 +9.0976657959793705e+00 +0.0000000000000000e+00 +8.3999989517858875e+00 -8.6529542607448892e-04 +0.0000000000000000e+00 +9.9999962563184286e-01
8.4999999999999858e+00 +9.0975787513612758e+00 +0.0000000000000000e+00 +8.4999989139016101e+00 -8.7559693766768197e-04 +0.0000000000000000e+00 +9.9999961666492798e-01
8.5999999999999854e+00 +9.0974906765914678e+00 +0.0000000000000000e+00 +8.5999988751153342e+00 -8.8589846032278052e-04 +0.0000000000000000e+00 +9.9999960759188211e-01
8.6999999999999851e+00 +9.0974015716688399e+00 +0.0000000000000000e+00 +8.6999988354164479e+00 -8.9619999408695021e-04 +0.0000000000000000e+00 +9.9999959841270480e-01
8.7999999999999847e+00 +9.0973114365922783e+00 +0.0000000000000000e+00 +8.7999987947943374e+00 -9.0650153899909458e-04 +0.0000000000000000e+00 +9.9999958912739562e-01
8.8999999999999844e+00 +9.0972202713606674e+00 +0.0000000000000000e+00 +8.8999987532383891e+00 -9.1680309508984897e-04 +0.0000000000000000e+00 +9.9999957973595421e-01
8.9999999999999840e+00 +9.0971280759728863e+00 +0.0000000000000000e+00 +8.9999987107379908e+00 -9.2710466238157525e-04 +0.0000000000000000e+00 +9.9999957023838026e-01
9.0999999999999837e+00 +9.0970348504278160e+00 +0.0000000000000000e+00 +9.0999986672825273e+00 -9.3740624088835560e-04 +0.0000000000000000e+00 +9.9999956063467332e-01
9.1999999999999833e+00 +9.0969405947243338e+00 +0.0000000000000000e+00 +9.1999986228613864e+00 -9.4770783061598625e-04 +0.0000000000000000e+00 +9.9999955092483317e-01
9.2999999999999829e+00 +9.0968453088613188e+00 +0.0000000000000000e+00 +9.2999985774639562e+00 -9.5800943156197171e-04 +0.0000000000000000e+00 +9.9999954110885936e-01
9.3999999999999826e+00 +9.0967489928376484e+00 +0.0000000000000000e+00 +9.3999985310796212e+00 -9.6831104371551766e-04 +0.0000000000000000e+00 +9.9999953118675156e-01
9.4999999999999822e+00 +9.0966516466522034e+00 +0.0000000000000000e+00 +9.4999984836977696e+00 -9.7861266705752490e-04 +0.0000000000000000e+00 +9.9999952115850943e-01
9.5999999999999819e+00 +9.0965532703038647e+00 +0.0000000000000000e+00 +9.5999984353077856e+00 -9.8891430156058209e-04 +0.0000000000000000e+00 +9.9999951102413265e-01
9.6999999999999815e+00 +9.0964538637915204e+00 +0.0000000000000000e+00 +9.6999983858990575e+00 -9.9921594718895956e-04 +0.0000000000000000e+00 +9.9999950078362099e-01
9.7999999999999812e+00 +9.0963534271140585e+00 +0.0000000000000000e+00 +9.7999983354609714e+00 -1.0095176038986012e-03 +0.0000000000000000e+00 +9.9999949043697400e-01
9.8999999999999808e+00 +9.0962519602703740e+00 +0.0000000000000000e+00 +9.8999982839829137e+00 -1.0198192716371179e-03 +0.0000000000000000e+00 +9.9999947998419147e-01
9.9999999999999805e+00 +9.0961494632593656e+00 +0.0000000000000000e+00 +9.9999982314542706e+00 -1.0301209503437801e-03 +0.0000000000000000e+00 +9.9999946942527318e-01
1.0099999999999980e+01 +9.0960459360799408e+00 +0.0000000000000000e+00 +1.0099998177864430e+01 -1.0404226399494665e-03 +0.0000000000000000e+00 +9.9999945876021878e-01
1.0199999999999980e+01 +9.0959413787310144e+00 +0.0000000000000000e+00 +1.0199998123202777e+01 -1.0507243403761796e-03 +0.0000000000000000e+00 +9.9999944798902807e-01
1.0299999999999979e+01 +9.0958357912115080e+00 +0.0000000000000000e+00 +1.0299998067458697e+01 -1.0610260515365683e-03 +0.0000000000000000e+00 +9.9999943711170070e-01
1.0399999999999979e+01 +9.0957291735203523e+00 +0.0000000000000000e+00 +1.0399998010621578e+01 -1.0713277733338882e-03 +0.0000000000000000e+00 +9.9999942612823656e-01
1.0499999999999979e+01 +9.0956215256564903e+00 +0.0000000000000000e+00 +1.0499997952680806e+01 -1.0816295056620068e-03 +0.0000000000000000e+00 +9.9999941503863532e-01
1.0599999999999978e+01 +9.0955128476188740e+00 +0.0000000000000000e+00 +1.0599997893625767e+01 -1.0919312484054073e-03 +0.0000000000000000e+00 +9.9999940384289687e-01
1.0699999999999978e+01 +9.0954031394064678e+00 +0.0000000000000000e+00 +1.0699997833445847e+01 -1.1022330014391942e-03 +0.0000000000000000e+00 +9.9999939254102099e-01
1.0799999999999978e+01 +9.0952924010182485e+00 +0.0000000000000000e+00 +1.0799997772130434e+01 -1.1125347646290982e-03 +0.0000000000000000e+00 +9.9999938113300746e-01
1.0899999999999977e+01 +9.0951806324532090e+00 +0.0000000000000000e+00 +1.0899997709668911e+01 -1.1228365378314804e-03 +0.0000000000000000e+00 +9.9999936961885616e-01
1.0999999999999977e+01 +9.0950678337103543e+00 +0.0000000000000000e+00 +1.0999997646050666e+01 -1.1331383208933387e-03 +0.0000000000000000e+00 +9.9999935799856698e-01
1.1099999999999977e+01 +9.0949540047887076e+00 +0.0000000000000000e+00 +1.1099997581265086e+01 -1.1434401136523127e-03 +0.0000000000000000e+00 +9.9999934627213982e-01
1.1199999999999976e+01 +9.0948391456873061e+00 +0.0000000000000000e+00 +1.1199997515301556e+01 -1.1537419159366891e-03 +0.0000000000000000e+00 +9.9999933443957445e-01
1.1299999999999976e+01 +9.0947232564052083e+00 +0.0000000000000000e+00 +1.1299997448149462e+01 -1.1640437275654075e-03 +0.0000000000000000e+00 +9.9999932250087087e-01
1.1399999999999975e+01 +9.0946063369414887e+00 +0.0000000000000000e+00 +1.1399997379798192e+01 -1.1743455483480658e-03 +0.0000000000000000e+00 +9.9999931045602897e-01
1.1499999999999975e+01 +9.0944883872952413e+00 +0.0000000000000000e+00 +1.1499997310237131e+01 -1.1846473780849269e-03 +0.0000000000000000e+00 +9.9999929830504874e-01
1.1599999999999975e+01 +9.0943694074655799e+00 +0.0000000000000000e+00 +1.1599997239455664e+01 -1.1949492165669242e-03 +0.0000000000000000e+00 +9.9999928604793020e-01
1.1699999999999974e+01 +9.0942493974516427e+00 +0.0000000000000000e+00 +1.1699997167443179e+01 -1.2052510635756678e-03 +0.0000000000000000e+00 +9.9999927368467323e-01
1.1799999999999974e+01 +9.0941283572525879e+00 +0.0000000000000000e+00 +1.1799997094189061e+01 -1.2155529188834508e-03 +0.0000000000000000e+00 +9.9999926121527793e-01
