# multipoles
# s[mm] polynom_b[n=0][T/m^n] polynom_b[n=1][T/m^n] polynom_b[n=2][T/m^n] polynom_b[n=3][T/m^n] polynom_b[n=4][T/m^n] polynom_b[n=5][T/m^n] polynom_b[n=6][T/m^n] 
+0.0000000000000000e+00 -1.0325352638763119e+00 +2.3073933862534255e+00 +3.0282961916055616e+01 -5.4153749914260311e+02 -1.8306667115081521e+05 +3.8075817997308760e+06 +7.9988440397575271e+08 
-1.0000000000000001e-01 -1.0325344455572119e+00 +2.3074230232709616e+00 +3.0226388098475311e+01 -5.4004438949169185e+02 -1.8197632832747389e+05 +3.7940643996704691e+06 +7.9509844508583045e+08 
-2.0000000000000001e-01 -1.0325336001766636e+00 +2.3074421567091585e+00 +3.0172447014105824e+01 -5.3798996409729352e+02 -1.8097914439151398e+05 +3.7769578189971833e+06 +7.9087608653631866e+08 
-3.0000000000000004e-01 -1.0325327295826430e+00 +2.3074509144397397e+00 +3.0120855407681535e+01 -5.3539417242178399e+02 -1.8006687852247545e+05 +3.7563981125287148e+06 +7.8717143222542620e+08 
-4.0000000000000002e-01 -1.0325318356230200e+00 +2.3074494243835217e+00 +3.0071330005584990e+01 -5.3227696507539144e+02 -1.7923128956560048e+05 +3.7325213402376673e+06 +7.8393858462475967e+08 
-5.0000000000000000e-01 -1.0325309201454862e+00 +2.3074378145076748e+00 +3.0023587506469639e+01 -5.2865829382064067e+02 -1.7846413584071607e+05 +3.7054635676724818e+06 +7.8113164381126285e+08 
-5.9999999999999998e-01 -1.0325299849976468e+00 +2.3074162128243487e+00 +2.9977344593444382e+01 -5.2455811162749308e+02 -1.7775717537060365e+05 +3.6753608667006162e+06 +7.7870470852081442e+08 
-6.9999999999999996e-01 -1.0325290320269604e+00 +2.3073847473975992e+00 +2.9932317927238245e+01 -5.1999637296822425e+02 -1.7710216574678355e+05 +3.6423493176459656e+06 +7.7661187547447383e+08 
-7.9999999999999993e-01 -1.0325280630807419e+00 +2.3073435463303698e+00 +2.9888224146322042e+01 -5.1499303353360824e+02 -1.7649086412119371e+05 +3.6065650080696568e+06 +7.7480723928609550e+08 
-8.9999999999999991e-01 -1.0325270800062221e+00 +2.3072927377722747e+00 +2.9844779874827484e+01 -5.0956805053901240e+02 -1.7591502735163344e+05 +3.5681440349168847e+06 +7.7324489311573064e+08 
-9.9999999999999989e-01 -1.0325260846504631e+00 +2.3072324499150234e+00 +2.9801701712775102e+01 -5.0374138270040714e+02 -1.7536641180962225e+05 +3.5272225048633930e+06 +7.7187892771363306e+08 
-1.0999999999999999e+00 -1.0325250788603664e+00 +2.3071628109927178e+00 +2.9758706236840244e+01 -4.9753299032650875e+02 -1.7483677338904835e+05 +3.4839365352235073e+06 +7.7066343142352128e+08 
-1.2000000000000000e+00 -1.0325240644827798e+00 +2.3070839492807100e+00 +2.9715510014436635e+01 -4.9096283538233951e+02 -1.7431786776467747e+05 +3.4384222547697127e+06 +7.6955249135941672e+08 
-1.3000000000000000e+00 -1.0325230433643511e+00 +2.3069959930950632e+00 +2.9671829585625144e+01 -4.8405088156485755e+02 -1.7380145004508202e+05 +3.3908158045713231e+06 +7.6850019172697604e+08 
-1.4000000000000001e+00 -1.0325220173516128e+00 +2.3068990707920940e+00 +2.9627381473877222e+01 -4.7681709438036040e+02 -1.7327927496709520e+05 +3.3412533388721226e+06 +7.6746061469223928e+08 
-1.5000000000000002e+00 -1.0325209882909938e+00 +2.3067933107640264e+00 +2.9581882188711404e+01 -4.6928144111239578e+02 -1.7274309694450669e+05 +3.2898710253213411e+06 +7.6638784058793724e+08 
-1.6000000000000003e+00 -1.0325199559408915e+00 +2.3066788904135285e+00 +2.9534965278894052e+01 -4.6146526835295538e+02 -1.7218369556310578e+05 +3.2368134997438830e+06 +7.6523247781270063e+08 
-1.7000000000000004e+00 -1.0325189117753619e+00 +2.3065561609822458e+00 +2.9485941205937799e+01 -4.5339491978600728e+02 -1.7158812156227324e+05 +3.1822564799154396e+06 +7.6393206159241807e+08 
-1.8000000000000005e+00 -1.0325178452147510e+00 +2.3064255115251262e+00 +2.9434041938799517e+01 -4.4509785619116354e+02 -1.7094253796129962e+05 +3.1263827482346315e+06 +7.6242107176344836e+08 
-1.9000000000000006e+00 -1.0325167456793687e+00 +2.3062873311670851e+00 +2.9378499446337493e+01 -4.3660154047954131e+02 -1.7023310777682214e+05 +3.0693751002143794e+06 +7.6063398806874526e+08 
-2.0000000000000004e+00 -1.0325156025895357e+00 +2.3061420091021421e+00 +2.9318545704430328e+01 -4.2793343763613075e+02 -1.6944599416354185e+05 +3.0114163440778260e+06 +7.5850529083843517e+08 
-2.1000000000000005e+00 -1.0325144053655826e+00 +2.3059899346029096e+00 +2.9253412697070019e+01 -4.1912101496288494e+02 -1.6856736044346209e+05 +2.9526893020672528e+06 +7.5596946114837265e+08 
-2.2000000000000006e+00 -1.0325131434278434e+00 +2.3058314970174369e+00 +2.9182332416259804e+01 -4.1019174195060083e+02 -1.6758337010456173e+05 +2.8933768096317984e+06 +7.5296098081070423e+08 
-2.3000000000000007e+00 -1.0325118061967367e+00 +2.3056670857775776e+00 +2.9104536872988405e+01 -4.0117309048803338e+02 -1.6648018701345593e+05 +2.8336617165375836e+06 +7.4941433339058137e+08 
-2.4000000000000008e+00 -1.0325103830927151e+00 +2.3054970904016692e+00 +2.9019258092413608e+01 -3.9209253490896941e+02 -1.6524397533247617e+05 +2.7737268870709129e+06 +7.4526400383499348e+08 
-2.5000000000000009e+00 -1.0325088635363238e+00 +2.3053219004942243e+00 +2.8925728121570835e+01 -3.8297755195423190e+02 -1.6386089966754767e+05 +2.7137551997471517e+06 +7.4044447917203283e+08 
-2.6000000000000010e+00 -1.0325072369481796e+00 +2.3051419057566824e+00 +2.8823179027873515e+01 -3.7385562104230468e+02 -1.6231712504239436e+05 +2.6539295487751039e+06 +7.3489024839197063e+08 
-2.7000000000000011e+00 -1.0325054927489650e+00 +2.3049574959746830e+00 +2.8710842899305199e+01 -3.6475422387280804e+02 -1.6059881690928261e+05 +2.5944328416772936e+06 +7.2853580251523483e+08 
-2.8000000000000012e+00 -1.0325036203595672e+00 +2.3047690610444280e+00 +2.8587951863645596e+01 -3.5570084515620181e+02 -1.5869214152321106e+05 +2.5354480034541236e+06 +7.2131563639012086e+08 
-2.9000000000000012e+00 -1.0325016092009134e+00 +2.3045769909586844e+00 +2.8453738067025181e+01 -3.4672297217042029e+02 -1.5658326552717848e+05 +2.4771579738992108e+06 +7.1316424669743502e+08 
-3.0000000000000013e+00 -1.0324994486941359e+00 +2.3043816758163231e+00 +2.8307433697733252e+01 -3.3784809501900622e+02 -1.5425835642459957e+05 +2.4197457090621134e+06 +7.0401613424705231e+08 
-3.1000000000000014e+00 -1.0324971282605087e+00 +2.3041835058211873e+00 +2.8148270977135162e+01 -3.2910370654126274e+02 -1.5170358239608735e+05 +2.3633941805782770e+06 +6.9380580307388234e+08 
-3.2000000000000015e+00 -1.0324946373214863e+00 +2.3039828712957369e+00 +2.7975482166961310e+01 -3.2051730269948985e+02 -1.4890511245194494e+05 +2.3082863778918730e+06 +6.8246776119703293e+08 
-3.3000000000000016e+00 -1.0324919652986664e+00 +2.3037801626725600e+00 +2.7788299565325492e+01 -3.1211638228213366e+02 -1.4584911635925589e+05 +2.2546053064124295e+06 +6.6993652027436507e+08 
-3.4000000000000017e+00 -1.0324891016139393e+00 +2.3035757705034792e+00 +2.7585955525867504e+01 -3.0392844714507407e+02 -1.4252176500867680e+05 +2.2025339888493568e+06 +6.5614659735519898e+08 
-3.5000000000000018e+00 -1.0324860356893231e+00 +2.3033700854641062e+00 +2.7367682438847115e+01 -2.9598100234366285e+02 -1.3890923006508453e+05 +2.1522554664194523e+06 +6.4103251327877343e+08 
-3.6000000000000019e+00 -1.0324827617917398e+00 +2.3031636889805589e+00 +2.7133028578238889e+01 -2.8829985276844042e+02 -1.3500315008480812e+05 +2.1039367830083380e+06 +6.2455474341963637e+08 
-3.7000000000000020e+00 -1.0324792934899325e+00 +2.3029578376389401e+00 +2.6882786887326802e+01 -2.8089951009935078e+02 -1.3081690527741566e+05 +2.0576485371597188e+06 +6.0677734505857587e+08 
-3.8000000000000020e+00 -1.0324756491571505e+00 +2.3027539348091159e+00 +2.6618056784597883e+01 -2.7379049712259695e+02 -1.2636928775242028e+05 +2.0134288929112377e+06 +5.8779027852495456e+08 
-3.9000000000000021e+00 -1.0324718471671250e+00 +2.3025533838472496e+00 +2.6339937741766018e+01 -2.6698333725690850e+02 -1.2167909075497159e+05 +1.9713160187997418e+06 +5.6768351012616873e+08 
-4.0000000000000018e+00 -1.0324679058939852e+00 +2.3023575880910516e+00 +2.6049529273157688e+01 -2.6048855465088849e+02 -1.1676510845225074e+05 +1.9313480886876828e+06 +5.4654701111838198e+08 
-4.1000000000000014e+00 -1.0324638437123232e+00 +2.3021679508527502e+00 +2.5747930941064844e+01 -2.5431667405979866e+02 -1.1164613603219991e+05 +1.8935632811000480e+06 +5.2447075819529718e+08 
-4.2000000000000011e+00 -1.0324596789972824e+00 +2.3019858754161318e+00 +2.5436242368358226e+01 -2.4847822083069380e+02 -1.0634096996339368e+05 +1.8579997791645953e+06 +5.0154473479531467e+08 
-4.3000000000000007e+00 -1.0324554301244622e+00 +2.3018127650286475e+00 +2.5115563223225351e+01 -2.4298372074542857e+02 -1.0086840769362033e+05 +1.8246957697251046e+06 +4.7785892965771860e+08 
-4.4000000000000004e+00 -1.0324511154700076e+00 +2.3016500228974746e+00 +2.4786993230540350e+01 -2.3784369998928747e+02 -9.5247247879597664e+04 +1.7936894432230226e+06 +4.5350333797494757e+08 
-4.5000000000000000e+00 -1.0324467534106958e+00 +2.3014990521809118e+00 +2.4451632181344795e+01 -2.3306868498205694e+02 -8.9496290572269791e+04 +1.7650189927594678e+06 +4.2856796230957240e+08 
-4.5999999999999996e+00 -1.0324423623237975e+00 +2.3013612559843444e+00 +2.4110579915099063e+01 -2.2866920232303389e+02 -8.3634336885221317e+04 +1.7387226137818689e+06 +4.0314281105095732e+08 
-4.6999999999999993e+00 -1.0324379605872427e+00 +2.3012380373564727e+00 +2.3764936338506779e+01 -2.2465577876850509e+02 -7.7680189352101821e+04 +1.7148385040230253e+06 +3.7731790013646460e+08 
-4.7999999999999989e+00 -1.0324335665796198e+00 +2.3011307992772241e+00 +2.3415801425514058e+01 -2.2103894095098502e+02 -7.1652651941997479e+04 +1.6934048618850287e+06 +3.5118325318863803e+08 
-4.8999999999999986e+00 -1.0324291986801262e+00 +2.3010409446584048e+00 +2.3064275209202798e+01 -2.1782921548903866e+02 -6.5570529900015143e+04 +1.6744598871693637e+06 +3.2482890075983697e+08 
-4.9999999999999982e+00 -1.0324248752686385e+00 +2.3009698763349853e+00 +2.2711457789536261e+01 -2.1503712878135454e+02 -5.9452629903765373e+04 +1.6580417798212643e+06 +2.9834488112779301e+08 
-5.0999999999999979e+00 -1.0324206147258064e+00 +2.3009189970562991e+00 +2.2358449345728424e+01 -2.1267320686053094e+02 -5.3317760308296718e+04 +1.6441887392241242e+06 +2.7182124150178313e+08 
-5.1999999999999975e+00 -1.0324164354329359e+00 +2.3008897094866749e+00 +2.2006350118215519e+01 -2.1074797545826735e+02 -4.7184730800629077e+04 +1.6329389645354378e+06 +2.4534803639822781e+08 
-5.2999999999999972e+00 -1.0324123557721161e+00 +2.3008834161940470e+00 +2.1656260425580886e+01 -2.0927195977437623e+02 -4.1072352733535197e+04 +1.6243306534400766e+06 +2.1901532927975494e+08 
-5.3999999999999968e+00 -1.0324083941262459e+00 +2.3009015196442530e+00 +2.1309280665810611e+01 -2.0825568437642775e+02 -3.4999439149262282e+04 +1.6184020015823960e+06 +1.9291319268717086e+08 
-5.4999999999999964e+00 -1.0324045688790000e+00 +2.3009454221958219e+00 +2.0966511311010372e+01 -2.0770967262953997e+02 -2.8984804652569404e+04 +1.6151911930173880e+06 +1.6713170711401621e+08 
-5.5999999999999961e+00 -1.0324008948742551e+00 +2.3010158238552085e+00 +2.0628890333696987e+01 -2.0763253039666446e+02 -2.3044656415881214e+04 +1.6146624359036095e+06 +1.4174687807598168e+08 
-5.6999999999999957e+00 -1.0323973726056688e+00 +2.3011106217760045e+00 +2.0296726498768162e+01 -2.0797944576189721e+02 -1.7184999174541383e+04 +1.6165334969622546e+06 +1.1678029625525449e+08 
-5.7999999999999954e+00 -1.0323939989424304e+00 +2.3012270109369073e+00 +1.9970177992605695e+01 -2.0869578247947203e+02 -1.1409357475750256e+04 +1.6204721086993625e+06 +9.2240375723545492e+07 
-5.8999999999999950e+00 -1.0323907707526201e+00 +2.3013621859836868e+00 +1.9649402865315476e+01 -2.0972689180183357e+02 -5.7212529059176659e+03 +1.6261459233646430e+06 +6.8135515100804314e+07 
-5.9999999999999947e+00 -1.0323876849032212e+00 +2.3015133412181954e+00 +1.9334559032407508e+01 -2.1101811142669047e+02 -1.2420417659813877e+02 +1.6332225053189164e+06 +4.4474098116041064e+07 
-6.0999999999999943e+00 -1.0323847382599709e+00 +2.3016776705798079e+00 +1.9025804256430845e+01 -2.1251476478848372e+02 +5.3782732450313006e+03 +1.6413693265499400e+06 +2.1264491765531432e+07 
-6.1999999999999940e+00 -1.0323819276874040e+00 +2.3018523676315490e+00 +1.8723296153405581e+01 -2.1416216048107853e+02 +1.0782667020026722e+04 +1.6502537629205659e+06 -1.4849531647349151e+06 
-6.2999999999999936e+00 -1.0323792500487050e+00 +2.3020346255444695e+00 +1.8427192173013182e+01 -2.1590559162406106e+02 +1.6085468343258950e+04 +1.6595430900901186e+06 -2.3765904130706333e+07 
-6.3999999999999932e+00 -1.0323767022057055e+00 +2.3022216370828827e+00 +1.8137649599916461e+01 -2.1769033525119309e+02 +2.1283171921696601e+04 +1.6689044795460217e+06 -4.5570046755443379e+07 
-6.4999999999999929e+00 -1.0323742810188095e+00 +2.3024105945992508e+00 +1.7854825544122079e+01 -2.1946165199721716e+02 +2.6372276182189900e+04 +1.6780049964185031e+06 -6.6889085906565391e+07 
-6.5999999999999925e+00 -1.0323719833469429e+00 +2.3025986900019717e+00 +1.7578876934945352e+01 -2.2116478496855368e+02 +3.1349283396733495e+04 +1.6865115924819957e+06 -8.7714746338503644e+07 
-6.6999999999999922e+00 -1.0323698060474356e+00 +2.3027831147590745e+00 +1.7309960506110979e+01 -2.2274495968900996e+02 +3.6210699986167907e+04 +1.6940911054872919e+06 -1.0803877421489981e+08 
-6.7999999999999918e+00 -1.0323677459760903e+00 +2.3029610598722838e+00 +1.7048232805658955e+01 -2.2414738316244899e+02 +4.0953036340781349e+04 +1.7004102532927089e+06 -1.2785293629931335e+08 
-6.8999999999999915e+00 -1.0323657999869806e+00 +2.3031297158670312e+00 +1.6793850169563136e+01 -2.2531724340664968e+02 +4.5572807348660644e+04 +1.7051356307762247e+06 -1.4714902256269249e+08 
-6.9999999999999911e+00 -1.0323639649325145e+00 +2.3032862727800394e+00 +1.6546968731272106e+01 -2.2619970891662393e+02 +5.0066532215679770e+04 +1.7079337063075576e+06 -1.6591884534871647e+08 
-7.0999999999999908e+00 -1.0323622376632402e+00 +2.3034279201430112e+00 +1.6307744396171191e+01 -2.2673992801576333e+02 +5.4430734982135502e+04 +1.7084708176073907e+06 -1.8415424193819275e+08 
-7.1999999999999904e+00 -1.0323606150279496e+00 +2.3035518469628138e+00 +1.6076332856387427e+01 -2.2688302809510114e+02 +5.8661944243897313e+04 +1.7064131668884757e+06 -2.0184707324964800e+08 
-7.2999999999999901e+00 -1.0323590938734954e+00 +2.3036552417206733e+00 +1.5852889566816692e+01 -2.2657411542898009e+02 +6.2756693632050003e+04 +1.7014268194614404e+06 -2.1898922620466241e+08 
-7.3999999999999897e+00 -1.0323576710447941e+00 +2.3037352923404986e+00 +1.5637569746722296e+01 -2.2575827405881108e+02 +6.6711521794949265e+04 +1.6931776967697782e+06 -2.3557261370063177e+08 
-7.4999999999999893e+00 -1.0323563433845249e+00 +2.3037891861683226e+00 +1.5430528336670410e+01 -2.2438056590271657e+02 +7.0522973229574782e+04 +1.6813315920339718e+06 -2.5158917740783337e+08 
-7.5999999999999890e+00 -1.0323551070076376e+00 +2.3038147212389117e+00 +1.5231791778940488e+01 -2.2239747493895564e+02 +7.4190003324658115e+04 +1.6656321546603504e+06 -2.6703975856806707e+08 
-7.6999999999999886e+00 -1.0323539556492711e+00 +2.3038122949100255e+00 +1.5040889103841367e+01 -2.1981269295224968e+02 +7.7720766817317082e+04 +1.6461125857583268e+06 -2.8196020159958690e+08 
-7.7999999999999883e+00 -1.0323528825542763e+00 +2.3037829961288470e+00 +1.4857224266233469e+01 -2.1664212447878165e+02 +8.1125696426705559e+04 +1.6228744119826963e+06 -2.9639524634743667e+08 
-7.8999999999999879e+00 -1.0323518809677863e+00 +2.3037279141763474e+00 +1.4680201243482475e+01 -2.1290168511934894e+02 +8.4415224259270486e+04 +1.5960192325393090e+06 -3.1038962898979694e+08 
-7.9999999999999876e+00 -1.0323509441353405e+00 +2.3036481386480312e+00 +1.4509224054987753e+01 -2.0860730164379979e+02 +8.7599781472823743e+04 +1.5656487213695839e+06 -3.2398808055213928e+08 
-8.0999999999999872e+00 -1.0323500653027977e+00 +2.3035447594797298e+00 +1.4343696750455949e+01 -2.0377491286931024e+02 +9.0689798500668621e+04 +1.5318646327561438e+06 -3.3723532797361398e+08 
-8.1999999999999869e+00 -1.0323492377165189e+00 +2.3034188669575482e+00 +1.4183023433594661e+01 -1.9842047001567738e+02 +9.3695704578332952e+04 +1.4947688036911807e+06 -3.5017609177488720e+08 
-8.2999999999999865e+00 -1.0323484546232531e+00 +2.3032715517323439e+00 +1.4026608246975574e+01 -1.9255993725080626e+02 +9.6627928035571429e+04 +1.4544631575565946e+06 -3.6285508745626998e+08 
-8.3999999999999861e+00 -1.0323477092702140e+00 +2.3031039048391273e+00 +1.3873855381083798e+01 -1.8620929234255112e+02 +9.9496896113428942e+04 +1.4110497082805228e+06 -3.7531702458581507e+08 
-8.4999999999999858e+00 -1.0323469949050836e+00 +2.3029170177030243e+00 +1.3724169075394929e+01 -1.7938452693638808e+02 +1.0231303493250387e+05 +1.3646305623876872e+06 -3.8760660660848528e+08 
-8.5999999999999854e+00 -1.0323463047760912e+00 +2.3027119821630411e+00 +1.3576953626765226e+01 -1.7210164733772075e+02 +1.0508676933235534e+05 +1.3153079239396595e+06 -3.9976853006896293e+08 
-8.6999999999999851e+00 -1.0323456321319542e+00 +2.3024898904797984e+00 +1.3431613383248383e+01 -1.6437667483827275e+02 +1.0782852297364629e+05 +1.2631840968456783e+06 -4.1184748504857332e+08 
-8.7999999999999847e+00 -1.0323449702219594e+00 +2.3022518353526360e+00 +1.3287552752333154e+01 -1.5622564632152276e+02 +1.1054871818268263e+05 +1.2083614888300863e+06 -4.2388815441600770e+08 
-8.8999999999999844e+00 -1.0323443122959517e+00 +2.3019989099352998e+00 +1.3144176201090072e+01 -1.4766461480065951e+02 +1.1325777593160004e+05 +1.1509426149212313e+06 -4.3593521368178868e+08 
-8.9999999999999840e+00 -1.0323436516044056e+00 +2.3017322078496734e+00 +1.3000888263448713e+01 -1.3870964993642198e+02 +1.1596611569871199e+05 +1.0910301009329567e+06 -4.4803333031688315e+08 
-9.0999999999999837e+00 -1.0323429813983487e+00 +2.3014528232014655e+00 +1.2857093530526159e+01 -1.2937683857272154e+02 +1.1868415564424355e+05 +1.0287266869328524e+06 -4.6022716455809420e+08 
-9.1999999999999833e+00 -1.0323422949295176e+00 +2.3011618505911562e+00 +1.2712196670845966e+01 -1.1968228516681242e+02 +1.2142231221540386e+05 +9.6413523019669217e+05 -4.7256136749491102e+08 
-9.2999999999999829e+00 -1.0323415854502662e+00 +2.3008603851323102e+00 +1.2565602417449989e+01 -1.0964211241907263e+02 +1.2419100038671160e+05 +8.9735870928046643e+05 -4.8508058218633401e+08 
-9.3999999999999826e+00 -1.0323408462136543e+00 +2.3005495224641752e+00 +1.2416715579201677e+01 -9.9272461730838913e+01 +1.2700063343684073e+05 +8.2850022706273838e+05 -4.9782944256937051e+08 
-9.4999999999999822e+00 -1.0323400704735424e+00 +2.3002303588295940e+00 +1.2264941061012415e+01 -8.8589496237746701e+01 +1.2986162239415980e+05 +7.5766302685251296e+05 -5.1085257060588461e+08 
-9.5999999999999819e+00 -1.0323392534964868e+00 +2.2999040309719812e+00 +1.2109846380795485e+01 -7.7614203524677137e+01 +1.3278164652981484e+05 +6.8498229997026373e+05 -5.2418269772545117e+08 
-9.6999999999999815e+00 -1.0323383986605863e+00 +2.2995717158075202e+00 +1.1951655415977958e+01 -6.6384228912786327e+01 +1.3575780360420828e+05 +6.1071228897947818e+05 -5.3780771469477987e+08 
-9.7999999999999812e+00 -1.0323375114105140e+00 +2.2992345745412188e+00 +1.1790761703357687e+01 -5.4941056736957222e+01 +1.3878455168509236e+05 +5.3513694885391393e+05 -5.5170461997904181e+08 
-9.8999999999999808e+00 -1.0323365971922096e+00 +2.2988937681268449e+00 +1.1627558970347829e+01 -4.3326166267865723e+01 +1.4185634498265074e+05 +4.5854021032509464e+05 -5.6585039336955070e+08 
-9.9999999999999805e+00 -1.0323356614527408e+00 +2.2985504572774951e+00 +1.1462441115671954e+01 -3.1581030905712339e+01 +1.4496763409967933e+05 +3.8120597226469457e+05 -5.8022199676827002e+08 
-1.0099999999999980e+01 -1.0323347096402873e+00 +2.2982058024625118e+00 +1.1295802206813898e+01 -1.9747118170358963e+01 +1.4811286607740485e+05 +3.0341810181205370e+05 -5.9479637440385199e+08 
