# field on trajectory
# s[mm] rx[mm] ry[mm] rz[mm] bx[T] by[T] bz[T]
0.0000000000000000e+00 +9.0749999999999993e+00 +0.0000000000000000e+00 +0.0000000000000000e+00 +1.0247635084489360e-02 -1.0334736516469007e+00 -5.8596941977046568e-02
-1.0000000000000001e-01 +9.0749994836207879e+00 +0.0000000000000000e+00 -9.9999999998222344e-02 +1.0247825812750735e-02 -1.0334727637847319e+00 -5.8595486741655621e-02
-2.0000000000000001e-01 +9.0749979344837470e+00 +0.0000000000000000e+00 -1.9999999998577883e-01 +1.0248024367123918e-02 -1.0334718825278908e+00 -5.8594056957510771e-02
-3.0000000000000004e-01 +9.0749953525897560e+00 +0.0000000000000000e+00 -2.9999999995200355e-01 +1.0248230233040178e-02 -1.0334710052918485e+00 -5.8592652950107786e-02
-4.0000000000000002e-01 +9.0749917379396923e+00 +0.0000000000000000e+00 -3.9999999988623069e-01 +1.0248442895920789e-02 -1.0334701294922168e+00 -5.8591275045094565e-02
-5.0000000000000000e-01 +9.0749870905344316e+00 +0.0000000000000000e+00 -4.9999999977779441e-01 +1.0248661841165494e-02 -1.0334692525447304e+00 -5.8589923568265458e-02
-5.9999999999999998e-01 +9.0749814103748498e+00 +0.0000000000000000e+00 -5.9999999961602890e-01 +1.0248886554140980e-02 -1.0334683718652333e+00 -5.8588598845555492e-02
-6.9999999999999996e-01 +9.0749746974618297e+00 +0.0000000000000000e+00 -6.9999999939026847e-01 +1.0249116520169358e-02 -1.0334674848696579e+00 -5.8587301203034722e-02
-7.9999999999999993e-01 +9.0749669517962577e+00 +0.0000000000000000e+00 -7.9999999908984742e-01 +1.0249351224516631e-02 -1.0334665889740142e+00 -5.8586030966902625e-02
-8.9999999999999991e-01 +9.0749581733790308e+00 +0.0000000000000000e+00 -8.9999999870409997e-01 +1.0249590152381144e-02 -1.0334656815943697e+00 -5.8584788463482224e-02
-9.9999999999999989e-01 +9.0749483622110567e+00 +0.0000000000000000e+00 -9.9999999822236052e-01 +1.0249832788882090e-02 -1.0334647601468330e+00 -5.8583574019214525e-02
-1.0999999999999999e+00 +9.0749375182932575e+00 +0.0000000000000000e+00 -1.0999999976339634e+00 +1.0250078619047963e-02 -1.0334638220475398e+00 -5.8582387960652807e-02
-1.2000000000000000e+00 +9.0749256416265709e+00 +0.0000000000000000e+00 -1.1999999969282429e+00 +1.0250327127805025e-02 -1.0334628647126352e+00 -5.8581230614456817e-02
-1.3000000000000000e+00 +9.0749127322119563e+00 +0.0000000000000000e+00 -1.2999999960945336e+00 +1.0250577799965787e-02 -1.0334618855582560e+00 -5.8580102307387166e-02
-1.4000000000000001e+00 +9.0748987900503923e+00 +0.0000000000000000e+00 -1.3999999951221698e+00 +1.0250830120217470e-02 -1.0334608820005180e+00 -5.8579003366299669e-02
-1.5000000000000002e+00 +9.0748838151428846e+00 +0.0000000000000000e+00 -1.4999999940004860e+00 +1.0251083573110498e-02 -1.0334598514554951e+00 -5.8577934118139489e-02
-1.6000000000000003e+00 +9.0748678074904650e+00 +0.0000000000000000e+00 -1.5999999927188169e+00 +1.0251337692810180e-02 -1.0334587918040341e+00 -5.8576894598762655e-02
-1.7000000000000004e+00 +9.0748507670941940e+00 +0.0000000000000000e+00 -1.6999999912664969e+00 +1.0251592212424502e-02 -1.0334577027862271e+00 -5.8575883679386841e-02
-1.8000000000000005e+00 +9.0748326939551625e+00 +0.0000000000000000e+00 -1.7999999896328607e+00 +1.0251846914799894e-02 -1.0334565846069359e+00 -5.8574899940056997e-02
-1.9000000000000006e+00 +9.0748135880744876e+00 +0.0000000000000000e+00 -1.8999999878072429e+00 +1.0252101582780272e-02 -1.0334554374709579e+00 -5.8573941960796128e-02
-2.0000000000000004e+00 +9.0747934494533187e+00 +0.0000000000000000e+00 -1.9999999857789781e+00 +1.0252355999218041e-02 -1.0334542615830113e+00 -5.8573008321588509e-02
-2.1000000000000005e+00 +9.0747722780928335e+00 +0.0000000000000000e+00 -2.0999999835374012e+00 +1.0252609946985165e-02 -1.0334530571477245e+00 -5.8572097602362858e-02
-2.2000000000000006e+00 +9.0747500739942382e+00 +0.0000000000000000e+00 -2.1999999810718469e+00 +1.0252863208984135e-02 -1.0334518243696260e+00 -5.8571208382975588e-02
-2.3000000000000007e+00 +9.0747268371587655e+00 +0.0000000000000000e+00 -2.2999999783716500e+00 +1.0253115568159034e-02 -1.0334505634531319e+00 -5.8570339243194124e-02
-2.4000000000000008e+00 +9.0747025675876802e+00 +0.0000000000000000e+00 -2.3999999754261454e+00 +1.0253366807506530e-02 -1.0334492746025348e+00 -5.8569488762679936e-02
-2.5000000000000009e+00 +9.0746772652822703e+00 +0.0000000000000000e+00 -2.4999999722246677e+00 +1.0253616710086925e-02 -1.0334479580219911e+00 -5.8568655520971971e-02
-2.6000000000000010e+00 +9.0746509302438554e+00 +0.0000000000000000e+00 -2.5999999687565523e+00 +1.0253865059035147e-02 -1.0334466139155116e+00 -5.8567838097469772e-02
-2.7000000000000011e+00 +9.0746235624737821e+00 +0.0000000000000000e+00 -2.6999999650111337e+00 +1.0254111637571801e-02 -1.0334452424869480e+00 -5.8567035071416695e-02
-2.8000000000000012e+00 +9.0745951619734235e+00 +0.0000000000000000e+00 -2.7999999609777473e+00 +1.0254356229014177e-02 -1.0334438439399827e+00 -5.8566245021883206e-02
-2.9000000000000012e+00 +9.0745657287441794e+00 +0.0000000000000000e+00 -2.8999999566457277e+00 +1.0254598616787271e-02 -1.0334424184781177e+00 -5.8565466527750083e-02
-3.0000000000000013e+00 +9.0745352627874780e+00 +0.0000000000000000e+00 -2.9999999520044107e+00 +1.0254838584434803e-02 -1.0334409663046609e+00 -5.8564698167691630e-02
-3.1000000000000014e+00 +9.0745037641047723e+00 +0.0000000000000000e+00 -3.0999999470431310e+00 +1.0255075915630258e-02 -1.0334394876227175e+00 -5.8563938520158947e-02
-3.2000000000000015e+00 +9.0744712326975456e+00 +0.0000000000000000e+00 -3.1999999417512242e+00 +1.0255310394187882e-02 -1.0334379826351763e+00 -5.8563186163363180e-02
-3.3000000000000016e+00 +9.0744376685673043e+00 +0.0000000000000000e+00 -3.2999999361180254e+00 +1.0255541804073714e-02 -1.0334364515446992e+00 -5.8562439675258683e-02
-3.4000000000000017e+00 +9.0744030717155812e+00 +0.0000000000000000e+00 -3.3999999301328701e+00 +1.0255769929416634e-02 -1.0334348945537106e+00 -5.8561697633526352e-02
-3.5000000000000018e+00 +9.0743674421439362e+00 +0.0000000000000000e+00 -3.4999999237850936e+00 +1.0255994554519317e-02 -1.0334333118643839e+00 -5.8560958615556824e-02
-3.6000000000000019e+00 +9.0743307798539554e+00 +0.0000000000000000e+00 -3.5999999170640313e+00 +1.0256215467653452e-02 -1.0334317029852571e+00 -5.8560221609807665e-02
-3.7000000000000020e+00 +9.0742930848472501e+00 +0.0000000000000000e+00 -3.6999999099590188e+00 +1.0256432472385620e-02 -1.0334300646507646e+00 -5.8559487250009694e-02
-3.8000000000000020e+00 +9.0742543571254632e+00 +0.0000000000000000e+00 -3.7999999024593918e+00 +1.0256645376166881e-02 -1.0334283929007437e+00 -5.8558756581206545e-02
-3.9000000000000021e+00 +9.0742145966902683e+00 +0.0000000000000000e+00 -3.8999998945544863e+00 +1.0256853986542972e-02 -1.0334266837736565e+00 -5.8558030648405354e-02
-4.0000000000000018e+00 +9.0741738035433777e+00 +0.0000000000000000e+00 -3.9999998862336374e+00 +1.0257058111157617e-02 -1.0334249333065084e+00 -5.8557310496580112e-02
-4.1000000000000014e+00 +9.0741319776865463e+00 +0.0000000000000000e+00 -4.0999998774861810e+00 +1.0257257557755875e-02 -1.0334231375347704e+00 -5.8556597170674934e-02
-4.2000000000000011e+00 +9.0740891191215738e+00 +0.0000000000000000e+00 -4.1999998683014530e+00 +1.0257452134187450e-02 -1.0334212924922999e+00 -5.8555891715607385e-02
-4.3000000000000007e+00 +9.0740452278503074e+00 +0.0000000000000000e+00 -4.2999998586687900e+00 +1.0257641648410037e-02 -1.0334193942112602e+00 -5.8555195176271675e-02
-4.4000000000000004e+00 +9.0740003038746497e+00 +0.0000000000000000e+00 -4.3999998485775276e+00 +1.0257825908492644e-02 -1.0334174387220434e+00 -5.8554508597542028e-02
-4.5000000000000000e+00 +9.0739543471965600e+00 +0.0000000000000000e+00 -4.4999998380170014e+00 +1.0258004722618935e-02 -1.0334154220531897e+00 -5.8553833024275914e-02
-4.5999999999999996e+00 +9.0739073578180598e+00 +0.0000000000000000e+00 -4.5999998269765481e+00 +1.0258177899090545e-02 -1.0334133402313088e+00 -5.8553169501317358e-02
-4.6999999999999993e+00 +9.0738593357412327e+00 +0.0000000000000000e+00 -4.6999998154455040e+00 +1.0258345246330451e-02 -1.0334111892810012e+00 -5.8552519073500141e-02
-4.7999999999999989e+00 +9.0738102809682353e+00 +0.0000000000000000e+00 -4.7999998034132050e+00 +1.0258506572886265e-02 -1.0334089652247780e+00 -5.8551882785651196e-02
-4.8999999999999986e+00 +9.0737601935012950e+00 +0.0000000000000000e+00 -4.8999997908689883e+00 +1.0258661687433609e-02 -1.0334066640829815e+00 -5.8551261682593780e-02
-4.9999999999999982e+00 +9.0737090733427177e+00 +0.0000000000000000e+00 -4.9999997778021896e+00 +1.0258810398779445e-02 -1.0334042818737075e+00 -5.8550656809150781e-02
-5.0999999999999979e+00 +9.0736569204948889e+00 +0.0000000000000000e+00 -5.0999997642021464e+00 +1.0258952515865416e-02 -1.0334018146127240e+00 -5.8550069210148069e-02
-5.1999999999999975e+00 +9.0736037349602814e+00 +0.0000000000000000e+00 -5.1999997500581951e+00 +1.0259087847771188e-02 -1.0333992583133937e+00 -5.8549499930417553e-02
-5.2999999999999972e+00 +9.0735495167414548e+00 +0.0000000000000000e+00 -5.2999997353596733e+00 +1.0259216203717806e-02 -1.0333966089865940e+00 -5.8548950014800746e-02
-5.3999999999999968e+00 +9.0734942658410631e+00 +0.0000000000000000e+00 -5.3999997200959182e+00 +1.0259337393071027e-02 -1.0333938626406376e+00 -5.8548420508151774e-02
-5.4999999999999964e+00 +9.0734379822618560e+00 +0.0000000000000000e+00 -5.4999997042562665e+00 +1.0259451225344701e-02 -1.0333910152811929e+00 -5.8547912455340766e-02
-5.5999999999999961e+00 +9.0733806660066865e+00 +0.0000000000000000e+00 -5.5999996878300555e+00 +1.0259557599037659e-02 -1.0333880632691901e+00 -5.8547426565915349e-02
-5.6999999999999957e+00 +9.0733223170785084e+00 +0.0000000000000000e+00 -5.6999996708066227e+00 +1.0259656767976086e-02 -1.0333850043953559e+00 -5.8546962208031829e-02
-5.7999999999999954e+00 +9.0732629354803880e+00 +0.0000000000000000e+00 -5.7999996531753055e+00 +1.0259749074516038e-02 -1.0333818368073293e+00 -5.8546518414426825e-02
-5.8999999999999950e+00 +9.0732025212154959e+00 +0.0000000000000000e+00 -5.8999996349254422e+00 +1.0259834860649573e-02 -1.0333785586518314e+00 -5.8546094217755210e-02
-5.9999999999999947e+00 +9.0731410742871130e+00 +0.0000000000000000e+00 -5.9999996160463711e+00 +1.0259914467986164e-02 -1.0333751680746743e+00 -5.8545688650588810e-02
-6.0999999999999943e+00 +9.0730785946986359e+00 +0.0000000000000000e+00 -6.0999995965274296e+00 +1.0259988237734117e-02 -1.0333716632207632e+00 -5.8545300745414974e-02
-6.1999999999999940e+00 +9.0730150824535745e+00 +0.0000000000000000e+00 -6.1999995763579570e+00 +1.0260056510681962e-02 -1.0333680422341072e+00 -5.8544929534635366e-02
-6.2999999999999936e+00 +9.0729505375555526e+00 +0.0000000000000000e+00 -6.2999995555272914e+00 +1.0260119627179886e-02 -1.0333643032578221e+00 -5.8544574050564638e-02
-6.3999999999999932e+00 +9.0728849600083148e+00 +0.0000000000000000e+00 -6.3999995340247713e+00 +1.0260177927121108e-02 -1.0333604444341378e+00 -5.8544233325428935e-02
-6.4999999999999929e+00 +9.0728183498157229e+00 +0.0000000000000000e+00 -6.4999995118397358e+00 +1.0260231749923285e-02 -1.0333564639044048e+00 -5.8543906391364753e-02
-6.5999999999999925e+00 +9.0727507069817630e+00 +0.0000000000000000e+00 -6.5999994889615241e+00 +1.0260281434509935e-02 -1.0333523598091006e+00 -5.8543592280417556e-02
-6.6999999999999922e+00 +9.0726820315105439e+00 +0.0000000000000000e+00 -6.6999994653794754e+00 +1.0260327319291773e-02 -1.0333481302878349e+00 -5.8543290024540402e-02
-6.7999999999999918e+00 +9.0726123234063003e+00 +0.0000000000000000e+00 -6.7999994410829290e+00 +1.0260369742148173e-02 -1.0333437734793580e+00 -5.8542998655592676e-02
-6.8999999999999915e+00 +9.0725415826733933e+00 +0.0000000000000000e+00 -6.8999994160612248e+00 +1.0260409040408478e-02 -1.0333392875215655e+00 -5.8542717205338796e-02
-6.9999999999999911e+00 +9.0724698093163116e+00 +0.0000000000000000e+00 -6.9999993903037030e+00 +1.0260445550833436e-02 -1.0333346705515047e+00 -5.8542444705446804e-02
-7.0999999999999908e+00 +9.0723970033396792e+00 +0.0000000000000000e+00 -7.0999993637997036e+00 +1.0260479609596569e-02 -1.0333299207053828e+00 -5.8542180187487108e-02
-7.1999999999999904e+00 +9.0723231647482496e+00 +0.0000000000000000e+00 -7.1999993365385677e+00 +1.0260511552265525e-02 -1.0333250361185708e+00 -5.8541922682931187e-02
-7.2999999999999901e+00 +9.0722482935469113e+00 +0.0000000000000000e+00 -7.2999993085096353e+00 +1.0260541713783452e-02 -1.0333200149256132e+00 -5.8541671223150168e-02
-7.3999999999999897e+00 +9.0721723897406914e+00 +0.0000000000000000e+00 -7.3999992797022482e+00 +1.0260570428450399e-02 -1.0333148552602303e+00 -5.8541424839413679e-02
-7.4999999999999893e+00 +9.0720954533347538e+00 +0.0000000000000000e+00 -7.4999992501057466e+00 +1.0260598029904632e-02 -1.0333095552553280e+00 -5.8541182562888330e-02
-7.5999999999999890e+00 +9.0720174843344026e+00 +0.0000000000000000e+00 -7.5999992197094723e+00 +1.0260624794155017e-02 -1.0333041170580433e+00 -5.8540943700219755e-02
-7.6999999999999886e+00 +9.0719384827450789e+00 +0.0000000000000000e+00 -7.6999991885027672e+00 +1.0260650769056327e-02 -1.0332985588781192e+00 -5.8540708660430554e-02
-7.7999999999999883e+00 +9.0718584485723426e+00 +0.0000000000000000e+00 -7.7999991564749740e+00 +1.0260675945761374e-02 -1.0332929029478239e+00 -5.8540478128381909e-02
-7.8999999999999879e+00 +9.0717773818218550e+00 +0.0000000000000000e+00 -7.8999991236154345e+00 +1.0260700315772815e-02 -1.0332871715077336e+00 -5.8540252789219760e-02
-7.9999999999999876e+00 +9.0716952824993484e+00 +0.0000000000000000e+00 -7.9999990899134907e+00 +1.0260723870958487e-02 -1.0332813868070221e+00 -5.8540033328385657e-02
-8.0999999999999872e+00 +9.0716121506106102e+00 +0.0000000000000000e+00 -8.0999990553584862e+00 +1.0260746603566875e-02 -1.0332755711037496e+00 -5.8539820431627809e-02
-8.1999999999999869e+00 +9.0715279861614597e+00 +0.0000000000000000e+00 -8.1999990199397637e+00 +1.0260768506242437e-02 -1.0332697466651555e+00 -5.8539614785011976e-02
-8.2999999999999865e+00 +9.0714427891577252e+00 +0.0000000000000000e+00 -8.2999989836466650e+00 +1.0260789572041042e-02 -1.0332639357679476e+00 -5.8539417074932459e-02
-8.3999999999999861e+00 +9.0713565596052206e+00 +0.0000000000000000e+00 -8.3999989464685356e+00 +1.0260809794445339e-02 -1.0332581606985900e+00 -5.8539227988123048e-02
-8.4999999999999858e+00 +9.0712692975097244e+00 +0.0000000000000000e+00 -8.4999989083947174e+00 +1.0260829167380185e-02 -1.0332524437535975e+00 -5.8539048211667950e-02
-8.5999999999999854e+00 +9.0711810028769566e+00 +0.0000000000000000e+00 -8.5999988694145539e+00 +1.0260847685228036e-02 -1.0332468072398207e+00 -5.8538878433012774e-02
-8.6999999999999851e+00 +9.0710916757125570e+00 +0.0000000000000000e+00 -8.6999988295173907e+00 +1.0260865342844348e-02 -1.0332412734747412e+00 -5.8538719339975454e-02
-8.7999999999999847e+00 +9.0710013160220626e+00 +0.0000000000000000e+00 -8.7999987886925695e+00 +1.0260882135573001e-02 -1.0332358647867568e+00 -5.8538571620757263e-02
-8.8999999999999844e+00 +9.0709099238108877e+00 +0.0000000000000000e+00 -8.8999987469294357e+00 +1.0260898059261715e-02 -1.0332306035154761e+00 -5.8538435963953674e-02
-8.9999999999999840e+00 +9.0708174990842974e+00 +0.0000000000000000e+00 -8.9999987042173313e+00 +1.0260913110277461e-02 -1.0332255120120033e+00 -5.8538313058565439e-02
-9.0999999999999837e+00 +9.0707240418473862e+00 +0.0000000000000000e+00 -9.0999986605456016e+00 +1.0260927285521889e-02 -1.0332206126392329e+00 -5.8538203594009373e-02
-9.1999999999999833e+00 +9.0706295521050606e+00 +0.0000000000000000e+00 -9.1999986159035902e+00 +1.0260940582446740e-02 -1.0332159277721376e+00 -5.8538108260129500e-02
-9.2999999999999829e+00 +9.0705340298620083e+00 +0.0000000000000000e+00 -9.2999985702806409e+00 +1.0260952999069303e-02 -1.0332114797980563e+00 -5.8538027747207858e-02
-9.3999999999999826e+00 +9.0704374751226844e+00 +0.0000000000000000e+00 -9.3999985236660972e+00 +1.0260964533987822e-02 -1.0332072911169872e+00 -5.8537962745975544e-02
-9.4999999999999822e+00 +9.0703398878912811e+00 +0.0000000000000000e+00 -9.4999984760493028e+00 +1.0260975186396949e-02 -1.0332033841418760e+00 -5.8537913947623588e-02
-9.5999999999999819e+00 +9.0702412681717117e+00 +0.0000000000000000e+00 -9.5999984274196013e+00 +1.0260985099755543e-02 -1.0331997777390887e+00 -5.8537881886713945e-02
-9.6999999999999815e+00 +9.0701416159675912e+00 +0.0000000000000000e+00 -9.6999983777663363e+00 +1.0260994992596502e-02 -1.0331964765441364e+00 -5.8537866469729208e-02
-9.7999999999999812e+00 +9.0700409312822288e+00 +0.0000000000000000e+00 -9.7999983270788498e+00 +1.0261005727234498e-02 -1.0331934816337713e+00 -5.8537867446161948e-02
-9.8999999999999808e+00 +9.0699392141186284e+00 +0.0000000000000000e+00 -9.8999982753464852e+00 +1.0261018166054578e-02 -1.0331907940849703e+00 -5.8537884565597248e-02
-9.9999999999999805e+00 +9.0698364644794864e+00 +0.0000000000000000e+00 -9.9999982225585846e+00 +1.0261033171512803e-02 -1.0331884149748807e+00 -5.8537917577713386e-02
-1.0099999999999980e+01 +9.0697326823671904e+00 +0.0000000000000000e+00 -1.0099998168704492e+01 +1.0261051606136865e-02 -1.0331863453807597e+00 -5.8537966232282447e-02
-1.0199999999999980e+01 +9.0696278677838205e+00 +0.0000000000000000e+00 -1.0199998113773548e+01 +1.0261074332526687e-02 -1.0331845863799163e+00 -5.8538030279171094e-02
-1.0299999999999979e+01 +9.0695220207311458e+00 +0.0000000000000000e+00 -1.0299998057755095e+01 +1.0261102213355071e-02 -1.0331831390496560e+00 -5.8538109468341183e-02
-1.0399999999999979e+01 +9.0694151412106230e+00 +0.0000000000000000e+00 -1.0399998000638476e+01 +1.0261136111368283e-02 -1.0331820044672231e+00 -5.8538203549850433e-02
-1.0499999999999979e+01 +9.0693072292233960e+00 +0.0000000000000000e+00 -1.0499997942413030e+01 +1.0261176889386665e-02 -1.0331811837097395e+00 -5.8538312273853123e-02
-1.0599999999999978e+01 +9.0691982847702981e+00 +0.0000000000000000e+00 -1.0599997883068099e+01 +1.0261225410305231e-02 -1.0331806778541508e+00 -5.8538435390600767e-02
-1.0699999999999978e+01 +9.0690883078518461e+00 +0.0000000000000000e+00 -1.0699997822593023e+01 +1.0261282537094282e-02 -1.0331804879771667e+00 -5.8538572650442787e-02
-1.0799999999999978e+01 +9.0689772984682406e+00 +0.0000000000000000e+00 -1.0799997760977144e+01 +1.0261349132799981e-02 -1.0331806151552019e+00 -5.8538723803827172e-02
-1.0899999999999977e+01 +9.0688652566193682e+00 +0.0000000000000000e+00 -1.0899997698209800e+01 +1.0261426060544939e-02 -1.0331810604643203e+00 -5.8538888601301166e-02
-1.0999999999999977e+01 +9.0687521823047934e+00 +0.0000000000000000e+00 -1.0999997634280332e+01 +1.0261514183528822e-02 -1.0331818249801752e+00 -5.8539066793511993e-02
-1.1099999999999977e+01 +9.0686380755237650e+00 +0.0000000000000000e+00 -1.1099997569178079e+01 +1.0261614365028902e-02 -1.0331829097779524e+00 -5.8539258131207382e-02
-1.1199999999999976e+01 +9.0685229362752118e+00 +0.0000000000000000e+00 -1.1199997502892380e+01 +1.0261727468400652e-02 -1.0331843159323113e+00 -5.8539462365236432e-02
-1.1299999999999976e+01 +9.0684067645577393e+00 +0.0000000000000000e+00 -1.1299997435412573e+01 +1.0261854357078309e-02 -1.0331860445173271e+00 -5.8539679246550208e-02
-1.1399999999999975e+01 +9.0682895603696334e+00 +0.0000000000000000e+00 -1.1399997366727996e+01 +1.0261995894575436e-02 -1.0331880966064324e+00 -5.8539908526202361e-02
-1.1499999999999975e+01 +9.0681713237088566e+00 +0.0000000000000000e+00 -1.1499997296827988e+01 +1.0262152944485493e-02 -1.0331904732723589e+00 -5.8540149955349882e-02
-1.1599999999999975e+01 +9.0680520545730463e+00 +0.0000000000000000e+00 -1.1599997225701886e+01 +1.0262325913015579e-02 -1.0331931713838756e+00 -5.8540403463762471e-02
-1.1699999999999974e+01 +9.0679317529595185e+00 +0.0000000000000000e+00 -1.1699997153339025e+01 +1.0262513376288435e-02 -1.0331961709922579e+00 -5.8540669695174914e-02
