# multipoles
# s[mm] polynom_b[n=0][T/m^n] polynom_b[n=1][T/m^n] polynom_b[n=2][T/m^n] polynom_b[n=3][T/m^n] polynom_b[n=4][T/m^n] polynom_b[n=5][T/m^n] polynom_b[n=6][T/m^n] 
+0.0000000000000000e+00 -1.0326299355214563e+00 +2.2856857569581326e+00 +1.6680954898525069e+01 +2.5827831648477036e+02 +5.6411060634790490e+04 -6.3084533410820679e+05 -1.9278604078830740e+08 
-1.0000000000000001e-01 -1.0326274438139380e+00 +2.2853800262698249e+00 +1.6593710883064499e+01 +2.7512945342738448e+02 +5.8382830458535558e+04 -7.3240877899753954e+05 -2.0306029382203296e+08 
-2.0000000000000001e-01 -1.0326249628208968e+00 +2.2850649479303966e+00 +1.6504615756507679e+01 +2.9245128495651971e+02 +6.0404051452549880e+04 -8.3712563865020161e+05 -2.1360552189525560e+08 
-3.0000000000000004e-01 -1.0326224933240038e+00 +2.2847383487316946e+00 +1.6414026571874608e+01 +3.1025256473456409e+02 +6.2467625044468157e+04 -9.4494917160361202e+05 -2.2438584483817992e+08 
-4.0000000000000002e-01 -1.0326200361047992e+00 +2.2843980554979075e+00 +1.6322300364656922e+01 +3.2854204481006826e+02 +6.4566452969308913e+04 -1.0558326234840185e+06 -2.3536538373706648e+08 
-5.0000000000000000e-01 -1.0326175919446996e+00 +2.2840418950922468e+00 +1.6229794157803699e+01 +3.4732847539956543e+02 +6.6693437142284252e+04 -1.1697292257223064e+06 -2.4650826023736945e+08 
-5.9999999999999998e-01 -1.0326151616249806e+00 +2.2836676944068999e+00 +1.6136864963003728e+01 +3.6662060519203004e+02 +6.8841479615517965e+04 -1.2865921974144066e+06 -2.5777859629184103e+08 
-6.9999999999999996e-01 -1.0326127459267285e+00 +2.2832732803661409e+00 +1.6043869777950682e+01 +3.8642718124123559e+02 +7.1003482604094082e+04 -1.4063747446972562e+06 -2.6914051421095484e+08 
-7.9999999999999993e-01 -1.0326103456308839e+00 +2.2828564799323794e+00 +1.5951165595014931e+01 +4.0675694878015599e+02 +7.3172348298094235e+04 -1.5290300597018101e+06 -2.8055813570734864e+08 
-8.9999999999999991e-01 -1.0326079615182542e+00 +2.2824151200967595e+00 +1.5859109406512678e+01 +4.2761865150901770e+02 +7.5340978741374565e+04 -1.6545113223108328e+06 -2.9199558126460737e+08 
-9.9999999999999989e-01 -1.0326055943694066e+00 +2.2819470278846210e+00 +1.5768058194745011e+01 +4.4902103141095591e+02 +7.7502275992220370e+04 -1.7827716990866831e+06 -3.0341697082110792e+08 
-1.0999999999999999e+00 -1.0326032449647615e+00 +2.2814500303531711e+00 +1.5678368946412387e+01 +4.7097282881890101e+02 +7.9649141834938942e+04 -1.9137643436938175e+06 -3.1478642236304373e+08 
-1.2000000000000000e+00 -1.0326009140845831e+00 +2.2809219545994979e+00 +1.5590398655705076e+01 +4.9348278218384502e+02 +8.1774477686408922e+04 -2.0474423956132475e+06 -3.2606805138124979e+08 
-1.3000000000000000e+00 -1.0325986025088529e+00 +2.2803606277465676e+00 +1.5504504311516351e+01 +5.1655962846990190e+02 +8.3871184825232747e+04 -2.1837589824662274e+06 -3.3722597192987293e+08 
-1.4000000000000001e+00 -1.0325963110174150e+00 +2.2797638769524129e+00 +1.5421042918945185e+01 +5.4021210288442205e+02 +8.5932163954171556e+04 -2.3226672184851072e+06 -3.4822429446272826e+08 
-1.5000000000000002e+00 -1.0325940403899025e+00 +2.2791295294118452e+00 +1.5340371493234512e+01 +5.6444893882389545e+02 +8.7950315296176981e+04 -2.4641202042322843e+06 -3.5902712624085814e+08 
-1.6000000000000003e+00 -1.0325917911697939e+00 +2.2784563953342913e+00 +1.5262781795944170e+01 +5.8926374395399125e+02 +8.9919671119124076e+04 -2.6080080379825658e+06 -3.6960399103698587e+08 
-1.7000000000000004e+00 -1.0325895627846664e+00 +2.2777472410369173e+00 +1.5188261820255375e+01 +6.1458918336289662e+02 +9.1839569834425449e+04 -2.7539655935885143e+06 -3.7994971425696814e+08 
-1.8000000000000005e+00 -1.0325873543413191e+00 +2.2770058287927615e+00 +1.5116713083218190e+01 +6.4034255786641961e+02 +9.3710867455339991e+04 -2.9015630244172681e+06 -3.9006633922238433e+08 
-1.9000000000000006e+00 -1.0325851649467050e+00 +2.2762359208723444e+00 +1.5048037128222377e+01 +6.6644116850797570e+02 +9.5534419471495887e+04 -3.0503704863543482e+06 -3.9995590676216596e+08 
-2.0000000000000004e+00 -1.0325829937079825e+00 +2.2754412795242454e+00 +1.4982135528477087e+01 +6.9280231723374789e+02 +9.7311080808166938e+04 -3.1999581423440385e+06 -4.0962045510556740e+08 
-2.1000000000000005e+00 -1.0325808397325940e+00 +2.2746256669790044e+00 +1.4918909896545332e+01 +7.1934330688238367e+02 +9.9041705660114312e+04 -3.3498961628809134e+06 -4.1906201915916711e+08 
-2.2000000000000006e+00 -1.0325787021282109e+00 +2.2737928454379239e+00 +1.4858261873602746e+01 +7.4598144162924950e+02 +1.0072714772487091e+05 -3.4997547291754219e+06 -4.2828263171715754e+08 
-2.3000000000000007e+00 -1.0325765800029003e+00 +2.2729465770672945e+00 +1.4800093149535909e+01 +7.7263402725795333e+02 +1.0236825983683589e+05 -3.6491040353006544e+06 -4.3728432178981721e+08 
-2.4000000000000008e+00 -1.0325744724650445e+00 +2.2720906240010397e+00 +1.4744305450554137e+01 +7.9921837118678411e+02 +1.0396589422523556e+05 -3.7975142888679327e+06 -4.4606911591538471e+08 
-2.5000000000000009e+00 -1.0325723786234942e+00 +2.2712287483270641e+00 +1.4690800555750911e+01 +8.2565178298215437e+02 +1.0552090222522223e+05 -3.9445557146195956e+06 -4.5463903687892765e+08 
-2.6000000000000010e+00 -1.0325702975875595e+00 +2.2703647120828032e+00 +1.4639480294425642e+01 +8.5185157460351229e+02 +1.0703413434595341e+05 -4.0897985564290951e+06 -4.6299610410594994e+08 
-2.7000000000000011e+00 -1.0325682284670332e+00 +2.2695022772532205e+00 +1.4590246547537882e+01 +8.7773506055542100e+02 +1.0850644026357963e+05 -4.2328130787065448e+06 -4.7114233371159387e+08 
-2.8000000000000012e+00 -1.0325661703722704e+00 +2.2686452057626671e+00 +1.4543001253990473e+01 +9.0321955824836391e+02 +1.0993866873150307e+05 -4.3731695691072252e+06 -4.7907973817430168e+08 
-2.9000000000000012e+00 -1.0325641224142219e+00 +2.2677972594685847e+00 +1.4497646414801498e+01 +9.2822238827931085e+02 +1.1133166750981942e+05 -4.5104383406878207e+06 -4.8681032605009484e+08 
-3.0000000000000013e+00 -1.0325620837044887e+00 +2.2669622001614678e+00 +1.4454084095645609e+01 +9.5266087454747333e+02 +1.1268628335591943e+05 -4.6441897331704339e+06 -4.9433610205710268e+08 
-3.1000000000000014e+00 -1.0325600533552988e+00 +2.2661437895513679e+00 +1.4412216424480647e+01 +9.7645234475564234e+02 +1.1400336207216755e+05 -4.7739941164172776e+06 -5.0165906733262539e+08 
-3.2000000000000015e+00 -1.0325580304796727e+00 +2.2653457892656301e+00 +1.4371945607563548e+01 +9.9951413058853370e+02 +1.1528374823917796e+05 -4.8994218920373572e+06 -5.0878121828847837e+08 
-3.3000000000000016e+00 -1.0325560141913326e+00 +2.2645719608493478e+00 +1.4333173918562688e+01 +1.0217635677985768e+03 +1.1652828543285278e+05 -5.0200434944337802e+06 -5.1570454769852298e+08 
-3.4000000000000017e+00 -1.0325540036048724e+00 +2.2638260657487574e+00 +1.4295803715434580e+01 +1.0431179968178790e+03 +1.1773781593594715e+05 -5.1354293949741051e+06 -5.2243104343464261e+08 
-3.5000000000000018e+00 -1.0325519978356459e+00 +2.2631118653041327e+00 +1.4259737424890384e+01 +1.0634947631293055e+03 +1.1891318106548890e+05 -5.2451501049860613e+06 -5.2896269015779293e+08 
-3.6000000000000019e+00 -1.0325499963311469e+00 +2.2624324038130448e+00 +1.4224845502141145e+01 +1.0828292418261494e+03 +1.2005616803847245e+05 -5.3488778575453172e+06 -5.3530661813404840e+08 
-3.7000000000000020e+00 -1.0325480000922456e+00 +2.2617879210126826e+00 +1.4190933231894839e+01 +1.1011270446317756e+03 +1.2117092771777572e+05 -5.4466815296428734e+06 -5.4148297259610629e+08 
-3.8000000000000020e+00 -1.0325460105590623e+00 +2.2611779667196181e+00 +1.4157804348783396e+01 +1.1184110282209790e+03 +1.2226186749925721e+05 -5.5387276373376967e+06 -5.4751336499777234e+08 
-3.9000000000000021e+00 -1.0325440291718606e+00 +2.2606020907566253e+00 +1.4125262596617358e+01 +1.1347040490470099e+03 +1.2333339468659052e+05 -5.6251826967182830e+06 -5.5341940646019220e+08 
-4.0000000000000018e+00 -1.0325420573710604e+00 +2.2600598429437895e+00 +1.4093111729959398e+01 +1.1500289634854498e+03 +1.2438991646566997e+05 -5.7062132241446357e+06 -5.5922270767420232e+08 
-4.1000000000000014e+00 -1.0325400965972444e+00 +2.2595507731164961e+00 +1.4061155513943891e+01 +1.1644086272779364e+03 +1.2543583991134309e+05 -5.7819857328807004e+06 -5.6494487892338371e+08 
-4.2000000000000011e+00 -1.0325381482910909e+00 +2.2590744311170412e+00 +1.4029197716024688e+01 +1.1778658957310786e+03 +1.2647557214334371e+05 -5.8526667340890989e+06 -5.7060753081218123e+08 
-4.3000000000000007e+00 -1.0325362138934497e+00 +2.2586303667971683e+00 +1.3997042114505001e+01 +1.1904236235977580e+03 +1.2751352016790900e+05 -5.9184227359692827e+06 -5.7623227350421393e+08 
-4.4000000000000004e+00 -1.0325342948452472e+00 +2.2582181300299160e+00 +1.3964492486299569e+01 +1.2021046646885009e+03 +1.2855409111092103e+05 -5.9794202413423210e+06 -5.8184071781887901e+08 
-4.5000000000000000e+00 -1.0325323925875376e+00 +2.2578372707010192e+00 +1.3931352612504266e+01 +1.2129318720812882e+03 +1.2960169211568964e+05 -6.0358257487080451e+06 -5.8745447473942304e+08 
-4.5999999999999996e+00 -1.0325305085614336e+00 +2.2574873387165924e+00 +1.3897426270402049e+01 +1.2229280978514689e+03 +1.3066073049137466e+05 -6.0878057505131299e+06 -5.9309515609671652e+08 
-4.6999999999999993e+00 -1.0325286442082036e+00 +2.2571678840018214e+00 +1.3862517243918594e+01 +1.2321161930693893e+03 +1.3173561351830847e+05 -6.1355267329771351e+06 -5.9878437363427794e+08 
-4.7999999999999989e+00 -1.0325268009691007e+00 +2.2568784565101261e+00 +1.3826429302365089e+01 +1.2405190074880759e+03 +1.3283074885655649e+05 -6.1791551741168741e+06 -6.0454374095461547e+08 
-4.8999999999999986e+00 -1.0325249802854790e+00 +2.2566186062167803e+00 +1.3788966214312540e+01 +1.2481593896892330e+03 +1.3395054427804024e+05 -6.2188575444322759e+06 -6.1039487221365106e+08 
-4.9999999999999982e+00 -1.0325231835987461e+00 +2.2563878831269775e+00 +1.3749931741367760e+01 +1.2550601867895675e+03 +1.3509940778973859e+05 -6.2548003050036365e+06 -6.1635938270828164e+08 
-5.0999999999999979e+00 -1.0325214123503716e+00 +2.2561858372757824e+00 +1.3709129638872083e+01 +1.2612442444302919e+03 +1.3628174761882791e+05 -6.2871499073481904e+06 -6.2245888878436387e+08 
-5.1999999999999975e+00 -1.0325196679818014e+00 +2.2560120187318913e+00 +1.3666363644136631e+01 +1.2667344065895941e+03 +1.3750197244341814e+05 -6.3160727920817267e+06 -6.2871500894091725e+08 
-5.2999999999999972e+00 -1.0325179519345391e+00 +2.2558659775988832e+00 +1.3621437486791191e+01 +1.2715535155223704e+03 +1.3876449119136482e+05 -6.3417353884493886e+06 -6.3514936284240234e+08 
-5.3999999999999968e+00 -1.0325162656500833e+00 +2.2557472640159304e+00 +1.3574154880340535e+01 +1.2757244116912132e+03 +1.4007371320176878e+05 -6.3643041137566632e+06 -6.4178357207665920e+08 
-5.4999999999999964e+00 -1.0325146105699958e+00 +2.2556554282002885e+00 +1.3524319534598296e+01 +1.2792699322972646e+03 +1.4143404793706970e+05 -6.3839453644155776e+06 -6.4863925863228559e+08 
-5.5999999999999961e+00 -1.0325129880771322e+00 +2.2555901704365984e+00 +1.3471899095811231e+01 +1.2822048888404361e+03 +1.4284656022184688e+05 -6.4007720896769566e+06 -6.5572236125718141e+08 
-5.6999999999999957e+00 -1.0325113991595822e+00 +2.2555515171041716e+00 +1.3417486567989583e+01 +1.2845174607430542e+03 +1.4429989064275275e+05 -6.4147074849959183e+06 -6.6298176761563468e+08 
-5.7999999999999954e+00 -1.0325098446770140e+00 +2.2555395125297317e+00 +1.3361826235874025e+01 +1.2861903000306618e+03 +1.4577976271008074e+05 -6.4256317225941168e+06 -6.7035329463486314e+08 
-5.8999999999999950e+00 -1.0325083254892355e+00 +2.2555542008469027e+00 +1.3305662406519618e+01 +1.2872060654079971e+03 +1.4727189974786807e+05 -6.4334250153480954e+06 -6.7777275950346065e+08 
-5.9999999999999947e+00 -1.0325068424562664e+00 +2.2555956259862535e+00 +1.3249739416990195e+01 +1.2875474229990659e+03 +1.4876202471145682e+05 -6.4379676223979164e+06 -6.8517597866260242e+08 
-6.0999999999999943e+00 -1.0325053964383741e+00 +2.2556638316617752e+00 +1.3194801640742032e+01 +1.2871970468038908e+03 +1.5023586006202057e+05 -6.4391398518929379e+06 -6.9249876721913815e+08 
-6.1999999999999940e+00 -1.0325039882959648e+00 +2.2557588613697983e+00 +1.3141593473304932e+01 +1.2861376187808760e+03 +1.5167912805397116e+05 -6.4368220615081200e+06 -6.9967694037525201e+08 
-6.2999999999999936e+00 -1.0325026188897117e+00 +2.2558807583766112e+00 +1.3090859348901692e+01 +1.2843518292639671e+03 +1.5307755041831924e+05 -6.4308946609306997e+06 -7.0664631193681109e+08 
-6.3999999999999932e+00 -1.0325012890804248e+00 +2.2560295657131362e+00 +1.3043343725180989e+01 +1.2818223771850321e+03 +1.5441684865761109e+05 -6.4212381132486816e+06 -7.1334269575207961e+08 
-6.4999999999999929e+00 -1.0324999997291660e+00 +2.2562053261631112e+00 +1.2999791097308497e+01 +1.2785319704658207e+03 +1.5568274378502322e+05 -6.4077329372591469e+06 -7.1970190450687444e+08 
-6.5999999999999925e+00 -1.0324987516971771e+00 +2.2564080822629866e+00 +1.2960945990405337e+01 +1.2744633260867106e+03 +1.5686095646686328e+05 -6.3902597079528812e+06 -7.2565975041806555e+08 
-6.6999999999999922e+00 -1.0324975458459011e+00 +2.2566378762819874e+00 +1.2927552961387162e+01 +1.2695991707128942e+03 +1.5793720700383783e+05 -6.3686990601915717e+06 -7.3115204521309650e+08 
-6.7999999999999918e+00 -1.0324963830369753e+00 +2.2568947502261105e+00 +1.2900356599366770e+01 +1.2639222406505155e+03 +1.5889721531556477e+05 -6.3429316885524252e+06 -7.3611460004720092e+08 
-6.8999999999999915e+00 -1.0324952641322536e+00 +2.2571787458208257e+00 +1.2880101528881379e+01 +1.2574152823982813e+03 +1.5972670089222834e+05 -6.3128383505672952e+06 -7.4048322533534431e+08 
-6.9999999999999911e+00 -1.0324941899937616e+00 +2.2574899045084522e+00 +1.2867532404388701e+01 +1.2500610527836332e+03 +1.6041138289944013e+05 -6.2782998675981537e+06 -7.4419373126668823e+08 
-7.0999999999999908e+00 -1.0324931614837622e+00 +2.2578282674399643e+00 +1.2863393918958190e+01 +1.2418423192668595e+03 +1.6093698002118655e+05 -6.2391971266714092e+06 -7.4718192710097325e+08 
-7.1999999999999904e+00 -1.0324921794646982e+00 +2.2581938754638067e+00 +1.2868430797904862e+01 +1.2327418603010231e+03 +1.6128921058149732e+05 -6.1954110825773925e+06 -7.4938362176909137e+08 
-7.2999999999999901e+00 -1.0324912447991839e+00 +2.2585867691225596e+00 +1.2883387797339074e+01 +1.2227424655212076e+03 +1.6145379258353691e+05 -6.1468227591369022e+06 -7.5073462411029923e+08 
-7.3999999999999897e+00 -1.0324903583500777e+00 +2.2590069886376729e+00 +1.2909009715076683e+01 +1.2118269362221613e+03 +1.6141644349560954e+05 -6.0933132519599246e+06 -7.5117074185385084e+08 
-7.4999999999999893e+00 -1.0324895209803069e+00 +2.2594545738133647e+00 +1.2946041353402496e+01 +1.1999780885666644e+03 +1.6116288113830492e+05 -6.0347637441199170e+06 -7.5062778603864002e+08 
-7.5999999999999890e+00 -1.0324887326189847e+00 +2.2599292845215371e+00 +1.2994934220119225e+01 +1.1871912848926249e+03 +1.6068454424400436e+05 -5.9711248039244711e+06 -7.4906809166697931e+08 
-7.6999999999999886e+00 -1.0324879895855330e+00 +2.2604303022891754e+00 +1.3055003764153822e+01 +1.1735007138866094e+03 +1.5999437179850391e+05 -5.9025719213034911e+06 -7.4655251909495151e+08 
-7.7999999999999883e+00 -1.0324872873114821e+00 +2.2609567902775631e+00 +1.3125285359262891e+01 +1.1589478721457231e+03 +1.5911043942777804e+05 -5.8293258896328202e+06 -7.4316517891586256e+08 
-7.8999999999999879e+00 -1.0324866212280519e+00 +2.2615079118756611e+00 +1.3204814309424744e+01 +1.1435742494458018e+03 +1.5805082406209156e+05 -5.7516074560087072e+06 -7.3899018840738451e+08 
-7.9999999999999876e+00 -1.0324859867659859e+00 +2.2620828307153271e+00 +1.3292625830907866e+01 +1.1274213273554933e+03 +1.5683360437151924e+05 -5.6696373141176710e+06 -7.3411167363975024e+08 
-8.0999999999999872e+00 -1.0324853793555406e+00 +2.2626807106797870e+00 +1.3387755049616413e+01 +1.1105305789708123e+03 +1.5547686082232764e+05 -5.5836361025694385e+06 -7.2861376976670635e+08 
-8.1999999999999869e+00 -1.0324847944265831e+00 +2.2633007159089433e+00 +1.3489237013124290e+01 +1.0929434686635327e+03 +1.5399867543862632e+05 -5.4938244030741844e+06 -7.2258061986753917e+08 
-8.2999999999999865e+00 -1.0324842274084134e+00 +2.2639420108127721e+00 +1.3596106666919990e+01 +1.0747014516606771e+03 +1.5241713225724551e+05 -5.4004227378258649e+06 -7.1609637712309933e+08 
-8.3999999999999861e+00 -1.0324836737298864e+00 +2.2646037600863456e+00 +1.3707398870604726e+01 +1.0558459735394194e+03 +1.5075031700876230e+05 -5.3036515663005374e+06 -7.0924520327369630e+08 
-8.4999999999999858e+00 -1.0324831288192813e+00 +2.2652851287118354e+00 +1.3822148378052569e+01 +1.0364184701136930e+03 +1.4901631750795667e+05 -5.2037312843560204e+06 -7.0211127051455557e+08 
-8.5999999999999854e+00 -1.0324825881043778e+00 +2.2659852819715400e+00 +1.3939389848605170e+01 +1.0164603670052508e+03 +1.4723322342323628e+05 -5.1008822215116303e+06 -6.9477876035427558e+08 
-8.6999999999999851e+00 -1.0324820470123541e+00 +2.2667033854605898e+00 +1.4058157832011155e+01 +9.9601307919948374e+02 +1.4541912657210583e+05 -4.9953246380841667e+06 -6.8733186505040133e+08 
-8.7999999999999847e+00 -1.0324815009698187e+00 +2.2674386050985067e+00 +1.4177486772276135e+01 +9.7511801066725923e+02 +1.4359212084072287e+05 -4.8872787227735845e+06 -6.7985478720960641e+08 
-8.8999999999999844e+00 -1.0324809454028046e+00 +2.2681901071356139e+00 +1.4296411006017660e+01 +9.5381655411109784e+02 +1.4177030221279734e+05 -4.7769645909335110e+06 -6.7243173992095816e+08 
-8.9999999999999840e+00 -1.0324803757366634e+00 +2.2689570581620599e+00 +1.4413964747765805e+01 +9.3215009065465415e+02 +1.3997176905624315e+05 -4.6646022825362142e+06 -6.6514694814682281e+08 
-9.0999999999999837e+00 -1.0324797873961529e+00 +2.2697386251235541e+00 +1.4529182101652109e+01 +9.1015998931666684e+02 +1.3821462188170518e+05 -4.5504117588389767e+06 -6.5808464752004421e+08 
-9.1999999999999833e+00 -1.0324791758053677e+00 +2.2705339753299314e+00 +1.4641097049759662e+01 +8.8788760671293392e+02 +1.3651696358233836e+05 -4.4346129004419744e+06 -6.5132908554225874e+08 
-9.2999999999999829e+00 -1.0324785363877116e+00 +2.2713422764651470e+00 +1.4748743450328424e+01 +8.6537428670150382e+02 +1.3489689944549836e+05 -4.3174255049517183e+06 -6.4496452157883227e+08 
-9.3999999999999826e+00 -1.0324778645658832e+00 +2.2721626965968240e+00 +1.4851155032847402e+01 +8.4266136004924465e+02 +1.3337253726380388e+05 -4.1990692848066920e+06 -6.3907522744234252e+08 
-9.4999999999999822e+00 -1.0324771557619494e+00 +2.2729944043972097e+00 +1.4947365435245048e+01 +8.1979013528963003e+02 +1.3196198607504671e+05 -4.0797638116620639e+06 -6.3374548005784070e+08 
-9.5999999999999819e+00 -1.0324764065160996e+00 +2.2738366980644260e+00 +1.5036684291241549e+01 +7.9679054634311319e+02 +1.3067740716291075e+05 -3.9596588432269520e+06 -6.2902947241066062e+08 
-9.6999999999999815e+00 -1.0324756177221808e+00 +2.2746886219431937e+00 +1.5119505298380250e+01 +7.7366977962136025e+02 +1.2950848684544289e+05 -3.8387626696350505e+06 -6.2486876855177820e+08 
-9.7999999999999812e+00 -1.0324747913448094e+00 +2.2755489738421688e+00 +1.5196495235458730e+01 +7.5043442952729015e+02 +1.2843943505601223e+05 -3.7170799403760652e+06 -6.2117760194342351e+08 
-9.8999999999999808e+00 -1.0324739293485290e+00 +2.2764165516286954e+00 +1.5268320954596902e+01 +7.2709109122841164e+02 +1.2745445978516487e+05 -3.5946153388763415e+06 -6.1787019379805923e+08 
-9.9999999999999805e+00 -1.0324730336978039e+00 +2.2772901533436736e+00 +1.5335649367679761e+01 +7.0364635707383547e+02 +1.2653776739561597e+05 -3.4713735472965431e+06 -6.1486075596126282e+08 
-1.0099999999999980e+01 -1.0324721063570117e+00 +2.2781685772021283e+00 +1.5399147445290899e+01 +6.8010681662051945e+02 +1.2567356264273507e+05 -3.3473592470398750e+06 -6.1206349099661517e+08 
