# field on trajectory
# s[mm] rx[mm] ry[mm] rz[mm] bx[T] by[T] bz[T]
0.0000000000000000e+00 +9.0449999999999999e+00 +0.0000000000000000e+00 +0.0000000000000000e+00 +1.1378202937430358e-02 -1.0300512742815580e+00 -5.8495116652342818e-02
-1.0000000000000001e-01 +9.0449994853310169e+00 +0.0000000000000000e+00 -9.9999999998234099e-02 +1.1378452448450664e-02 -1.0300490829371436e+00 -5.8495230469093419e-02
-2.0000000000000001e-01 +9.0449979413255051e+00 +0.0000000000000000e+00 -1.9999999998587284e-01 +1.1378692127284592e-02 -1.0300470248058791e+00 -5.8495333508391346e-02
-3.0000000000000004e-01 +9.0449953679855195e+00 +0.0000000000000000e+00 -2.9999999995232096e-01 +1.1378922923761031e-02 -1.0300451017788039e+00 -5.8495426181749029e-02
-4.0000000000000002e-01 +9.0449917653129841e+00 +0.0000000000000000e+00 -3.9999999988698326e-01 +1.1379145787703913e-02 -1.0300433157454667e+00 -5.8495508900674488e-02
-5.0000000000000000e-01 +9.0449871333096841e+00 +0.0000000000000000e+00 -4.9999999977926451e-01 +1.1379361668919152e-02 -1.0300416685939111e+00 -5.8495582076669314e-02
-5.9999999999999998e-01 +9.0449814719772643e+00 +0.0000000000000000e+00 -5.9999999961856965e-01 +1.1379571517181631e-02 -1.0300401622106690e+00 -5.8495646121226694e-02
-6.9999999999999996e-01 +9.0449747813172312e+00 +0.0000000000000000e+00 -6.9999999939430357e-01 +1.1379776282222137e-02 -1.0300387984807406e+00 -5.8495701445829301e-02
-7.9999999999999993e-01 +9.0449670613309490e+00 +0.0000000000000000e+00 -7.9999999909587116e-01 +1.1379976913714377e-02 -1.0300375792875909e+00 -5.8495748461947328e-02
-8.9999999999999991e-01 +9.0449583120196344e+00 +0.0000000000000000e+00 -8.9999999871267744e-01 +1.1380174361261897e-02 -1.0300365065131303e+00 -5.8495787581036449e-02
-9.9999999999999989e-01 +9.0449485333843622e+00 +0.0000000000000000e+00 -9.9999999823412744e-01 +1.1380369574385091e-02 -1.0300355820377078e+00 -5.8495819214535810e-02
-1.0999999999999999e+00 +9.0449377254260561e+00 +0.0000000000000000e+00 -1.0999999976496262e+00 +1.1380563502508127e-02 -1.0300348077400963e+00 -5.8495843773865963e-02
-1.2000000000000000e+00 +9.0449258881454924e+00 +0.0000000000000000e+00 -1.1999999969485786e+00 +1.1380757094945945e-02 -1.0300341854974817e+00 -5.8495861670426912e-02
-1.3000000000000000e+00 +9.0449130215432927e+00 +0.0000000000000000e+00 -1.2999999961203899e+00 +1.1380951300891210e-02 -1.0300337171854494e+00 -5.8495873315596018e-02
-1.4000000000000001e+00 +9.0448991256199260e+00 +0.0000000000000000e+00 -1.3999999951544650e+00 +1.1381147069401283e-02 -1.0300334046779738e+00 -5.8495879120725999e-02
-1.5000000000000002e+00 +9.0448842003757068e+00 +0.0000000000000000e+00 -1.4999999940402091e+00 +1.1381345349385162e-02 -1.0300332498474061e+00 -5.8495879497142932e-02
-1.6000000000000003e+00 +9.0448682458107896e+00 +0.0000000000000000e+00 -1.5999999927670270e+00 +1.1381546941109752e-02 -1.0300332518943471e+00 -5.8495874722061789e-02
-1.7000000000000004e+00 +9.0448512619251762e+00 +0.0000000000000000e+00 -1.6999999913243238e+00 +1.1381752050811857e-02 -1.0300333993377762e+00 -5.8495864536349057e-02
-1.8000000000000005e+00 +9.0448332487187226e+00 +0.0000000000000000e+00 -1.7999999897015042e+00 +1.1381960736259220e-02 -1.0300336780263293e+00 -5.8495848546791698e-02
-1.9000000000000006e+00 +9.0448142061911536e+00 +0.0000000000000000e+00 -1.8999999878879734e+00 +1.1382173055264217e-02 -1.0300340738087308e+00 -5.8495826360185639e-02
-2.0000000000000004e+00 +9.0447941343420766e+00 +0.0000000000000000e+00 -1.9999999858731363e+00 +1.1382389065701498e-02 -1.0300345725340034e+00 -5.8495797583339296e-02
-2.1000000000000005e+00 +9.0447730331709959e+00 +0.0000000000000000e+00 -2.0999999836463976e+00 +1.1382608825525544e-02 -1.0300351600516739e+00 -5.8495761823076968e-02
-2.2000000000000006e+00 +9.0447509026773290e+00 +0.0000000000000000e+00 -2.1999999811971622e+00 +1.1382832392788339e-02 -1.0300358222119836e+00 -5.8495718686242391e-02
-2.3000000000000007e+00 +9.0447277428604167e+00 +0.0000000000000000e+00 -2.2999999785148351e+00 +1.1383059825656901e-02 -1.0300365448660946e+00 -5.8495667779702019e-02
-2.4000000000000008e+00 +9.0447035537195415e+00 +0.0000000000000000e+00 -2.3999999755888211e+00 +1.1383291182430951e-02 -1.0300373138662988e+00 -5.8495608710348652e-02
-2.5000000000000009e+00 +9.0446783352539377e+00 +0.0000000000000000e+00 -2.4999999724085247e+00 +1.1383526521560482e-02 -1.0300381150662257e+00 -5.8495541085104769e-02
-2.6000000000000010e+00 +9.0446520874628078e+00 +0.0000000000000000e+00 -2.5999999689633504e+00 +1.1383765901663389e-02 -1.0300389343210510e+00 -5.8495464510926028e-02
-2.7000000000000011e+00 +9.0446248103453382e+00 +0.0000000000000000e+00 -2.6999999652427031e+00 +1.1384009381543046e-02 -1.0300397574877040e+00 -5.8495378594804644e-02
-2.8000000000000012e+00 +9.0445965039007117e+00 +0.0000000000000000e+00 -2.7999999612359874e+00 +1.1384257020205941e-02 -1.0300405704250757e+00 -5.8495282943772937e-02
-2.9000000000000012e+00 +9.0445671681281183e+00 +0.0000000000000000e+00 -2.8999999569326080e+00 +1.1384508876879274e-02 -1.0300413589942279e+00 -5.8495177164906723e-02
-3.0000000000000013e+00 +9.0445368030267748e+00 +0.0000000000000000e+00 -2.9999999523219696e+00 +1.1384765011028549e-02 -1.0300421090586012e+00 -5.8495060865328775e-02
-3.1000000000000014e+00 +9.0445054085959349e+00 +0.0000000000000000e+00 -3.0999999473934765e+00 +1.1385025482375213e-02 -1.0300428064842218e+00 -5.8494933652212276e-02
-3.2000000000000015e+00 +9.0444729848349077e+00 +0.0000000000000000e+00 -3.1999999421365337e+00 +1.1385290350914215e-02 -1.0300434371399116e+00 -5.8494795132784279e-02
-3.3000000000000016e+00 +9.0444395317430661e+00 +0.0000000000000000e+00 -3.2999999365405452e+00 +1.1385559676931679e-02 -1.0300439868974962e+00 -5.8494644914329159e-02
-3.4000000000000017e+00 +9.0444050493198667e+00 +0.0000000000000000e+00 -3.3999999305949160e+00 +1.1385833521022438e-02 -1.0300444416320103e+00 -5.8494482604192037e-02
-3.5000000000000018e+00 +9.0443695375648598e+00 +0.0000000000000000e+00 -3.4999999242890505e+00 +1.1386111944107694e-02 -1.0300447872219101e+00 -5.8494307809782216e-02
-3.6000000000000019e+00 +9.0443329964777046e+00 +0.0000000000000000e+00 -3.5999999176123536e+00 +1.1386394804569896e-02 -1.0300450116346238e+00 -5.8494120258569648e-02
-3.7000000000000020e+00 +9.0442954260581807e+00 +0.0000000000000000e+00 -3.6999999105542298e+00 +1.1386681149440176e-02 -1.0300451111820901e+00 -5.8493920158037421e-02
-3.8000000000000020e+00 +9.0442568263061940e+00 +0.0000000000000000e+00 -3.7999999031040836e+00 +1.1386969822733144e-02 -1.0300450842636077e+00 -5.8493707835650187e-02
-3.9000000000000021e+00 +9.0442171972217746e+00 +0.0000000000000000e+00 -3.8999998952513204e+00 +1.1387259668267882e-02 -1.0300449292803635e+00 -5.8493483618850470e-02
-4.0000000000000018e+00 +9.0441765388050808e+00 +0.0000000000000000e+00 -3.9999998869853446e+00 +1.1387549529648589e-02 -1.0300446446354974e+00 -5.8493247835055946e-02
-4.1000000000000014e+00 +9.0441348510564019e+00 +0.0000000000000000e+00 -4.0999998782955611e+00 +1.1387838250245148e-02 -1.0300442287341636e+00 -5.8493000811656738e-02
-4.2000000000000011e+00 +9.0440921339761591e+00 +0.0000000000000000e+00 -4.1999998691713749e+00 +1.1388124673173721e-02 -1.0300436799835875e+00 -5.8492742876012381e-02
-4.3000000000000007e+00 +9.0440483875649047e+00 +0.0000000000000000e+00 -4.2999998596021909e+00 +1.1388407641277356e-02 -1.0300429967931295e+00 -5.8492474355449270e-02
-4.4000000000000004e+00 +9.0440036118233262e+00 +0.0000000000000000e+00 -4.3999998495774140e+00 +1.1388685997106568e-02 -1.0300421775743445e+00 -5.8492195577257676e-02
-4.5000000000000000e+00 +9.0439578067522479e+00 +0.0000000000000000e+00 -4.4999998390864491e+00 +1.1388958582899946e-02 -1.0300412207410434e+00 -5.8491906868689034e-02
-4.5999999999999996e+00 +9.0439109723526308e+00 +0.0000000000000000e+00 -4.5999998281187020e+00 +1.1389224240564747e-02 -1.0300401247093516e+00 -5.8491608556953144e-02
-4.6999999999999993e+00 +9.0438631086255743e+00 +0.0000000000000000e+00 -4.6999998166635777e+00 +1.1389481811657515e-02 -1.0300388878977722e+00 -5.8491300969215329e-02
-4.7999999999999989e+00 +9.0438142155723202e+00 +0.0000000000000000e+00 -4.7999998047104819e+00 +1.1389730137364636e-02 -1.0300375087272453e+00 -5.8490984432593644e-02
-4.8999999999999986e+00 +9.0437642931942523e+00 +0.0000000000000000e+00 -4.8999997922488205e+00 +1.1389968058482981e-02 -1.0300359856212087e+00 -5.8490659274156150e-02
-4.9999999999999982e+00 +9.0437133414928983e+00 +0.0000000000000000e+00 -4.9999997792679993e+00 +1.1390194415400486e-02 -1.0300343170056585e+00 -5.8490325820917989e-02
-5.0999999999999979e+00 +9.0436613604699296e+00 +0.0000000000000000e+00 -5.0999997657574232e+00 +1.1390408048076778e-02 -1.0300325013092100e+00 -5.8489984399838671e-02
-5.1999999999999975e+00 +9.0436083501271671e+00 +0.0000000000000000e+00 -5.1999997517064989e+00 +1.1390607796023742e-02 -1.0300305369631590e+00 -5.8489635337819312e-02
-5.2999999999999972e+00 +9.0435543104665808e+00 +0.0000000000000000e+00 -5.2999997371046321e+00 +1.1390792498286164e-02 -1.0300284224015401e+00 -5.8489278961699677e-02
-5.3999999999999968e+00 +9.0434992414902879e+00 +0.0000000000000000e+00 -5.3999997219412288e+00 +1.1390960993422310e-02 -1.0300261560611899e+00 -5.8488915598255559e-02
-5.4999999999999964e+00 +9.0434431432005606e+00 +0.0000000000000000e+00 -5.4999997062056956e+00 +1.1391112119484553e-02 -1.0300237363818066e+00 -5.8488545574195874e-02
-5.5999999999999961e+00 +9.0433860155998218e+00 +0.0000000000000000e+00 -5.5999996898874391e+00 +1.1391245228995782e-02 -1.0300211632201219e+00 -5.8488169248549243e-02
-5.6999999999999957e+00 +9.0433278586906489e+00 +0.0000000000000000e+00 -5.6999996729758662e+00 +1.1391361734242973e-02 -1.0300184420906626e+00 -5.8487787109863319e-02
-5.7999999999999954e+00 +9.0432686724757669e+00 +0.0000000000000000e+00 -5.7999996554603834e+00 +1.1391463562817587e-02 -1.0300155799203892e+00 -5.8487399679093346e-02
-5.8999999999999950e+00 +9.0432084569580411e+00 +0.0000000000000000e+00 -5.8999996373303976e+00 +1.1391552642706890e-02 -1.0300125836339851e+00 -5.8487007477221922e-02
-5.9999999999999947e+00 +9.0431472121404717e+00 +0.0000000000000000e+00 -5.9999996185753162e+00 +1.1391630902315309e-02 -1.0300094601536915e+00 -5.8486611025260579e-02
-6.0999999999999943e+00 +9.0430849380261851e+00 +0.0000000000000000e+00 -6.0999995991845459e+00 +1.1391700270485854e-02 -1.0300062163991455e+00 -5.8486210844251360e-02
-6.1999999999999940e+00 +9.0430216346184302e+00 +0.0000000000000000e+00 -6.1999995791474953e+00 +1.1391762676521462e-02 -1.0300028592872155e+00 -5.8485807455268379e-02
-6.2999999999999936e+00 +9.0429573019205680e+00 +0.0000000000000000e+00 -6.2999995584535720e+00 +1.1391820050206412e-02 -1.0299993957318356e+00 -5.8485401379419398e-02
-6.3999999999999932e+00 +9.0428919399360659e+00 +0.0000000000000000e+00 -6.3999995370921834e+00 +1.1391874321827691e-02 -1.0299958326438454e+00 -5.8484993137847455e-02
-6.4999999999999929e+00 +9.0428255486684890e+00 +0.0000000000000000e+00 -6.4999995150527372e+00 +1.1391927422196368e-02 -1.0299921769308231e+00 -5.8484583251732343e-02
-6.5999999999999925e+00 +9.0427581281214984e+00 +0.0000000000000000e+00 -6.5999994923246428e+00 +1.1391981282668967e-02 -1.0299884354969235e+00 -5.8484172242292305e-02
-6.6999999999999922e+00 +9.0426896782988404e+00 +0.0000000000000000e+00 -6.6999994688973077e+00 +1.1392037835168851e-02 -1.0299846152427121e+00 -5.8483760630785517e-02
-6.7999999999999918e+00 +9.0426201992043378e+00 +0.0000000000000000e+00 -6.7999994447601404e+00 +1.1392099012207583e-02 -1.0299807230650049e+00 -5.8483348938511696e-02
-6.8999999999999915e+00 +9.0425496908418879e+00 +0.0000000000000000e+00 -6.8999994199025503e+00 +1.1392166746906289e-02 -1.0299767658567005e+00 -5.8482937686813619e-02
-6.9999999999999911e+00 +9.0424781532154501e+00 +0.0000000000000000e+00 -6.9999993943139458e+00 +1.1392242973017047e-02 -1.0299727505066181e+00 -5.8482527397078786e-02
-7.0999999999999908e+00 +9.0424055863290462e+00 +0.0000000000000000e+00 -7.0999993679837363e+00 +1.1392329624944211e-02 -1.0299686838993336e+00 -5.8482118590740893e-02
-7.1999999999999904e+00 +9.0423319901867458e+00 +0.0000000000000000e+00 -7.1999993409013303e+00 +1.1392428637765803e-02 -1.0299645729150155e+00 -5.8481711789281458e-02
-7.2999999999999901e+00 +9.0422573647926647e+00 +0.0000000000000000e+00 -7.2999993130561380e+00 +1.1392541947254873e-02 -1.0299604244292602e+00 -5.8481307514231348e-02
-7.3999999999999897e+00 +9.0421817101509561e+00 +0.0000000000000000e+00 -7.3999992844375688e+00 +1.1392671489900820e-02 -1.0299562453129301e+00 -5.8480906287172382e-02
-7.4999999999999893e+00 +9.0421050262658031e+00 +0.0000000000000000e+00 -7.4999992550350321e+00 +1.1392819202930785e-02 -1.0299520424319863e+00 -5.8480508629738824e-02
-7.5999999999999890e+00 +9.0420273131414142e+00 +0.0000000000000000e+00 -7.5999992248379380e+00 +1.1392986358266462e-02 -1.0299478224158836e+00 -5.8480114864981614e-02
-7.6999999999999886e+00 +9.0419485707820133e+00 +0.0000000000000000e+00 -7.6999991938356960e+00 +1.1393171563845533e-02 -1.0299435909646280e+00 -5.8479724521395653e-02
-7.7999999999999883e+00 +9.0418687991918372e+00 +0.0000000000000000e+00 -7.7999991620177163e+00 +1.1393372761064512e-02 -1.0299393535457906e+00 -5.8479336928762719e-02
-7.8999999999999879e+00 +9.0417879983751295e+00 +0.0000000000000000e+00 -7.8999991293734100e+00 +1.1393587890741090e-02 -1.0299351156263399e+00 -5.8478951416784178e-02
-7.9999999999999876e+00 +9.0417061683361322e+00 +0.0000000000000000e+00 -7.9999990958921865e+00 +1.1393814893091733e-02 -1.0299308826726308e+00 -5.8478567315078105e-02
-8.0999999999999872e+00 +9.0416233090790836e+00 +0.0000000000000000e+00 -8.0999990615634569e+00 +1.1394051707709288e-02 -1.0299266601503996e+00 -5.8478183953176666e-02
-8.1999999999999869e+00 +9.0415394206082116e+00 +0.0000000000000000e+00 -8.1999990263766325e+00 +1.1394296273540558e-02 -1.0299224535247504e+00 -5.8477800660523292e-02
-8.2999999999999865e+00 +9.0414545029277278e+00 +0.0000000000000000e+00 -8.2999989903211215e+00 +1.1394546528863937e-02 -1.0299182682601504e+00 -5.8477416766469996e-02
-8.3999999999999861e+00 +9.0413685560418227e+00 +0.0000000000000000e+00 -8.3999989533863371e+00 +1.1394800411267001e-02 -1.0299141098204183e+00 -5.8477031600274586e-02
-8.4999999999999858e+00 +9.0412815799546618e+00 +0.0000000000000000e+00 -8.4999989155616902e+00 +1.1395055857624120e-02 -1.0299099836687171e+00 -5.8476644491097941e-02
-8.5999999999999854e+00 +9.0411935746703769e+00 +0.0000000000000000e+00 -8.5999988768365903e+00 +1.1395310804074079e-02 -1.0299058952675442e+00 -5.8476254768001279e-02
-8.6999999999999851e+00 +9.0411045401930625e+00 +0.0000000000000000e+00 -8.6999988372004502e+00 +1.1395563185997678e-02 -1.0299018500787216e+00 -5.8475861759943432e-02
-8.7999999999999847e+00 +9.0410144765267688e+00 +0.0000000000000000e+00 -8.7999987966426811e+00 +1.1395810937995358e-02 -1.0298978535633900e+00 -5.8475464795778059e-02
-8.8999999999999844e+00 +9.0409233836754996e+00 +0.0000000000000000e+00 -8.8999987551526942e+00 +1.1396051993864818e-02 -1.0298939111819974e+00 -5.8475063204251006e-02
-8.9999999999999840e+00 +9.0408312616432038e+00 +0.0000000000000000e+00 -8.9999987127199006e+00 +1.1396284286578651e-02 -1.0298900283942913e+00 -5.8474656313997515e-02
-9.0999999999999837e+00 +9.0407381104337716e+00 +0.0000000000000000e+00 -9.0999986693337114e+00 +1.1396505748261959e-02 -1.0298862106593092e+00 -5.8474243453539458e-02
-9.1999999999999833e+00 +9.0406439300510257e+00 +0.0000000000000000e+00 -9.1999986249835377e+00 +1.1396714310169979e-02 -1.0298824634353703e+00 -5.8473823951282741e-02
-9.2999999999999829e+00 +9.0405487204987214e+00 +0.0000000000000000e+00 -9.2999985796587925e+00 +1.1396907902665730e-02 -1.0298787921800669e+00 -5.8473397135514506e-02
-9.3999999999999826e+00 +9.0404524817805374e+00 +0.0000000000000000e+00 -9.3999985333488869e+00 +1.1397084455197642e-02 -1.0298752023502549e+00 -5.8472962334400372e-02
-9.4999999999999822e+00 +9.0403552139000691e+00 +0.0000000000000000e+00 -9.4999984860432320e+00 +1.1397241896277180e-02 -1.0298716994020467e+00 -5.8472518875981809e-02
-9.5999999999999819e+00 +9.0402569168608284e+00 +0.0000000000000000e+00 -9.5999984377312391e+00 +1.1397378830464962e-02 -1.0298682876687708e+00 -5.8472066431724090e-02
-9.6999999999999815e+00 +9.0401575906662348e+00 +0.0000000000000000e+00 -9.6999983884023209e+00 +1.1397496569982494e-02 -1.0298649669951736e+00 -5.8471606047348204e-02
-9.7999999999999812e+00 +9.0400572353196171e+00 +0.0000000000000000e+00 -9.7999983380458886e+00 +1.1397597104470135e-02 -1.0298617361044828e+00 -5.8471139112358482e-02
-9.8999999999999808e+00 +9.0399558508242155e+00 +0.0000000000000000e+00 -9.8999982866513552e+00 +1.1397682424052029e-02 -1.0298585937206894e+00 -5.8470667016496801e-02
-9.9999999999999805e+00 +9.0398534371831811e+00 +0.0000000000000000e+00 -9.9999982342081299e+00 +1.1397754519351396e-02 -1.0298555385685759e+00 -5.8470191149749010e-02
-1.0099999999999980e+01 +9.0397499943995765e+00 +0.0000000000000000e+00 -1.0099998180705628e+01 +1.1397815381505838e-02 -1.0298525693737470e+00 -5.8469712902351492e-02
-1.0199999999999980e+01 +9.0396455224763805e+00 +0.0000000000000000e+00 -1.0199998126133258e+01 +1.1397867002182626e-02 -1.0298496848626590e+00 -5.8469233664797761e-02
-1.0299999999999979e+01 +9.0395400214164869e+00 +0.0000000000000000e+00 -1.0299998070480433e+01 +1.1397911373594003e-02 -1.0298468837626471e+00 -5.8468754827844915e-02
-1.0399999999999979e+01 +9.0394334912227059e+00 +0.0000000000000000e+00 -1.0399998013736564e+01 +1.1397950488512446e-02 -1.0298441648019576e+00 -5.8468277782520180e-02
-1.0499999999999979e+01 +9.0393259318977659e+00 +0.0000000000000000e+00 -1.0499997955891065e+01 +1.1397986340285979e-02 -1.0298415267097754e+00 -5.8467803920127487e-02
-1.0599999999999978e+01 +9.0392173434443155e+00 +0.0000000000000000e+00 -1.0599997896933345e+01 +1.1398020922853427e-02 -1.0298389682162528e+00 -5.8467334632253933e-02
-1.0699999999999978e+01 +9.0391077258649233e+00 +0.0000000000000000e+00 -1.0699997836852818e+01 +1.1398056230759719e-02 -1.0298364880525410e+00 -5.8466871310776387e-02
-1.0799999999999978e+01 +9.0389970791620780e+00 +0.0000000000000000e+00 -1.0799997775638893e+01 +1.1398094259171120e-02 -1.0298340849508170e+00 -5.8466415347867860e-02
-1.0899999999999977e+01 +9.0388854033381936e+00 +0.0000000000000000e+00 -1.0899997713280984e+01 +1.1398137003890543e-02 -1.0298317576443130e+00 -5.8465968136004243e-02
-1.0999999999999977e+01 +9.0387726983956078e+00 +0.0000000000000000e+00 -1.0999997649768503e+01 +1.1398186461372792e-02 -1.0298295048673478e+00 -5.8465531067970644e-02
-1.1099999999999977e+01 +9.0386589643365838e+00 +0.0000000000000000e+00 -1.1099997585090859e+01 +1.1398244628739821e-02 -1.0298273253553534e+00 -5.8465105536867956e-02
-1.1199999999999976e+01 +9.0385442011633117e+00 +0.0000000000000000e+00 -1.1199997519237467e+01 +1.1398313503796014e-02 -1.0298252178449057e+00 -5.8464692936119438e-02
-1.1299999999999976e+01 +9.0384284088779090e+00 +0.0000000000000000e+00 -1.1299997452197736e+01 +1.1398395085043396e-02 -1.0298231810737533e+00 -5.8464294659477091e-02
-1.1399999999999975e+01 +9.0383115874824238e+00 +0.0000000000000000e+00 -1.1399997383961079e+01 +1.1398491371696932e-02 -1.0298212137808453e+00 -5.8463912101028338e-02
-1.1499999999999975e+01 +9.0381937369788350e+00 +0.0000000000000000e+00 -1.1499997314516907e+01 +1.1398604363699738e-02 -1.0298193147063639e+00 -5.8463546655202391e-02
-1.1599999999999975e+01 +9.0380748573690539e+00 +0.0000000000000000e+00 -1.1599997243854633e+01 +1.1398735397673622e-02 -1.0298174820576211e+00 -5.8463199266882038e-02
-1.1699999999999974e+01 +9.0379549486549227e+00 +0.0000000000000000e+00 -1.1699997171963666e+01 +1.1398883154150583e-02 -1.0298157119064746e+00 -5.8462869081370536e-02
