# trajectory
# s[mm] rx[mm] ry[mm] rz[mm] px[rad] py[rad] pz[rad]
0.0000000000000000e+00 +9.0449999999999999e+00 +0.0000000000000000e+00 +0.0000000000000000e+00 +0.0000000000000000e+00 +0.0000000000000000e+00 +1.0000000000000000e+00
-1.0000000000000001e-01 +9.0449994844800958e+00 +0.0000000000000000e+00 -9.9999999998228256e-02 +1.0310398219028520e-05 +0.0000000000000000e+00 +9.9999999994684785e-01
-2.0000000000000001e-01 +9.0449979379203267e+00 +0.0000000000000000e+00 -1.9999999998582607e-01 +2.0620797309537832e-05 +0.0000000000000000e+00 +9.9999999978739140e-01
-3.0000000000000004e-01 +9.0449953603205984e+00 +0.0000000000000000e+00 -2.9999999995216303e-01 +3.0931197429304831e-05 +0.0000000000000000e+00 +9.9999999952163054e-01
-4.0000000000000002e-01 +9.0449917516808007e+00 +0.0000000000000000e+00 -3.9999999988660873e-01 +4.1241598743901729e-05 +0.0000000000000000e+00 +9.9999999914956528e-01
-5.0000000000000000e-01 +9.0449871120008041e+00 +0.0000000000000000e+00 -4.9999999977853260e-01 +5.1552001426696560e-05 +0.0000000000000000e+00 +9.9999999867119560e-01
-5.9999999999999998e-01 +9.0449814412804628e+00 +0.0000000000000000e+00 -5.9999999961730432e-01 +6.1862405658853742e-05 +0.0000000000000000e+00 +9.9999999808652140e-01
-6.9999999999999996e-01 +9.0449747395196134e+00 +0.0000000000000000e+00 -6.9999999939229340e-01 +7.2172811629334839e-05 +0.0000000000000000e+00 +9.9999999739554268e-01
-7.9999999999999993e-01 +9.0449670067180730e+00 +0.0000000000000000e+00 -7.9999999909286934e-01 +8.2483219534899404e-05 +0.0000000000000000e+00 +9.9999999659825933e-01
-8.9999999999999991e-01 +9.0449582428756354e+00 +0.0000000000000000e+00 -8.9999999870840175e-01 +9.2793629580105975e-05 +0.0000000000000000e+00 +9.9999999569467124e-01
-9.9999999999999989e-01 +9.0449484479920788e+00 +0.0000000000000000e+00 -9.9999999822826013e-01 +1.0310404197731319e-04 +0.0000000000000000e+00 +9.9999999468477829e-01
-1.0999999999999999e+00 +9.0449376220671542e+00 +0.0000000000000000e+00 -1.0999999976418140e+00 +1.1341445694668106e-04 +0.0000000000000000e+00 +9.9999999356858049e-01
-1.2000000000000000e+00 +9.0449257651005954e+00 +0.0000000000000000e+00 -1.1999999969384327e+00 +1.2372487471617232e-04 +0.0000000000000000e+00 +9.9999999234607773e-01
-1.3000000000000000e+00 +9.0449128770921092e+00 +0.0000000000000000e+00 -1.2999999961074860e+00 +1.3403529552155399e-04 +0.0000000000000000e+00 +9.9999999101726977e-01
-1.4000000000000001e+00 +9.0448989580413812e+00 +0.0000000000000000e+00 -1.3999999951383431e+00 +1.4434571960639901e-04 +0.0000000000000000e+00 +9.9999998958215663e-01
-1.5000000000000002e+00 +9.0448840079480703e+00 +0.0000000000000000e+00 -1.4999999940203737e+00 +1.5465614722208793e-04 +0.0000000000000000e+00 +9.9999998804073809e-01
-1.6000000000000003e+00 +9.0448680268118107e+00 +0.0000000000000000e+00 -1.5999999927429471e+00 +1.6496657862781095e-04 +0.0000000000000000e+00 +9.9999998639301402e-01
-1.7000000000000004e+00 +9.0448510146322096e+00 +0.0000000000000000e+00 -1.6999999912954329e+00 +1.7527701409056988e-04 +0.0000000000000000e+00 +9.9999998463898421e-01
-1.8000000000000005e+00 +9.0448329714088480e+00 +0.0000000000000000e+00 -1.7999999896672003e+00 +1.8558745388518028e-04 +0.0000000000000000e+00 +9.9999998277864854e-01
-1.9000000000000006e+00 +9.0448138971412781e+00 +0.0000000000000000e+00 -1.8999999878476190e+00 +1.9589789829427382e-04 +0.0000000000000000e+00 +9.9999998081200669e-01
-2.0000000000000004e+00 +9.0447937918290258e+00 +0.0000000000000000e+00 -1.9999999858260582e+00 +2.0620834760830069e-04 +0.0000000000000000e+00 +9.9999997873905866e-01
-2.1000000000000005e+00 +9.0447726554715846e+00 +0.0000000000000000e+00 -2.0999999835918874e+00 +2.1651880212446745e-04 +0.0000000000000000e+00 +9.9999997655980410e-01
-2.2000000000000006e+00 +9.0447504880684182e+00 +0.0000000000000000e+00 -2.1999999811344755e+00 +2.2682926213502783e-04 +0.0000000000000000e+00 +9.9999997427424281e-01
-2.3000000000000007e+00 +9.0447272896189652e+00 +0.0000000000000000e+00 -2.2999999784431924e+00 +2.3713972791557231e-04 +0.0000000000000000e+00 +9.9999997188237455e-01
-2.4000000000000008e+00 +9.0447030601226341e+00 +0.0000000000000000e+00 -2.3999999755074071e+00 +2.4745019972396385e-04 +0.0000000000000000e+00 +9.9999996938419911e-01
-2.5000000000000009e+00 +9.0446777995788104e+00 +0.0000000000000000e+00 -2.4999999723164885e+00 +2.5776067780033810e-04 +0.0000000000000000e+00 +9.9999996677971614e-01
-2.6000000000000010e+00 +9.0446515079868561e+00 +0.0000000000000000e+00 -2.5999999688598066e+00 +2.6807116236710353e-04 +0.0000000000000000e+00 +9.9999996406892555e-01
-2.7000000000000011e+00 +9.0446241853461125e+00 +0.0000000000000000e+00 -2.6999999651267301e+00 +2.7838165362894141e-04 +0.0000000000000000e+00 +9.9999996125182700e-01
-2.8000000000000012e+00 +9.0445958316559008e+00 +0.0000000000000000e+00 -2.7999999611066282e+00 +2.8869215177280554e-04 +0.0000000000000000e+00 +9.9999995832842015e-01
-2.9000000000000012e+00 +9.0445664469155229e+00 +0.0000000000000000e+00 -2.8999999567888701e+00 +2.9900265696792199e-04 +0.0000000000000000e+00 +9.9999995529870478e-01
-3.0000000000000013e+00 +9.0445360311242666e+00 +0.0000000000000000e+00 -2.9999999521628253e+00 +3.0931316936578873e-04 +0.0000000000000000e+00 +9.9999995216268067e-01
-3.1000000000000014e+00 +9.0445045842814054e+00 +0.0000000000000000e+00 -3.0999999472178628e+00 +3.1962368910017487e-04 +0.0000000000000000e+00 +9.9999994892034760e-01
-3.2000000000000015e+00 +9.0444721063861984e+00 +0.0000000000000000e+00 -3.1999999419433514e+00 +3.2993421628711998e-04 +0.0000000000000000e+00 +9.9999994557170524e-01
-3.3000000000000016e+00 +9.0444385974378960e+00 +0.0000000000000000e+00 -3.2999999363286601e+00 +3.4024475102493323e-04 +0.0000000000000000e+00 +9.9999994211675325e-01
-3.4000000000000017e+00 +9.0444040574357398e+00 +0.0000000000000000e+00 -3.3999999303631583e+00 +3.5055529339419236e-04 +0.0000000000000000e+00 +9.9999993855549152e-01
-3.5000000000000018e+00 +9.0443684863789624e+00 +0.0000000000000000e+00 -3.4999999240362150e+00 +3.6086584345774254e-04 +0.0000000000000000e+00 +9.9999993488791972e-01
-3.6000000000000019e+00 +9.0443318842667910e+00 +0.0000000000000000e+00 -3.5999999173371986e+00 +3.7117640126069500e-04 +0.0000000000000000e+00 +9.9999993111403751e-01
-3.7000000000000020e+00 +9.0442942510984512e+00 +0.0000000000000000e+00 -3.6999999102554786e+00 +3.8148696683042567e-04 +0.0000000000000000e+00 +9.9999992723384468e-01
-3.8000000000000020e+00 +9.0442555868731649e+00 +0.0000000000000000e+00 -3.7999999027804239e+00 +3.9179754017657349e-04 +0.0000000000000000e+00 +9.9999992324734110e-01
-3.9000000000000021e+00 +9.0442158915901558e+00 +0.0000000000000000e+00 -3.8999998949014030e+00 +4.0210812129103888e-04 +0.0000000000000000e+00 +9.9999991915452646e-01
-4.0000000000000018e+00 +9.0441751652486477e+00 +0.0000000000000000e+00 -3.9999998866077853e+00 +4.1241871014798166e-04 +0.0000000000000000e+00 +9.9999991495540053e-01
-4.1000000000000014e+00 +9.0441334078478697e+00 +0.0000000000000000e+00 -4.0999998778889397e+00 +4.2272930670398794e-04 +0.0000000000000000e+00 +9.9999991064996296e-01
-4.2000000000000011e+00 +9.0440906193870525e+00 +0.0000000000000000e+00 -4.1999998687342348e+00 +4.3303991089992431e-04 +0.0000000000000000e+00 +9.9999990623821366e-01
-4.3000000000000007e+00 +9.0440467998654377e+00 +0.0000000000000000e+00 -4.2999998591330391e+00 +4.4335052266279305e-04 +0.0000000000000000e+00 +9.9999990172015252e-01
-4.4000000000000004e+00 +9.0440019492822721e+00 +0.0000000000000000e+00 -4.3999998490747219e+00 +4.5366114190590061e-04 +0.0000000000000000e+00 +9.9999989709577919e-01
-4.5000000000000000e+00 +9.0439560676368114e+00 +0.0000000000000000e+00 -4.4999998385486517e+00 +4.6397176852885734e-04 +0.0000000000000000e+00 +9.9999989236509357e-01
-4.5999999999999996e+00 +9.0439091549283237e+00 +0.0000000000000000e+00 -4.5999998275441971e+00 +4.7428240241757704e-04 +0.0000000000000000e+00 +9.9999988752809543e-01
-4.6999999999999993e+00 +9.0438612111560897e+00 +0.0000000000000000e+00 -4.6999998160507275e+00 +4.8459304344427678e-04 +0.0000000000000000e+00 +9.9999988258478456e-01
-4.7999999999999989e+00 +9.0438122363194022e+00 +0.0000000000000000e+00 -4.7999998040576104e+00 +4.9490369146747658e-04 +0.0000000000000000e+00 +9.9999987753516095e-01
-4.8999999999999986e+00 +9.0437622304175687e+00 +0.0000000000000000e+00 -4.8999997915542153e+00 +5.0521434633199892e-04 +0.0000000000000000e+00 +9.9999987237922439e-01
-4.9999999999999982e+00 +9.0437111934499139e+00 +0.0000000000000000e+00 -4.9999997785299115e+00 +5.1552500786896836e-04 +0.0000000000000000e+00 +9.9999986711697475e-01
-5.0999999999999979e+00 +9.0436591254157790e+00 +0.0000000000000000e+00 -5.0999997649740667e+00 +5.2583567589581121e-04 +0.0000000000000000e+00 +9.9999986174841182e-01
-5.1999999999999975e+00 +9.0436060263145244e+00 +0.0000000000000000e+00 -5.1999997508760503e+00 +5.3614635021625523e-04 +0.0000000000000000e+00 +9.9999985627353560e-01
-5.2999999999999972e+00 +9.0435518961455319e+00 +0.0000000000000000e+00 -5.2999997362252307e+00 +5.4645703062032895e-04 +0.0000000000000000e+00 +9.9999985069234609e-01
-5.3999999999999968e+00 +9.0434967349082047e+00 +0.0000000000000000e+00 -5.3999997210109765e+00 +5.5676771688436145e-04 +0.0000000000000000e+00 +9.9999984500484307e-01
-5.4999999999999964e+00 +9.0434405426019673e+00 +0.0000000000000000e+00 -5.4999997052226561e+00 +5.6707840877098174e-04 +0.0000000000000000e+00 +9.9999983921102664e-01
-5.5999999999999961e+00 +9.0433833192262707e+00 +0.0000000000000000e+00 -5.5999996888496382e+00 +5.7738910602911830e-04 +0.0000000000000000e+00 +9.9999983331089659e-01
-5.6999999999999957e+00 +9.0433250647805909e+00 +0.0000000000000000e+00 -5.6999996718812920e+00 +5.8769980839399878e-04 +0.0000000000000000e+00 +9.9999982730445303e-01
-5.7999999999999954e+00 +9.0432657792644306e+00 +0.0000000000000000e+00 -5.7999996543069852e+00 +5.9801051558714909e-04 +0.0000000000000000e+00 +9.9999982119169595e-01
-5.8999999999999950e+00 +9.0432054626773226e+00 +0.0000000000000000e+00 -5.8999996361160871e+00 +6.0832122731639324e-04 +0.0000000000000000e+00 +9.9999981497262536e-01
-5.9999999999999947e+00 +9.0431441150188263e+00 +0.0000000000000000e+00 -5.9999996172979664e+00 +6.1863194327585252e-04 +0.0000000000000000e+00 +9.9999980864724136e-01
-6.0999999999999943e+00 +9.0430817362885367e+00 +0.0000000000000000e+00 -6.0999995978419914e+00 +6.2894266314717027e-04 +0.0000000000000000e+00 +9.9999980221554396e-01
-6.1999999999999940e+00 +9.0430183264860773e+00 +0.0000000000000000e+00 -6.1999995777375316e+00 +6.3925338661298598e-04 +0.0000000000000000e+00 +9.9999979567753328e-01
-6.2999999999999936e+00 +9.0429538856111051e+00 +0.0000000000000000e+00 -6.2999995569739546e+00 +6.4956411337041011e-04 +0.0000000000000000e+00 +9.9999978903320941e-01
-6.3999999999999932e+00 +9.0428884136633041e+00 +0.0000000000000000e+00 -6.3999995355406298e+00 +6.5987484313224855e-04 +0.0000000000000000e+00 +9.9999978228257236e-01
-6.4999999999999929e+00 +9.0428219106423882e+00 +0.0000000000000000e+00 -6.4999995134269257e+00 +6.7018557562700158e-04 +0.0000000000000000e+00 +9.9999977542562224e-01
-6.5999999999999925e+00 +9.0427543765480962e+00 +0.0000000000000000e+00 -6.5999994906222108e+00 +6.8049631059886341e-04 +0.0000000000000000e+00 +9.9999976846235916e-01
-6.6999999999999922e+00 +9.0426858113801938e+00 +0.0000000000000000e+00 -6.6999994671158536e+00 +6.9080704780772142e-04 +0.0000000000000000e+00 +9.9999976139278324e-01
-6.7999999999999918e+00 +9.0426162151384677e+00 +0.0000000000000000e+00 -6.7999994428972235e+00 +7.0111778702915519e-04 +0.0000000000000000e+00 +9.9999975421689447e-01
-6.8999999999999915e+00 +9.0425455878227279e+00 +0.0000000000000000e+00 -6.8999994179556889e+00 +7.1142852805443596e-04 +0.0000000000000000e+00 +9.9999974693469307e-01
-6.9999999999999911e+00 +9.0424739294328038e+00 +0.0000000000000000e+00 -6.9999993922806185e+00 +7.2173927069052576e-04 +0.0000000000000000e+00 +9.9999973954617905e-01
-7.0999999999999908e+00 +9.0424012399685427e+00 +0.0000000000000000e+00 -7.0999993658613807e+00 +7.3205001476007645e-04 +0.0000000000000000e+00 +9.9999973205135240e-01
-7.1999999999999904e+00 +9.0423275194298096e+00 +0.0000000000000000e+00 -7.1999993386873449e+00 +7.4236076010142902e-04 +0.0000000000000000e+00 +9.9999972445021335e-01
-7.2999999999999901e+00 +9.0422527678164855e+00 +0.0000000000000000e+00 -7.2999993107478796e+00 +7.5267150656861258e-04 +0.0000000000000000e+00 +9.9999971674276189e-01
-7.3999999999999897e+00 +9.0421769851284637e+00 +0.0000000000000000e+00 -7.3999992820323532e+00 +7.6298225403134353e-04 +0.0000000000000000e+00 +9.9999970892899803e-01
-7.4999999999999893e+00 +9.0421001713656501e+00 +0.0000000000000000e+00 -7.4999992525301353e+00 +7.7329300237502486e-04 +0.0000000000000000e+00 +9.9999970100892188e-01
-7.5999999999999890e+00 +9.0420223265279631e+00 +0.0000000000000000e+00 -7.5999992222305943e+00 +7.8360375150074500e-04 +0.0000000000000000e+00 +9.9999969298253355e-01
-7.6999999999999886e+00 +9.0419434506153280e+00 +0.0000000000000000e+00 -7.6999991911230987e+00 +7.9391450132527681e-04 +0.0000000000000000e+00 +9.9999968484983304e-01
-7.7999999999999883e+00 +9.0418635436276773e+00 +0.0000000000000000e+00 -7.7999991591970170e+00 +8.0422525178107667e-04 +0.0000000000000000e+00 +9.9999967661082034e-01
-7.8999999999999879e+00 +9.0417826055649524e+00 +0.0000000000000000e+00 -7.8999991264417186e+00 +8.1453600281628370e-04 +0.0000000000000000e+00 +9.9999966826549547e-01
-7.9999999999999876e+00 +9.0417006364270964e+00 +0.0000000000000000e+00 -7.9999990928465721e+00 +8.2484675439471852e-04 +0.0000000000000000e+00 +9.9999965981385841e-01
-8.0999999999999872e+00 +9.0416176362140561e+00 +0.0000000000000000e+00 -8.0999990584009467e+00 +8.3515750649594241e-04 +0.0000000000000000e+00 +9.9999965125590928e-01
-8.1999999999999869e+00 +9.0415336049257800e+00 +0.0000000000000000e+00 -8.1999990230942110e+00 +8.4546825911591768e-04 +0.0000000000000000e+00 +9.9999964259164797e-01
-8.2999999999999865e+00 +9.0414485425622146e+00 +0.0000000000000000e+00 -8.2999989869157336e+00 +8.5577901226767080e-04 +0.0000000000000000e+00 +9.9999963382107449e-01
-8.3999999999999861e+00 +9.0413624491233069e+00 +0.0000000000000000e+00 -8.3999989498548828e+00 +8.6608976598135648e-04 +0.0000000000000000e+00 +9.9999962494418870e-01
-8.4999999999999858e+00 +9.0412753246089981e+00 +0.0000000000000000e+00 -8.4999989119010273e+00 +8.7640052030426164e-04 +0.0000000000000000e+00 +9.9999961596099063e-01
-8.5999999999999854e+00 +9.0411871690192243e+00 +0.0000000000000000e+00 -8.5999988730435373e+00 +8.8671127530080970e-04 +0.0000000000000000e+00 +9.9999960687148026e-01
-8.6999999999999851e+00 +9.0410979823539126e+00 +0.0000000000000000e+00 -8.6999988332717795e+00 +8.9702203105256485e-04 +0.0000000000000000e+00 +9.9999959767565738e-01
-8.7999999999999847e+00 +9.0410077646129849e+00 +0.0000000000000000e+00 -8.7999987925751242e+00 +9.0733278765823644e-04 +0.0000000000000000e+00 +9.9999958837352187e-01
-8.8999999999999844e+00 +9.0409165157963489e+00 +0.0000000000000000e+00 -8.8999987509429399e+00 +9.1764354523368361e-04 +0.0000000000000000e+00 +9.9999957896507363e-01
-8.9999999999999840e+00 +9.0408242359039015e+00 +0.0000000000000000e+00 -8.9999987083645951e+00 +9.2795430391192008e-04 +0.0000000000000000e+00 +9.9999956945031254e-01
-9.0999999999999837e+00 +9.0407309249355254e+00 +0.0000000000000000e+00 -9.0999986648294584e+00 +9.3826506384311903e-04 +0.0000000000000000e+00 +9.9999955982923838e-01
-9.1999999999999833e+00 +9.0406365828910857e+00 +0.0000000000000000e+00 -9.1999986203268982e+00 +9.4857582519461794e-04 +0.0000000000000000e+00 +9.9999955010185104e-01
-9.2999999999999829e+00 +9.0405412097704332e+00 +0.0000000000000000e+00 -9.2999985748462848e+00 +9.5888658815092363e-04 +0.0000000000000000e+00 +9.9999954026815019e-01
-9.3999999999999826e+00 +9.0404448055733955e+00 +0.0000000000000000e+00 -9.3999985283769849e+00 +9.6919735291371776e-04 +0.0000000000000000e+00 +9.9999953032813560e-01
-9.4999999999999822e+00 +9.0403473702997825e+00 +0.0000000000000000e+00 -9.4999984809083688e+00 +9.7950811970186217e-04 +0.0000000000000000e+00 +9.9999952028180694e-01
-9.5999999999999819e+00 +9.0402489039493794e+00 +0.0000000000000000e+00 -9.5999984324298033e+00 +9.8981888875140402e-04 +0.0000000000000000e+00 +9.9999951012916399e-01
-9.6999999999999815e+00 +9.0401494065219481e+00 +0.0000000000000000e+00 -9.6999983829306586e+00 +1.0001296603155817e-03 +0.0000000000000000e+00 +9.9999949987020642e-01
-9.7999999999999812e+00 +9.0400488780172239e+00 +0.0000000000000000e+00 -9.7999983324003015e+00 +1.0104404346648306e-03 +0.0000000000000000e+00 +9.9999948950493389e-01
-9.8999999999999808e+00 +9.0399473184349137e+00 +0.0000000000000000e+00 -9.8999982808281022e+00 +1.0207512120867892e-03 +0.0000000000000000e+00 +9.9999947903334596e-01
-9.9999999999999805e+00 +9.0398447277746943e+00 +0.0000000000000000e+00 -9.9999982282034274e+00 +1.0310619928863044e-03 +0.0000000000000000e+00 +9.9999946845544230e-01
-1.0099999999999980e+01 +9.0397411060362121e+00 +0.0000000000000000e+00 -1.0099998174515648e+01 +1.0413727773838637e-03 +0.0000000000000000e+00 +9.9999945777122246e-01
-1.0199999999999980e+01 +9.0396364532190834e+00 +0.0000000000000000e+00 -1.0199998119754129e+01 +1.0516835658982756e-03 +0.0000000000000000e+00 +9.9999944698068588e-01
-1.0299999999999979e+01 +9.0395307693228890e+00 +0.0000000000000000e+00 -1.0299998063908241e+01 +1.0619943587293415e-03 +0.0000000000000000e+00 +9.9999943608383224e-01
-1.0399999999999979e+01 +9.0394240543471849e+00 +0.0000000000000000e+00 -1.0399998006967351e+01 +1.0723051561562717e-03 +0.0000000000000000e+00 +9.9999942508066098e-01
-1.0499999999999979e+01 +9.0393163082914967e+00 +0.0000000000000000e+00 -1.0499997948920829e+01 +1.0826159584376750e-03 +0.0000000000000000e+00 +9.9999941397117176e-01
-1.0599999999999978e+01 +9.0392075311553270e+00 +0.0000000000000000e+00 -1.0599997889758042e+01 +1.0929267658115486e-03 +0.0000000000000000e+00 +9.9999940275536414e-01
-1.0699999999999978e+01 +9.0390977229381573e+00 +0.0000000000000000e+00 -1.0699997829468357e+01 +1.1032375784952679e-03 +0.0000000000000000e+00 +9.9999939143323768e-01
-1.0799999999999978e+01 +9.0389868836394456e+00 +0.0000000000000000e+00 -1.0799997768041145e+01 +1.1135483966855757e-03 +0.0000000000000000e+00 +9.9999938000479205e-01
-1.0899999999999977e+01 +9.0388750132586306e+00 +0.0000000000000000e+00 -1.0899997705465772e+01 +1.1238592205585710e-03 +0.0000000000000000e+00 +9.9999936847002691e-01
-1.0999999999999977e+01 +9.0387621117951387e+00 +0.0000000000000000e+00 -1.0999997641731607e+01 +1.1341700502696984e-03 +0.0000000000000000e+00 +9.9999935682894181e-01
-1.1099999999999977e+01 +9.0386481792483782e+00 +0.0000000000000000e+00 -1.1099997576828017e+01 +1.1444808859537360e-03 +0.0000000000000000e+00 +9.9999934508153654e-01
-1.1199999999999976e+01 +9.0385332156177451e+00 +0.0000000000000000e+00 -1.1199997510744369e+01 +1.1547917277247839e-03 +0.0000000000000000e+00 +9.9999933322781065e-01
-1.1299999999999976e+01 +9.0384172209026268e+00 +0.0000000000000000e+00 -1.1299997443470033e+01 +1.1651025756762527e-03 +0.0000000000000000e+00 +9.9999932126776392e-01
-1.1399999999999975e+01 +9.0383001951024013e+00 +0.0000000000000000e+00 -1.1399997374994378e+01 +1.1754134298808500e-03 +0.0000000000000000e+00 +9.9999930920139601e-01
-1.1499999999999975e+01 +9.0381821382164400e+00 +0.0000000000000000e+00 -1.1499997305306769e+01 +1.1857242903905696e-03 +0.0000000000000000e+00 +9.9999929702870671e-01
-1.1599999999999975e+01 +9.0380630502441122e+00 +0.0000000000000000e+00 -1.1599997234396575e+01 +1.1960351572366775e-03 +0.0000000000000000e+00 +9.9999928474969579e-01
-1.1699999999999974e+01 +9.0379429311847819e+00 +0.0000000000000000e+00 -1.1699997162253164e+01 +1.2063460304296990e-03 +0.0000000000000000e+00 +9.9999927236436292e-01
