# field on trajectory
# s[mm] rx[mm] ry[mm] rz[mm] bx[T] by[T] bz[T]
0.0000000000000000e+00 +9.0449999999999999e+00 +0.0000000000000000e+00 +0.0000000000000000e+00 +2.2712543980903184e-03 -4.1119899442336044e-02 -2.7892037022776380e-04
1.0000000000000001e-01 +9.0449994822831083e+00 +0.0000000000000000e+00 +9.9999999998213129e-02 +2.2713170230515968e-03 -4.1119699248072565e-02 -2.7892637340283727e-04
2.0000000000000001e-01 +9.0449979291358051e+00 +0.0000000000000000e+00 +1.9999999998570506e-01 +2.2713791262085571e-03 -4.1119496401504689e-02 -2.7893268032928761e-04
3.0000000000000004e-01 +9.0449953405631973e+00 +0.0000000000000000e+00 +2.9999999995175480e-01 +2.2714406655986682e-03 -4.1119291031662411e-02 -2.7893929186319021e-04
4.0000000000000002e-01 +9.0449917165704576e+00 +0.0000000000000000e+00 +3.9999999988564150e-01 +2.2715015992546819e-03 -4.1119083267580257e-02 -2.7894620885659410e-04
5.0000000000000000e-01 +9.0449870571628175e+00 +0.0000000000000000e+00 +4.9999999977664439e-01 +2.2715618852052356e-03 -4.1118873238297556e-02 -2.7895343215913831e-04
5.9999999999999998e-01 +9.0449813623455650e+00 +0.0000000000000000e+00 +5.9999999961404304e-01 +2.2716214814754374e-03 -4.1118661072858553e-02 -2.7896096261966651e-04
6.9999999999999996e-01 +9.0449746321240436e+00 +0.0000000000000000e+00 +6.9999999938711688e-01 +2.2716803460874602e-03 -4.1118446900312730e-02 -2.7896880108784378e-04
7.9999999999999993e-01 +9.0449668665036480e+00 +0.0000000000000000e+00 +7.9999999908514585e-01 +2.2717384370611322e-03 -4.1118230849714880e-02 -2.7897694841577192e-04
8.9999999999999991e-01 +9.0449580654898174e+00 +0.0000000000000000e+00 +8.9999999869740999e-01 +2.2717957124145250e-03 -4.1118013050125378e-02 -2.7898540545960495e-04
9.9999999999999989e-01 +9.0449482290880372e+00 +0.0000000000000000e+00 +9.9999999821318930e-01 +2.2718521301645454e-03 -4.1117793630610307e-02 -2.7899417308116509e-04
1.0999999999999999e+00 +9.0449373573038336e+00 +0.0000000000000000e+00 +1.0999999976217643e+00 +2.2719076483275289e-03 -4.1117572720241739e-02 -2.7900325214955796e-04
1.2000000000000000e+00 +9.0449254501427703e+00 +0.0000000000000000e+00 +1.1999999969124151e+00 +2.2719622249198282e-03 -4.1117350448097834e-02 -2.7901264354278853e-04
1.3000000000000000e+00 +9.0449125076104462e+00 +0.0000000000000000e+00 +1.2999999960744226e+00 +2.2720158179584016e-03 -4.1117126943263124e-02 -2.7902234814937670e-04
1.4000000000000001e+00 +9.0448985297124889e+00 +0.0000000000000000e+00 +1.3999999950970679e+00 +2.2720683854614118e-03 -4.1116902334828627e-02 -2.7903236686997247e-04
1.5000000000000002e+00 +9.0448835164545560e+00 +0.0000000000000000e+00 +1.4999999939696316e+00 +2.2721198854488041e-03 -4.1116676751892067e-02 -2.7904270061897198e-04
1.6000000000000003e+00 +9.0448674678423302e+00 +0.0000000000000000e+00 +1.5999999926813953e+00 +2.2721702759429122e-03 -4.1116450323558137e-02 -2.7905335032613255e-04
1.7000000000000004e+00 +9.0448503838815135e+00 +0.0000000000000000e+00 +1.6999999912216399e+00 +2.2722195149690355e-03 -4.1116223178938552e-02 -2.7906431693818900e-04
1.8000000000000005e+00 +9.0448322645778276e+00 +0.0000000000000000e+00 +1.7999999895796475e+00 +2.2722675605560379e-03 -4.1115995447152394e-02 -2.7907560142046767e-04
1.9000000000000006e+00 +9.0448131099370084e+00 +0.0000000000000000e+00 +1.8999999877446996e+00 +2.2723143707369356e-03 -4.1115767257326172e-02 -2.7908720475850336e-04
2.0000000000000004e+00 +9.0447929199648041e+00 +0.0000000000000000e+00 +1.9999999857060780e+00 +2.2723599035494916e-03 -4.1115538738594110e-02 -2.7909912795965420e-04
2.1000000000000005e+00 +9.0447716946669701e+00 +0.0000000000000000e+00 +2.0999999834530652e+00 +2.2724041294282251e-03 -4.1115310000341285e-02 -2.7911136244481832e-04
2.2000000000000006e+00 +9.0447494340492689e+00 +0.0000000000000000e+00 +2.1999999809749431e+00 +2.2724470683771450e-03 -4.1115081072929029e-02 -2.7912386121179631e-04
2.3000000000000007e+00 +9.0447261381174666e+00 +0.0000000000000000e+00 +2.2999999782609941e+00 +2.2724887527919065e-03 -4.1114851966958875e-02 -2.7913656765032147e-04
2.4000000000000008e+00 +9.0447018068773364e+00 +0.0000000000000000e+00 +2.3999999753005010e+00 +2.2725292150677064e-03 -4.1114622693027569e-02 -2.7914942514861642e-04
2.5000000000000009e+00 +9.0446764403346531e+00 +0.0000000000000000e+00 +2.4999999720827470e+00 +2.2725684875991143e-03 -4.1114393261725911e-02 -2.7916237709202867e-04
2.6000000000000010e+00 +9.0446500384951971e+00 +0.0000000000000000e+00 +2.5999999685970145e+00 +2.2726066027799119e-03 -4.1114163683637649e-02 -2.7917536686166761e-04
2.7000000000000011e+00 +9.0446226013647522e+00 +0.0000000000000000e+00 +2.6999999648325872e+00 +2.2726435930029228e-03 -4.1113933969338358e-02 -2.7918833783303958e-04
2.8000000000000012e+00 +9.0445941289491056e+00 +0.0000000000000000e+00 +2.7999999607787482e+00 +2.2726794906598479e-03 -4.1113704129394302e-02 -2.7920123337468473e-04
2.9000000000000012e+00 +9.0445646212540485e+00 +0.0000000000000000e+00 +2.8999999564247814e+00 +2.2727143281410962e-03 -4.1113474174361259e-02 -2.7921399684681299e-04
3.0000000000000013e+00 +9.0445340782853734e+00 +0.0000000000000000e+00 +2.9999999517599698e+00 +2.2727481378356277e-03 -4.1113244114783426e-02 -2.7922657159994071e-04
3.1000000000000014e+00 +9.0445025000488766e+00 +0.0000000000000000e+00 +3.0999999467735981e+00 +2.2727809521307729e-03 -4.1113013961192352e-02 -2.7923890097352643e-04
3.2000000000000015e+00 +9.0444698865503579e+00 +0.0000000000000000e+00 +3.1999999414549500e+00 +2.2728128034120798e-03 -4.1112783724105637e-02 -2.7925092829460756e-04
3.3000000000000016e+00 +9.0444362377956189e+00 +0.0000000000000000e+00 +3.2999999357933101e+00 +2.2728437240631411e-03 -4.1112553414026018e-02 -2.7926259687643690e-04
3.4000000000000017e+00 +9.0444015537904612e+00 +0.0000000000000000e+00 +3.3999999297779624e+00 +2.2728737464654280e-03 -4.1112323041440038e-02 -2.7927385001711894e-04
3.5000000000000018e+00 +9.0443658345406899e+00 +0.0000000000000000e+00 +3.4999999233981915e+00 +2.2729029029981240e-03 -4.1112092616817052e-02 -2.7928463099824658e-04
3.6000000000000019e+00 +9.0443290800521119e+00 +0.0000000000000000e+00 +3.5999999166432826e+00 +2.2729312260379576e-03 -4.1111862150607997e-02 -2.7929488308353720e-04
3.7000000000000020e+00 +9.0442912903305341e+00 +0.0000000000000000e+00 +3.6999999095025204e+00 +2.2729587479590413e-03 -4.1111631653244406e-02 -2.7930454951747061e-04
3.8000000000000020e+00 +9.0442524653817635e+00 +0.0000000000000000e+00 +3.7999999019651902e+00 +2.2729855011326969e-03 -4.1111401135137060e-02 -2.7931357352392432e-04
3.9000000000000021e+00 +9.0442126052116105e+00 +0.0000000000000000e+00 +3.8999998940205778e+00 +2.2730115179272919e-03 -4.1111170606675081e-02 -2.7932189830481109e-04
4.0000000000000018e+00 +9.0441717098258820e+00 +0.0000000000000000e+00 +3.9999998856579682e+00 +2.2730368307080735e-03 -4.1110940078224661e-02 -2.7932946703871584e-04
4.1000000000000014e+00 +9.0441297792303885e+00 +0.0000000000000000e+00 +4.0999998768666472e+00 +2.2730614538673320e-03 -4.1110709562926381e-02 -2.7933623992359362e-04
4.2000000000000011e+00 +9.0440868134309405e+00 +0.0000000000000000e+00 +4.1999998676359009e+00 +2.2730853299118879e-03 -4.1110479085100973e-02 -2.7934224531535703e-04
4.3000000000000007e+00 +9.0440428124333447e+00 +0.0000000000000000e+00 +4.2999998579550152e+00 +2.2731083833663962e-03 -4.1110248671874218e-02 -2.7934752860800675e-04
4.4000000000000004e+00 +9.0439977762434083e+00 +0.0000000000000000e+00 +4.3999998478132758e+00 +2.2731305387416649e-03 -4.1110018350382187e-02 -2.7935213519126597e-04
4.5000000000000000e+00 +9.0439517048669344e+00 +0.0000000000000000e+00 +4.4999998371999697e+00 +2.2731517205339317e-03 -4.1109788147772310e-02 -2.7935611045057905e-04
4.5999999999999996e+00 +9.0439045983097266e+00 +0.0000000000000000e+00 +4.5999998261043835e+00 +2.2731718532241411e-03 -4.1109558091204271e-02 -2.7935949976710939e-04
4.6999999999999993e+00 +9.0438564565775810e+00 +0.0000000000000000e+00 +4.6999998145158042e+00 +2.2731908612772214e-03 -4.1109328207851015e-02 -2.7936234851773747e-04
4.7999999999999989e+00 +9.0438072796762921e+00 +0.0000000000000000e+00 +4.7999998024235184e+00 +2.2732086691413531e-03 -4.1109098524899676e-02 -2.7936470207505900e-04
4.8999999999999986e+00 +9.0437570676116490e+00 +0.0000000000000000e+00 +4.8999997898168139e+00 +2.2732252012472552e-03 -4.1108869069552620e-02 -2.7936660580738356e-04
4.9999999999999982e+00 +9.0437058203894356e+00 +0.0000000000000000e+00 +4.9999997766849775e+00 +2.2732403820074471e-03 -4.1108639869028268e-02 -2.7936810507873179e-04
5.0999999999999979e+00 +9.0436535380154286e+00 +0.0000000000000000e+00 +5.0999997630172968e+00 +2.2732541358155400e-03 -4.1108410950562259e-02 -2.7936924524883514e-04
5.1999999999999975e+00 +9.0436002204953976e+00 +0.0000000000000000e+00 +5.1999997488030596e+00 +2.2732663870455049e-03 -4.1108182341408235e-02 -2.7937007167313274e-04
5.2999999999999972e+00 +9.0435458678351033e+00 +0.0000000000000000e+00 +5.2999997340315534e+00 +2.2732770600509449e-03 -4.1107954068838909e-02 -2.7937062970277021e-04
5.3999999999999968e+00 +9.0434904800403011e+00 +0.0000000000000000e+00 +5.3999997186920670e+00 +2.2732860791643806e-03 -4.1107726160147004e-02 -2.7937096468459829e-04
5.4999999999999964e+00 +9.0434340571167358e+00 +0.0000000000000000e+00 +5.4999997027738878e+00 +2.2732933686965195e-03 -4.1107498642646227e-02 -2.7937112196117086e-04
5.5999999999999961e+00 +9.0433765990701431e+00 +0.0000000000000000e+00 +5.5999996862663046e+00 +2.2732988529355347e-03 -4.1107271543672205e-02 -2.7937114687074315e-04
5.6999999999999957e+00 +9.0433181059062466e+00 +0.0000000000000000e+00 +5.6999996691586059e+00 +2.2733024561463451e-03 -4.1107044890583519e-02 -2.7937108474727099e-04
5.7999999999999954e+00 +9.0432585776307590e+00 +0.0000000000000000e+00 +5.7999996514400802e+00 +2.2733041025698847e-03 -4.1106818710762591e-02 -2.7937098092040808e-04
5.8999999999999950e+00 +9.0431980142493842e+00 +0.0000000000000000e+00 +5.8999996331000162e+00 +2.2733037164223849e-03 -4.1106593031616671e-02 -2.7937088071550506e-04
5.9999999999999947e+00 +9.0431364157678100e+00 +0.0000000000000000e+00 +5.9999996141277032e+00 +2.2733012218946534e-03 -4.1106367880578892e-02 -2.7937082945360848e-04
6.0999999999999943e+00 +9.0430737821917120e+00 +0.0000000000000000e+00 +6.0999995945124308e+00 +2.2732965705050605e-03 -4.1106143290372064e-02 -2.7937086439528417e-04
6.1999999999999940e+00 +9.0430101135267531e+00 +0.0000000000000000e+00 +6.1999995742434875e+00 +2.2732898231865714e-03 -4.1105919314782649e-02 -2.7937099057959749e-04
6.2999999999999936e+00 +9.0429454097785804e+00 +0.0000000000000000e+00 +6.2999995533101636e+00 +2.2732810682699485e-03 -4.1105696012842891e-02 -2.7937120500703808e-04
6.3999999999999932e+00 +9.0428796709528232e+00 +0.0000000000000000e+00 +6.3999995317017486e+00 +2.2732703941379523e-03 -4.1105473443562753e-02 -2.7937150469876021e-04
6.4999999999999929e+00 +9.0428128970550929e+00 +0.0000000000000000e+00 +6.4999995094075329e+00 +2.2732578892276931e-03 -4.1105251665928759e-02 -2.7937188669753857e-04
6.5999999999999925e+00 +9.0427450880909799e+00 +0.0000000000000000e+00 +6.5999994864168059e+00 +2.2732436420330056e-03 -4.1105030738903058e-02 -2.7937234806872749e-04
6.6999999999999922e+00 +9.0426762440660564e+00 +0.0000000000000000e+00 +6.6999994627188579e+00 +2.2732277411068027e-03 -4.1104810721422393e-02 -2.7937288590121589e-04
6.7999999999999918e+00 +9.0426063649858683e+00 +0.0000000000000000e+00 +6.7999994383029794e+00 +2.2732102750634476e-03 -4.1104591672396953e-02 -2.7937349730838585e-04
6.8999999999999915e+00 +9.0425354508559401e+00 +0.0000000000000000e+00 +6.8999994131584605e+00 +2.2731913325811114e-03 -4.1104373650709528e-02 -2.7937417942906843e-04
6.9999999999999911e+00 +9.0424635016817678e+00 +0.0000000000000000e+00 +6.9999993872745927e+00 +2.2731710024041377e-03 -4.1104156715214273e-02 -2.7937492942849986e-04
7.0999999999999908e+00 +9.0423905174688226e+00 +0.0000000000000000e+00 +7.0999993606406662e+00 +2.2731493733454066e-03 -4.1103940924735807e-02 -2.7937574449927928e-04
7.1999999999999904e+00 +9.0423164982225455e+00 +0.0000000000000000e+00 +7.1999993332459722e+00 +2.2731265342886935e-03 -4.1103726338068136e-02 -2.7937662186232375e-04
7.2999999999999901e+00 +9.0422414439483489e+00 +0.0000000000000000e+00 +7.2999993050798011e+00 +2.2731025741910414e-03 -4.1103513013973615e-02 -2.7937755876782512e-04
7.3999999999999897e+00 +9.0421653546516119e+00 +0.0000000000000000e+00 +7.3999992761314450e+00 +2.2730775820851098e-03 -4.1103301011181904e-02 -2.7937855249620519e-04
7.4999999999999893e+00 +9.0420882303376793e+00 +0.0000000000000000e+00 +7.4999992463901952e+00 +2.2730516470815458e-03 -4.1103090388388948e-02 -2.7937960035907220e-04
7.5999999999999890e+00 +9.0420100710118643e+00 +0.0000000000000000e+00 +7.5999992158453429e+00 +2.2730248583713495e-03 -4.1102881204255946e-02 -2.7938069970017592e-04
7.6999999999999886e+00 +9.0419308766794426e+00 +0.0000000000000000e+00 +7.6999991844861801e+00 +2.2729973052282274e-03 -4.1102673517408324e-02 -2.7938184789636378e-04
7.7999999999999883e+00 +9.0418506473456528e+00 +0.0000000000000000e+00 +7.7999991523019983e+00 +2.2729690770109602e-03 -4.1102467386434610e-02 -2.7938304235853472e-04
7.8999999999999879e+00 +9.0417693830156942e+00 +0.0000000000000000e+00 +7.8999991192820902e+00 +2.2729402631657624e-03 -4.1102262869885574e-02 -2.7938428053259534e-04
7.9999999999999876e+00 +9.0416870836947236e+00 +0.0000000000000000e+00 +7.9999990854157472e+00 +2.2729109532286457e-03 -4.1102060026273028e-02 -2.7938555990041482e-04
8.0999999999999872e+00 +9.0416037493878587e+00 +0.0000000000000000e+00 +8.0999990506922614e+00 +2.2728812082417602e-03 -4.1101858906467136e-02 -2.7938688480505833e-04
8.1999999999999869e+00 +9.0415193801001728e+00 +0.0000000000000000e+00 +8.1999990151009250e+00 +2.2728509749459173e-03 -4.1101659530904083e-02 -2.7938828690837855e-04
8.2999999999999865e+00 +9.0414339758366946e+00 +0.0000000000000000e+00 +8.2999989786310309e+00 +2.2728201714554545e-03 -4.1101461912417266e-02 -2.7938980468838581e-04
8.3999999999999861e+00 +9.0413475366024088e+00 +0.0000000000000000e+00 +8.3999989412718712e+00 +2.2727887158317758e-03 -4.1101266063843379e-02 -2.7939147660983096e-04
8.4999999999999858e+00 +9.0412600624022588e+00 +0.0000000000000000e+00 +8.4999989030127399e+00 +2.2727565260812436e-03 -4.1101071998022751e-02 -2.7939334112360025e-04
8.5999999999999854e+00 +9.0411715532411385e+00 +0.0000000000000000e+00 +8.5999988638429272e+00 +2.2727235201530668e-03 -4.1100879727799654e-02 -2.7939543666611320e-04
8.6999999999999851e+00 +9.0410820091238993e+00 +0.0000000000000000e+00 +8.6999988237517289e+00 +2.2726896159371950e-03 -4.1100689266022665e-02 -2.7939780165871892e-04
8.7999999999999847e+00 +9.0409914300553478e+00 +0.0000000000000000e+00 +8.7999987827284354e+00 +2.2726547312622095e-03 -4.1100500625544989e-02 -2.7940047450709184e-04
8.8999999999999844e+00 +9.0408998160402430e+00 +0.0000000000000000e+00 +8.8999987407623422e+00 +2.2726187838932126e-03 -4.1100313819224826e-02 -2.7940349360062886e-04
8.9999999999999840e+00 +9.0408071670832975e+00 +0.0000000000000000e+00 +8.9999986978427415e+00 +2.2725816915297190e-03 -4.1100128859925603e-02 -2.7940689731184522e-04
9.0999999999999837e+00 +9.0407134831891796e+00 +0.0000000000000000e+00 +9.0999986539589255e+00 +2.2725433718035495e-03 -4.1099945760516447e-02 -2.7941072399577128e-04
9.1999999999999833e+00 +9.0406187643625113e+00 +0.0000000000000000e+00 +9.1999986091001880e+00 +2.2725037422767218e-03 -4.1099764533872402e-02 -2.7941501198934830e-04
9.2999999999999829e+00 +9.0405230106078651e+00 +0.0000000000000000e+00 +9.2999985632558229e+00 +2.2724627204393456e-03 -4.1099585192874828e-02 -2.7941979961082530e-04
9.3999999999999826e+00 +9.0404262219297671e+00 +0.0000000000000000e+00 +9.3999985164151241e+00 +2.2724202237075098e-03 -4.1099407750411696e-02 -2.7942512515915510e-04
9.4999999999999822e+00 +9.0403283983326954e+00 +0.0000000000000000e+00 +9.4999984685673855e+00 +2.2723761694211798e-03 -4.1099232219377960e-02 -2.7943102691339021e-04
9.5999999999999819e+00 +9.0402295398210804e+00 +0.0000000000000000e+00 +9.5999984197019010e+00 +2.2723304748420866e-03 -4.1099058612675862e-02 -2.7943754313207924e-04
9.6999999999999815e+00 +9.0401296463993042e+00 +0.0000000000000000e+00 +9.6999983698079646e+00 +2.2722830571516245e-03 -4.1098886943215326e-02 -2.7944471205266325e-04
9.7999999999999812e+00 +9.0400287180717012e+00 +0.0000000000000000e+00 +9.7999983188748683e+00 +2.2722338334487408e-03 -4.1098717223914165e-02 -2.7945257189087149e-04
9.8999999999999808e+00 +9.0399267548425559e+00 +0.0000000000000000e+00 +9.8999982668919078e+00 +2.2721827207478318e-03 -4.1098549467698593e-02 -2.7946116084011781e-04
9.9999999999999805e+00 +9.0398237567161015e+00 +0.0000000000000000e+00 +9.9999982138483769e+00 +2.2721296359766337e-03 -4.1098383687503369e-02 -2.7947051707089606e-04
1.0099999999999980e+01 +9.0397197236965265e+00 +0.0000000000000000e+00 +1.0099998159733570e+01 +2.2720745214809138e-03 -4.1098219904465126e-02 -2.7948065847107966e-04
1.0199999999999980e+01 +9.0396146557879646e+00 +0.0000000000000000e+00 +1.0199998104536782e+01 +2.2720174215798920e-03 -4.1098058172520296e-02 -2.7949152187342835e-04
1.0299999999999979e+01 +9.0395085529944978e+00 +0.0000000000000000e+00 +1.0299998048247305e+01 +2.2719584060975420e-03 -4.1097898553857856e-02 -2.7950302385182959e-04
1.0399999999999979e+01 +9.0394014153201585e+00 +0.0000000000000000e+00 +1.0399997990854436e+01 +2.2718975448611004e-03 -4.1097741110731563e-02 -2.7951508098508819e-04
1.0499999999999979e+01 +9.0392932427689221e+00 +0.0000000000000000e+00 +1.0499997932347469e+01 +2.2718349077012990e-03 -4.1097585905461580e-02 -2.7952760985704915e-04
1.0599999999999978e+01 +9.0391840353447090e+00 +0.0000000000000000e+00 +1.0599997872715697e+01 +2.2717705644525873e-03 -4.1097433000436154e-02 -2.7954052705672042e-04
1.0699999999999978e+01 +9.0390737930513811e+00 +0.0000000000000000e+00 +1.0699997811948416e+01 +2.2717045849533673e-03 -4.1097282458113157e-02 -2.7955374917839525e-04
1.0799999999999978e+01 +9.0389625158927398e+00 +0.0000000000000000e+00 +1.0799997750034921e+01 +2.2716370390462163e-03 -4.1097134341021829e-02 -2.7956719282177600e-04
1.0899999999999977e+01 +9.0388502038725278e+00 +0.0000000000000000e+00 +1.0899997686964506e+01 +2.2715679965781186e-03 -4.1096988711764350e-02 -2.7958077459209725e-04
1.0999999999999977e+01 +9.0387368569944222e+00 +0.0000000000000000e+00 +1.0999997622726465e+01 +2.2714975274006886e-03 -4.1096845633017416e-02 -2.7959441110024980e-04
1.1099999999999977e+01 +9.0386224752620397e+00 +0.0000000000000000e+00 +1.1099997557310093e+01 +2.2714257013704046e-03 -4.1096705167533887e-02 -2.7960801896290501e-04
1.1199999999999976e+01 +9.0385070586789293e+00 +0.0000000000000000e+00 +1.1199997490704687e+01 +2.2713525883488314e-03 -4.1096567378144537e-02 -2.7962151480263967e-04
1.1299999999999976e+01 +9.0383906072485711e+00 +0.0000000000000000e+00 +1.1299997422899541e+01 +2.2712782582028500e-03 -4.1096432327759461e-02 -2.7963481524805999e-04
1.1399999999999975e+01 +9.0382731209743810e+00 +0.0000000000000000e+00 +1.1399997353883947e+01 +2.2712027808048803e-03 -4.1096300079369888e-02 -2.7964783693392809e-04
1.1499999999999975e+01 +9.0381545998596984e+00 +0.0000000000000000e+00 +1.1499997283647202e+01 +2.2711262260331133e-03 -4.1096170696049726e-02 -2.7966049650128669e-04
1.1599999999999975e+01 +9.0380350439077954e+00 +0.0000000000000000e+00 +1.1599997212178602e+01 +2.2710486637717350e-03 -4.1096044240957141e-02 -2.7967271059758594e-04
1.1699999999999974e+01 +9.0379144531218696e+00 +0.0000000000000000e+00 +1.1699997139467442e+01 +2.2709701639111509e-03 -4.1095920777336273e-02 -2.7968439587680913e-04
1.1799999999999974e+01 +9.0377928275050419e+00 +0.0000000000000000e+00 +1.1799997065503016e+01 +2.2708907963482168e-03 -4.1095800368518801e-02 -2.7969546899959995e-04
