# trajectory
# s[mm] rx[mm] ry[mm] rz[mm] px[rad] py[rad] pz[rad]
0.0000000000000000e+00 +9.1463000000000001e+00 +0.0000000000000000e+00 +0.0000000000000000e+00 +0.0000000000000000e+00 +0.0000000000000000e+00 +1.0000000000000000e+00
1.0000000000000001e-01 +9.1462994835836096e+00 +0.0000000000000000e+00 +9.9999999998222108e-02 -1.0328329617958143e-05 +0.0000000000000000e+00 +9.9999999994666278e-01
2.0000000000000001e-01 +9.1462979343337221e+00 +0.0000000000000000e+00 +1.9999999998577675e-01 -2.0656669866356510e-05 +0.0000000000000000e+00 +9.9999999978665099e-01
3.0000000000000004e-01 +9.1462953522492985e+00 +0.0000000000000000e+00 +2.9999999995199650e-01 -3.0985020241396384e-05 +0.0000000000000000e+00 +9.9999999951996421e-01
4.0000000000000002e-01 +9.1462917373293529e+00 +0.0000000000000000e+00 +3.9999999988621376e-01 -4.1313380248916531e-05 +0.0000000000000000e+00 +9.9999999914660220e-01
5.0000000000000000e-01 +9.1462870895729438e+00 +0.0000000000000000e+00 +4.9999999977776105e-01 -5.1641749404390617e-05 +0.0000000000000000e+00 +9.9999999866656475e-01
5.9999999999999998e-01 +9.1462814089791831e+00 +0.0000000000000000e+00 +5.9999999961597084e-01 -6.1970127234200624e-05 +0.0000000000000000e+00 +9.9999999807985152e-01
6.9999999999999996e-01 +9.1462746955472234e+00 +0.0000000000000000e+00 +6.9999999939017554e-01 -7.2298513289674969e-05 +0.0000000000000000e+00 +9.9999999738646239e-01
7.9999999999999993e-01 +9.1462669492762636e+00 +0.0000000000000000e+00 +7.9999999908970754e-01 -8.2626907161127458e-05 +0.0000000000000000e+00 +9.9999999658639704e-01
8.9999999999999991e-01 +9.1462581701655417e+00 +0.0000000000000000e+00 +8.9999999870389913e-01 -9.2955308479132233e-05 +0.0000000000000000e+00 +9.9999999567965525e-01
9.9999999999999989e-01 +9.1462483582143292e+00 +0.0000000000000000e+00 +9.9999999822208274e-01 -1.0328371691452255e-04 +0.0000000000000000e+00 +9.9999999466623679e-01
1.0999999999999999e+00 +9.1462375134219300e+00 +0.0000000000000000e+00 +1.0999999976335906e+00 -1.1361213217838996e-04 +0.0000000000000000e+00 +9.9999999354614155e-01
1.2000000000000000e+00 +9.1462256357876743e+00 +0.0000000000000000e+00 +1.1999999969277551e+00 -1.2394055402208389e-04 +0.0000000000000000e+00 +9.9999999231936931e-01
1.3000000000000000e+00 +9.1462127253109138e+00 +0.0000000000000000e+00 +1.2999999960939084e+00 -1.3426898223721148e-04 +0.0000000000000000e+00 +9.9999999098591996e-01
1.4000000000000001e+00 +9.1461987819910195e+00 +0.0000000000000000e+00 +1.3999999951213831e+00 -1.4459741665563789e-04 +0.0000000000000000e+00 +9.9999998954579328e-01
1.5000000000000002e+00 +9.1461838058273788e+00 +0.0000000000000000e+00 +1.4999999939995112e+00 -1.5492585714948690e-04 +0.0000000000000000e+00 +9.9999998799898915e-01
1.6000000000000003e+00 +9.1461677968193893e+00 +0.0000000000000000e+00 +1.5999999927176249e+00 -1.6525430363114197e-04 +0.0000000000000000e+00 +9.9999998634550735e-01
1.7000000000000004e+00 +9.1461507549664542e+00 +0.0000000000000000e+00 +1.6999999912650567e+00 -1.7558275605324749e-04 +0.0000000000000000e+00 +9.9999998458534767e-01
1.8000000000000005e+00 +9.1461326802679803e+00 +0.0000000000000000e+00 +1.7999999896311385e+00 -1.8591121440871057e-04 +0.0000000000000000e+00 +9.9999998271850987e-01
1.9000000000000006e+00 +9.1461135727233724e+00 +0.0000000000000000e+00 +1.8999999878052027e+00 -1.9623967873070309e-04 +0.0000000000000000e+00 +9.9999998074499385e-01
2.0000000000000004e+00 +9.1460934323320320e+00 +0.0000000000000000e+00 +1.9999999857765813e+00 -2.0656814909266418e-04 +0.0000000000000000e+00 +9.9999997866479950e-01
2.1000000000000005e+00 +9.1460722590933496e+00 +0.0000000000000000e+00 +2.0999999835346066e+00 -2.1689662560830296e-04 +0.0000000000000000e+00 +9.9999997647792649e-01
2.2000000000000006e+00 +9.1460500530067002e+00 +0.0000000000000000e+00 +2.1999999810686108e+00 -2.2722510843160179e-04 +0.0000000000000000e+00 +9.9999997418437458e-01
2.3000000000000007e+00 +9.1460268140714458e+00 +0.0000000000000000e+00 +2.2999999783679259e+00 -2.3755359775681973e-04 +0.0000000000000000e+00 +9.9999997178414357e-01
2.4000000000000008e+00 +9.1460025422869240e+00 +0.0000000000000000e+00 +2.3999999754218839e+00 -2.4788209381849653e-04 +0.0000000000000000e+00 +9.9999996927723322e-01
2.5000000000000009e+00 +9.1459772376524473e+00 +0.0000000000000000e+00 +2.4999999722198170e+00 -2.5821059689145676e-04 +0.0000000000000000e+00 +9.9999996666364321e-01
2.6000000000000010e+00 +9.1459509001673016e+00 +0.0000000000000000e+00 +2.5999999687510567e+00 -2.6853910728548419e-04 +0.0000000000000000e+00 +9.9999996394337320e-01
2.7000000000000011e+00 +9.1459235298307373e+00 +0.0000000000000000e+00 +2.6999999650049356e+00 -2.7886762528669213e-04 +0.0000000000000000e+00 +9.9999996111642298e-01
2.8000000000000012e+00 +9.1458951266419835e+00 +0.0000000000000000e+00 +2.7999999609707853e+00 -2.8919615109888978e-04 +0.0000000000000000e+00 +9.9999995818279219e-01
2.9000000000000012e+00 +9.1458656906002531e+00 +0.0000000000000000e+00 +2.8999999566379380e+00 -2.9952468483824944e-04 +0.0000000000000000e+00 +9.9999995514248052e-01
3.0000000000000013e+00 +9.1458352217047505e+00 +0.0000000000000000e+00 +2.9999999519957252e+00 -3.0985322653330369e-04 +0.0000000000000000e+00 +9.9999995199548775e-01
3.1000000000000014e+00 +9.1458037199546833e+00 +0.0000000000000000e+00 +3.0999999470334791e+00 -3.2018177612494199e-04 +0.0000000000000000e+00 +9.9999994874181375e-01
3.2000000000000015e+00 +9.1457711853492683e+00 +0.0000000000000000e+00 +3.1999999417405318e+00 -3.3051033346640727e-04 +0.0000000000000000e+00 +9.9999994538145820e-01
3.3000000000000016e+00 +9.1457376178877396e+00 +0.0000000000000000e+00 +3.2999999361062149e+00 -3.4083889832329188e-04 +0.0000000000000000e+00 +9.9999994191442099e-01
3.4000000000000017e+00 +9.1457030175693639e+00 +0.0000000000000000e+00 +3.3999999301198600e+00 -3.5116747037353319e-04 +0.0000000000000000e+00 +9.9999993834070200e-01
3.5000000000000018e+00 +9.1456673843934393e+00 +0.0000000000000000e+00 +3.4999999237707993e+00 -3.6149604920740903e-04 +0.0000000000000000e+00 +9.9999993466030113e-01
3.6000000000000019e+00 +9.1456307183593122e+00 +0.0000000000000000e+00 +3.5999999170483643e+00 -3.7182463432753259e-04 +0.0000000000000000e+00 +9.9999993087321837e-01
3.7000000000000020e+00 +9.1455930194663839e+00 +0.0000000000000000e+00 +3.6999999099418868e+00 -3.8215322514884720e-04 +0.0000000000000000e+00 +9.9999992697945372e-01
3.8000000000000020e+00 +9.1455542877141163e+00 +0.0000000000000000e+00 +3.7999999024406987e+00 -3.9248182099862035e-04 +0.0000000000000000e+00 +9.9999992297900731e-01
3.9000000000000021e+00 +9.1455145231020420e+00 +0.0000000000000000e+00 +3.8999998945341319e+00 -4.0281042111643781e-04 +0.0000000000000000e+00 +9.9999991887187922e-01
4.0000000000000018e+00 +9.1454737256297776e+00 +0.0000000000000000e+00 +3.9999998862115183e+00 -4.1313902465419706e-04 +0.0000000000000000e+00 +9.9999991465806970e-01
4.1000000000000014e+00 +9.1454318952970279e+00 +0.0000000000000000e+00 +4.0999998774621895e+00 -4.2346763067610061e-04 +0.0000000000000000e+00 +9.9999991033757907e-01
4.2000000000000011e+00 +9.1453890321035942e+00 +0.0000000000000000e+00 +4.1999998682754782e+00 -4.3379623815864875e-04 +0.0000000000000000e+00 +9.9999990591040766e-01
4.3000000000000007e+00 +9.1453451360493840e+00 +0.0000000000000000e+00 +4.2999998586407155e+00 -4.4412484599063205e-04 +0.0000000000000000e+00 +9.9999990137655592e-01
4.4000000000000004e+00 +9.1453002071344240e+00 +0.0000000000000000e+00 +4.3999998485472336e+00 -4.5445345297312359e-04 +0.0000000000000000e+00 +9.9999989673602441e-01
4.5000000000000000e+00 +9.1452542453588617e+00 +0.0000000000000000e+00 +4.4999998379843644e+00 -4.6478205781947068e-04 +0.0000000000000000e+00 +9.9999989198881378e-01
4.5999999999999996e+00 +9.1452072507229776e+00 +0.0000000000000000e+00 +4.5999998269414402e+00 -4.7511065915999189e-04 +0.0000000000000000e+00 +9.9999988713492460e-01
4.6999999999999993e+00 +9.1451592232271928e+00 +0.0000000000000000e+00 +4.6999998154077929e+00 -4.8543925559373107e-04 +0.0000000000000000e+00 +9.9999988217435787e-01
4.7999999999999989e+00 +9.1451101628720686e+00 +0.0000000000000000e+00 +4.7999998033727556e+00 -4.9576784574021781e-04 +0.0000000000000000e+00 +9.9999987710711424e-01
4.8999999999999986e+00 +9.1450600696582995e+00 +0.0000000000000000e+00 +4.8999997908256603e+00 -5.0609642824417530e-04 +0.0000000000000000e+00 +9.9999987193319473e-01
4.9999999999999982e+00 +9.1450089435867188e+00 +0.0000000000000000e+00 +4.9999997777558391e+00 -5.1642500177552291e-04 +0.0000000000000000e+00 +9.9999986665260010e-01
5.0999999999999979e+00 +9.1449567846582873e+00 +0.0000000000000000e+00 +5.0999997641526242e+00 -5.2675356502937933e-04 +0.0000000000000000e+00 +9.9999986126533147e-01
5.1999999999999975e+00 +9.1449035928740976e+00 +0.0000000000000000e+00 +5.1999997500053494e+00 -5.3708211672606580e-04 +0.0000000000000000e+00 +9.9999985577138972e-01
5.2999999999999972e+00 +9.1448493682353682e+00 +0.0000000000000000e+00 +5.2999997353033468e+00 -5.4741065561110958e-04 +0.0000000000000000e+00 +9.9999985017077597e-01
5.3999999999999968e+00 +9.1447941107434421e+00 +0.0000000000000000e+00 +5.3999997200359493e+00 -5.5773918045524755e-04 +0.0000000000000000e+00 +9.9999984446349133e-01
5.4999999999999964e+00 +9.1447378203997847e+00 +0.0000000000000000e+00 +5.4999997041924900e+00 -5.6806769005443070e-04 +0.0000000000000000e+00 +9.9999983864953690e-01
5.5999999999999961e+00 +9.1446804972059788e+00 +0.0000000000000000e+00 +5.5999996877623017e+00 -5.7839618322982802e-04 +0.0000000000000000e+00 +9.9999983272891380e-01
5.6999999999999957e+00 +9.1446221411637243e+00 +0.0000000000000000e+00 +5.6999996707347176e+00 -5.8872465882783115e-04 +0.0000000000000000e+00 +9.9999982670162324e-01
5.7999999999999954e+00 +9.1445627522748367e+00 +0.0000000000000000e+00 +5.7999996530990705e+00 -5.9905311572005929e-04 +0.0000000000000000e+00 +9.9999982056766634e-01
5.8999999999999950e+00 +9.1445023305412416e+00 +0.0000000000000000e+00 +5.8999996348446953e+00 -6.0938155280336438e-04 +0.0000000000000000e+00 +9.9999981432704443e-01
5.9999999999999947e+00 +9.1444408759649729e+00 +0.0000000000000000e+00 +5.9999996159609239e+00 -6.1970996899983629e-04 +0.0000000000000000e+00 +9.9999980797975885e-01
6.0999999999999943e+00 +9.1443783885481729e+00 +0.0000000000000000e+00 +6.0999995964370912e+00 -6.3003836325680840e-04 +0.0000000000000000e+00 +9.9999980152581081e-01
6.1999999999999940e+00 +9.1443148682930868e+00 +0.0000000000000000e+00 +6.1999995762625311e+00 -6.4036673454686383e-04 +0.0000000000000000e+00 +9.9999979496520175e-01
6.2999999999999936e+00 +9.1442503152020631e+00 +0.0000000000000000e+00 +6.2999995554265764e+00 -6.5069508186784114e-04 +0.0000000000000000e+00 +9.9999978829793290e-01
6.3999999999999932e+00 +9.1441847292775460e+00 +0.0000000000000000e+00 +6.3999995339185620e+00 -6.6102340424284108e-04 +0.0000000000000000e+00 +9.9999978152400570e-01
6.4999999999999929e+00 +9.1441181105220775e+00 +0.0000000000000000e+00 +6.4999995117278218e+00 -6.7135170072023318e-04 +0.0000000000000000e+00 +9.9999977464342160e-01
6.5999999999999925e+00 +9.1440504589382954e+00 +0.0000000000000000e+00 +6.5999994888436904e+00 -6.8167997037512544e-04 +0.0000000000000000e+00 +9.9999976765618204e-01
6.6999999999999922e+00 +9.1439817745289265e+00 +0.0000000000000000e+00 +6.6999994652555026e+00 -6.9200821232546226e-04 +0.0000000000000000e+00 +9.9999976056228845e-01
6.7999999999999918e+00 +9.1439120572967809e+00 +0.0000000000000000e+00 +6.7999994409525932e+00 -7.0233642574811885e-04 +0.0000000000000000e+00 +9.9999975336174218e-01
6.8999999999999915e+00 +9.1438413072447524e+00 +0.0000000000000000e+00 +6.8999994159242961e+00 -7.1266460988036540e-04 +0.0000000000000000e+00 +9.9999974605454478e-01
6.9999999999999911e+00 +9.1437695243758039e+00 +0.0000000000000000e+00 +6.9999993901599469e+00 -7.2299276401986831e-04 +0.0000000000000000e+00 +9.9999973864069758e-01
7.0999999999999908e+00 +9.1436967086929695e+00 +0.0000000000000000e+00 +7.0999993636488803e+00 -7.3332088752469109e-04 +0.0000000000000000e+00 +9.9999973112020191e-01
7.1999999999999904e+00 +9.1436228601993399e+00 +0.0000000000000000e+00 +7.1999993363804320e+00 -7.4364897981329546e-04 +0.0000000000000000e+00 +9.9999972349305932e-01
7.2999999999999901e+00 +9.1435479788980647e+00 +0.0000000000000000e+00 +7.2999993083439376e+00 -7.5397704036454273e-04 +0.0000000000000000e+00 +9.9999971575927105e-01
7.3999999999999897e+00 +9.1434720647923413e+00 +0.0000000000000000e+00 +7.3999992795287319e+00 -7.6430506871769479e-04 +0.0000000000000000e+00 +9.9999970791883841e-01
7.4999999999999893e+00 +9.1433951178854080e+00 +0.0000000000000000e+00 +7.4999992499241506e+00 -7.7463306447241541e-04 +0.0000000000000000e+00 +9.9999969997176286e-01
7.5999999999999890e+00 +9.1433171381805440e+00 +0.0000000000000000e+00 +7.5999992195195301e+00 -7.8496102728877143e-04 +0.0000000000000000e+00 +9.9999969191804550e-01
7.6999999999999886e+00 +9.1432381256810569e+00 +0.0000000000000000e+00 +7.6999991883042052e+00 -7.9528895688723395e-04 +0.0000000000000000e+00 +9.9999968375768766e-01
7.7999999999999883e+00 +9.1431580803902808e+00 +0.0000000000000000e+00 +7.7999991562675124e+00 -8.0561685304867986e-04 +0.0000000000000000e+00 +9.9999967549069058e-01
7.8999999999999879e+00 +9.1430770023115677e+00 +0.0000000000000000e+00 +7.8999991233987883e+00 -8.1594471561439259e-04 +0.0000000000000000e+00 +9.9999966711705535e-01
7.9999999999999876e+00 +9.1429948914482821e+00 +0.0000000000000000e+00 +7.9999990896873685e+00 -8.2627254448606406e-04 +0.0000000000000000e+00 +9.9999965863678308e-01
8.0999999999999872e+00 +9.1429117478037956e+00 +0.0000000000000000e+00 +8.0999990551225896e+00 -8.3660033962579554e-04 +0.0000000000000000e+00 +9.9999965004987490e-01
8.1999999999999869e+00 +9.1428275713814813e+00 +0.0000000000000000e+00 +8.1999990196937880e+00 -8.4692810105609919e-04 +0.0000000000000000e+00 +9.9999964135633179e-01
8.2999999999999865e+00 +9.1427423621847055e+00 +0.0000000000000000e+00 +8.2999989833903012e+00 -8.5725582885989946e-04 +0.0000000000000000e+00 +9.9999963255615476e-01
8.3999999999999861e+00 +9.1426561202168255e+00 +0.0000000000000000e+00 +8.3999989462014639e+00 -8.6758352318053449e-04 +0.0000000000000000e+00 +9.9999962364934469e-01
8.4999999999999858e+00 +9.1425688454811791e+00 +0.0000000000000000e+00 +8.4999989081166145e+00 -8.7791118422175741e-04 +0.0000000000000000e+00 +9.9999961463590237e-01
8.5999999999999854e+00 +9.1424805379810810e+00 +0.0000000000000000e+00 +8.5999988691250895e+00 -8.8823881224572518e-04 +0.0000000000000000e+00 +9.9999960551582867e-01
8.6999999999999851e+00 +9.1423911977198191e+00 +0.0000000000000000e+00 +8.6999988292162254e+00 -8.9856640755085998e-04 +0.0000000000000000e+00 +9.9999959628912438e-01
8.7999999999999847e+00 +9.1423008247006496e+00 +0.0000000000000000e+00 +8.7999987883793604e+00 -9.0889397044971313e-04 +0.0000000000000000e+00 +9.9999958695579017e-01
8.8999999999999844e+00 +9.1422094189267984e+00 +0.0000000000000000e+00 +8.8999987466038295e+00 -9.1922150126695840e-04 +0.0000000000000000e+00 +9.9999957751582680e-01
8.9999999999999840e+00 +9.1421169804014557e+00 +0.0000000000000000e+00 +8.9999987038789708e+00 -9.2954900033939941e-04 +0.0000000000000000e+00 +9.9999956796923495e-01
9.0999999999999837e+00 +9.1420235091277782e+00 +0.0000000000000000e+00 +9.0999986601941227e+00 -9.3987646801597631e-04 +0.0000000000000000e+00 +9.9999955831601517e-01
9.1999999999999833e+00 +9.1419290051088868e+00 +0.0000000000000000e+00 +9.1999986155386200e+00 -9.5020390465777301e-04 +0.0000000000000000e+00 +9.9999954855616813e-01
9.2999999999999829e+00 +9.1418334683478673e+00 +0.0000000000000000e+00 +9.2999985699018008e+00 -9.6053131063802467e-04 +0.0000000000000000e+00 +9.9999953868969449e-01
9.3999999999999826e+00 +9.1417368988477676e+00 +0.0000000000000000e+00 +9.3999985232730037e+00 -9.7085868634212528e-04 +0.0000000000000000e+00 +9.9999952871659481e-01
9.4999999999999822e+00 +9.1416392966115954e+00 +0.0000000000000000e+00 +9.4999984756415650e+00 -9.8118603216763530e-04 +0.0000000000000000e+00 +9.9999951863686953e-01
9.5999999999999819e+00 +9.1415406616423169e+00 +0.0000000000000000e+00 +9.5999984269968230e+00 -9.9151334852428958e-04 +0.0000000000000000e+00 +9.9999950845051933e-01
9.6999999999999815e+00 +9.1414409939428580e+00 +0.0000000000000000e+00 +9.6999983773281144e+00 -1.0018406358340052e-03 +0.0000000000000000e+00 +9.9999949815754452e-01
9.7999999999999812e+00 +9.1413402935161034e+00 +0.0000000000000000e+00 +9.7999983266247774e+00 -1.0121678945308899e-03 +0.0000000000000000e+00 +9.9999948775794567e-01
9.8999999999999808e+00 +9.1412385603648918e+00 +0.0000000000000000e+00 +9.8999982748761486e+00 -1.0224951250612504e-03 +0.0000000000000000e+00 +9.9999947725172322e-01
9.9999999999999805e+00 +9.1411357944920155e+00 +0.0000000000000000e+00 +9.9999982220715680e+00 -1.0328223278836010e-03 +0.0000000000000000e+00 +9.9999946663887751e-01
1.0099999999999980e+01 +9.1410319959002226e+00 +0.0000000000000000e+00 +1.0099998168200370e+01 -1.0431495034686723e-03 +0.0000000000000000e+00 +9.9999945591940897e-01
1.0199999999999980e+01 +9.1409271645922132e+00 +0.0000000000000000e+00 +1.0199998113251896e+01 -1.0534766522994196e-03 +0.0000000000000000e+00 +9.9999944509331784e-01
1.0299999999999979e+01 +9.1408213005706376e+00 +0.0000000000000000e+00 +1.0299998057215481e+01 -1.0638037748710325e-03 +0.0000000000000000e+00 +9.9999943416060444e-01
1.0399999999999979e+01 +9.1407144038380963e+00 +0.0000000000000000e+00 +1.0399998000080464e+01 -1.0741308716909440e-03 +0.0000000000000000e+00 +9.9999942312126910e-01
1.0499999999999979e+01 +9.1406064743971402e+00 +0.0000000000000000e+00 +1.0499997941836181e+01 -1.0844579432788396e-03 +0.0000000000000000e+00 +9.9999941197531195e-01
1.0599999999999978e+01 +9.1404975122502652e+00 +0.0000000000000000e+00 +1.0599997882471971e+01 -1.0947849901642968e-03 +0.0000000000000000e+00 +9.9999940072273330e-01
1.0699999999999978e+01 +9.1403875173999136e+00 +0.0000000000000000e+00 +1.0699997821977172e+01 -1.1051120128607146e-03 +0.0000000000000000e+00 +9.9999938936353328e-01
1.0799999999999978e+01 +9.1402764898484836e+00 +0.0000000000000000e+00 +1.0799997760341123e+01 -1.1154390118392268e-03 +0.0000000000000000e+00 +9.9999937789771209e-01
1.0899999999999977e+01 +9.1401644295983235e+00 +0.0000000000000000e+00 +1.0899997697553161e+01 -1.1257659875263154e-03 +0.0000000000000000e+00 +9.9999936632527009e-01
1.0999999999999977e+01 +9.1400513366517426e+00 +0.0000000000000000e+00 +1.0999997633602623e+01 -1.1360929403037910e-03 +0.0000000000000000e+00 +9.9999935464620748e-01
1.1099999999999977e+01 +9.1399372110110146e+00 +0.0000000000000000e+00 +1.1099997568478848e+01 -1.1464198705087750e-03 +0.0000000000000000e+00 +9.9999934286052461e-01
1.1199999999999976e+01 +9.1398220526783831e+00 +0.0000000000000000e+00 +1.1199997502171174e+01 -1.1567467784336805e-03 +0.0000000000000000e+00 +9.9999933096822180e-01
1.1299999999999976e+01 +9.1397058616560631e+00 +0.0000000000000000e+00 +1.1299997434668938e+01 -1.1670736643261928e-03 +0.0000000000000000e+00 +9.9999931896929939e-01
1.1399999999999975e+01 +9.1395886379462468e+00 +0.0000000000000000e+00 +1.1399997365961481e+01 -1.1774005283892493e-03 +0.0000000000000000e+00 +9.9999930686375793e-01
1.1499999999999975e+01 +9.1394703815511082e+00 +0.0000000000000000e+00 +1.1499997296038137e+01 -1.1877273707810196e-03 +0.0000000000000000e+00 +9.9999929465159787e-01
1.1599999999999975e+01 +9.1393510924728094e+00 +0.0000000000000000e+00 +1.1599997224888247e+01 -1.1980541916148839e-03 +0.0000000000000000e+00 +9.9999928233281976e-01
1.1699999999999974e+01 +9.1392307707135014e+00 +0.0000000000000000e+00 +1.1699997152501147e+01 -1.2083809909594122e-03 +0.0000000000000000e+00 +9.9999926990742416e-01
1.1799999999999974e+01 +9.1391094162753319e+00 +0.0000000000000000e+00 +1.1799997078866177e+01 -1.2187077688383420e-03 +0.0000000000000000e+00 +9.9999925737541162e-01
