# trajectory
# s[mm] rx[mm] ry[mm] rz[mm] px[rad] py[rad] pz[rad]
0.0000000000000000e+00 +9.0449999999999999e+00 +0.0000000000000000e+00 +0.0000000000000000e+00 +0.0000000000000000e+00 +0.0000000000000000e+00 +1.0000000000000000e+00
1.0000000000000001e-01 +9.0449994856044071e+00 +0.0000000000000000e+00 +9.9999999998235986e-02 -1.0287911860369119e-05 +0.0000000000000000e+00 +9.9999999994707944e-01
2.0000000000000001e-01 +9.0449979424176270e+00 +0.0000000000000000e+00 +1.9999999998588786e-01 -2.0575823743220965e-05 +0.0000000000000000e+00 +9.9999999978831777e-01
3.0000000000000004e-01 +9.0449953704396560e+00 +0.0000000000000000e+00 +2.9999999995237148e-01 -3.0863735671059518e-05 +0.0000000000000000e+00 +9.9999999952371499e-01
4.0000000000000002e-01 +9.0449917696704905e+00 +0.0000000000000000e+00 +3.9999999988710278e-01 -4.1151647666411943e-05 +0.0000000000000000e+00 +9.9999999915327098e-01
5.0000000000000000e-01 +9.0449871401101198e+00 +0.0000000000000000e+00 +4.9999999977949761e-01 -5.1439559751828601e-05 +0.0000000000000000e+00 +9.9999999867698586e-01
5.9999999999999998e-01 +9.0449814817585352e+00 +0.0000000000000000e+00 +5.9999999961897188e-01 -6.1727471949883024e-05 +0.0000000000000000e+00 +9.9999999809485962e-01
6.9999999999999996e-01 +9.0449747946157242e+00 +0.0000000000000000e+00 +6.9999999939494151e-01 -7.2015384283171928e-05 +0.0000000000000000e+00 +9.9999999740689227e-01
7.9999999999999993e-01 +9.0449670786816725e+00 +0.0000000000000000e+00 +7.9999999909682229e-01 -8.2303296774315153e-05 +0.0000000000000000e+00 +9.9999999661308370e-01
8.9999999999999991e-01 +9.0449583339563624e+00 +0.0000000000000000e+00 +8.9999999871403014e-01 -9.2591209445955664e-05 +0.0000000000000000e+00 +9.9999999571343401e-01
9.9999999999999989e-01 +9.0449485604397761e+00 +0.0000000000000000e+00 +9.9999999823598107e-01 -1.0287912232075953e-04 +0.0000000000000000e+00 +9.9999999470794310e-01
1.0999999999999999e+00 +9.0449377581318906e+00 +0.0000000000000000e+00 +1.0999999976520907e+00 -1.1316703542141397e-04 +0.0000000000000000e+00 +9.9999999359661107e-01
1.2000000000000000e+00 +9.0449259270326827e+00 +0.0000000000000000e+00 +1.1999999969517752e+00 -1.2345494877060619e-04 +0.0000000000000000e+00 +9.9999999237943782e-01
1.3000000000000000e+00 +9.0449130671421276e+00 +0.0000000000000000e+00 +1.2999999961244502e+00 -1.3374286239100237e-04 +0.0000000000000000e+00 +9.9999999105642334e-01
1.4000000000000001e+00 +9.0448991784601951e+00 +0.0000000000000000e+00 +1.3999999951595317e+00 -1.4403077630524574e-04 +0.0000000000000000e+00 +9.9999998962756764e-01
1.5000000000000002e+00 +9.0448842609868549e+00 +0.0000000000000000e+00 +1.4999999940464357e+00 -1.5431869053595659e-04 +0.0000000000000000e+00 +9.9999998809287072e-01
1.6000000000000003e+00 +9.0448683147220752e+00 +0.0000000000000000e+00 +1.5999999927745778e+00 -1.6460660510573226e-04 +0.0000000000000000e+00 +9.9999998645233257e-01
1.7000000000000004e+00 +9.0448513396658203e+00 +0.0000000000000000e+00 +1.6999999913333741e+00 -1.7489452003714722e-04 +0.0000000000000000e+00 +9.9999998470595319e-01
1.8000000000000005e+00 +9.0448333358180548e+00 +0.0000000000000000e+00 +1.7999999897122403e+00 -1.8518243535275308e-04 +0.0000000000000000e+00 +9.9999998285373259e-01
1.9000000000000006e+00 +9.0448143031787360e+00 +0.0000000000000000e+00 +1.8999999879005924e+00 -1.9547035107507856e-04 +0.0000000000000000e+00 +9.9999998089567066e-01
2.0000000000000004e+00 +9.0447942417478249e+00 +0.0000000000000000e+00 +1.9999999858878463e+00 -2.0575826722662966e-04 +0.0000000000000000e+00 +9.9999997883176739e-01
2.1000000000000005e+00 +9.0447731515252752e+00 +0.0000000000000000e+00 +2.0999999836634178e+00 -2.1604618382989015e-04 +0.0000000000000000e+00 +9.9999997666202278e-01
2.2000000000000006e+00 +9.0447510325110425e+00 +0.0000000000000000e+00 +2.1999999812167226e+00 -2.2633410090732771e-04 +0.0000000000000000e+00 +9.9999997438643684e-01
2.3000000000000007e+00 +9.0447278847050772e+00 +0.0000000000000000e+00 +2.2999999785371767e+00 -2.3662201848139998e-04 +0.0000000000000000e+00 +9.9999997200500956e-01
2.4000000000000008e+00 +9.0447037081073294e+00 +0.0000000000000000e+00 +2.3999999756141963e+00 -2.4690993657455518e-04 +0.0000000000000000e+00 +9.9999996951774095e-01
2.5000000000000009e+00 +9.0446785027177441e+00 +0.0000000000000000e+00 +2.4999999724371968e+00 -2.5719785520923212e-04 +0.0000000000000000e+00 +9.9999996692463089e-01
2.6000000000000010e+00 +9.0446522685362680e+00 +0.0000000000000000e+00 +2.5999999689955944e+00 -2.6748577440786030e-04 +0.0000000000000000e+00 +9.9999996422567938e-01
2.7000000000000011e+00 +9.0446250055628425e+00 +0.0000000000000000e+00 +2.6999999652788045e+00 -2.7777369419285981e-04 +0.0000000000000000e+00 +9.9999996142088643e-01
2.8000000000000012e+00 +9.0445967137974090e+00 +0.0000000000000000e+00 +2.7999999612762436e+00 -2.8806161458664150e-04 +0.0000000000000000e+00 +9.9999995851025203e-01
2.9000000000000012e+00 +9.0445673932399053e+00 +0.0000000000000000e+00 +2.8999999569773269e+00 -2.9834953561160704e-04 +0.0000000000000000e+00 +9.9999995549377607e-01
3.0000000000000013e+00 +9.0445370438902657e+00 +0.0000000000000000e+00 +2.9999999523714709e+00 -3.0863745729014884e-04 +0.0000000000000000e+00 +9.9999995237145856e-01
3.1000000000000014e+00 +9.0445056657484244e+00 +0.0000000000000000e+00 +3.0999999474480906e+00 -3.1892537964465275e-04 +0.0000000000000000e+00 +9.9999994914329948e-01
3.2000000000000015e+00 +9.0444732588143140e+00 +0.0000000000000000e+00 +3.1999999421966026e+00 -3.2921330269752603e-04 +0.0000000000000000e+00 +9.9999994580929885e-01
3.3000000000000016e+00 +9.0444398230878615e+00 +0.0000000000000000e+00 +3.2999999366064223e+00 -3.3950122647122521e-04 +0.0000000000000000e+00 +9.9999994236945666e-01
3.4000000000000017e+00 +9.0444053585689943e+00 +0.0000000000000000e+00 +3.3999999306669659e+00 -3.4978915098825855e-04 +0.0000000000000000e+00 +9.9999993882377280e-01
3.5000000000000018e+00 +9.0443698652576376e+00 +0.0000000000000000e+00 +3.4999999243676490e+00 -3.6007707627118586e-04 +0.0000000000000000e+00 +9.9999993517224717e-01
3.6000000000000019e+00 +9.0443333431537134e+00 +0.0000000000000000e+00 +3.5999999176978874e+00 -3.7036500234261828e-04 +0.0000000000000000e+00 +9.9999993141487986e-01
3.7000000000000020e+00 +9.0442957922571416e+00 +0.0000000000000000e+00 +3.6999999106470969e+00 -3.8065292922521813e-04 +0.0000000000000000e+00 +9.9999992755167078e-01
3.8000000000000020e+00 +9.0442572125678407e+00 +0.0000000000000000e+00 +3.7999999032046934e+00 -3.9094085694169880e-04 +0.0000000000000000e+00 +9.9999992358261991e-01
3.9000000000000021e+00 +9.0442176040857252e+00 +0.0000000000000000e+00 +3.8999998953600929e+00 -4.0122878551482441e-04 +0.0000000000000000e+00 +9.9999991950772726e-01
4.0000000000000018e+00 +9.0441769668107082e+00 +0.0000000000000000e+00 +3.9999998871027111e+00 -4.1151671496740967e-04 +0.0000000000000000e+00 +9.9999991532699273e-01
4.1000000000000014e+00 +9.0441353007427008e+00 +0.0000000000000000e+00 +4.0999998784219640e+00 -4.2180464532231502e-04 +0.0000000000000000e+00 +9.9999991104041630e-01
4.2000000000000011e+00 +9.0440926058816125e+00 +0.0000000000000000e+00 +4.1999998693072671e+00 -4.3209257660239584e-04 +0.0000000000000000e+00 +9.9999990664799798e-01
4.3000000000000007e+00 +9.0440488822273490e+00 +0.0000000000000000e+00 +4.2999998597480360e+00 -4.4238050883045203e-04 +0.0000000000000000e+00 +9.9999990214973766e-01
4.4000000000000004e+00 +9.0440041297798146e+00 +0.0000000000000000e+00 +4.3999998497336863e+00 -4.5266844202922359e-04 +0.0000000000000000e+00 +9.9999989754563534e-01
4.5000000000000000e+00 +9.0439583485389097e+00 +0.0000000000000000e+00 +4.4999998392536344e+00 -4.6295637622139089e-04 +0.0000000000000000e+00 +9.9999989283569091e-01
4.5999999999999996e+00 +9.0439115385045366e+00 +0.0000000000000000e+00 +4.5999998282972960e+00 -4.7324431142957478e-04 +0.0000000000000000e+00 +9.9999988801990436e-01
4.6999999999999993e+00 +9.0438636996765904e+00 +0.0000000000000000e+00 +4.6999998168540866e+00 -4.8353224767633696e-04 +0.0000000000000000e+00 +9.9999988309827570e-01
4.7999999999999989e+00 +9.0438148320549665e+00 +0.0000000000000000e+00 +4.7999998049134227e+00 -4.9382018498418017e-04 +0.0000000000000000e+00 +9.9999987807080482e-01
4.8999999999999986e+00 +9.0437649356395582e+00 +0.0000000000000000e+00 +4.8999997924647198e+00 -5.0410812337554857e-04 +0.0000000000000000e+00 +9.9999987293749171e-01
4.9999999999999982e+00 +9.0437140104302554e+00 +0.0000000000000000e+00 +4.9999997794973936e+00 -5.1439606287282790e-04 +0.0000000000000000e+00 +9.9999986769833626e-01
5.0999999999999979e+00 +9.0436620564269461e+00 +0.0000000000000000e+00 +5.0999997660008596e+00 -5.2468400349835013e-04 +0.0000000000000000e+00 +9.9999986235333849e-01
5.1999999999999975e+00 +9.0436090736295167e+00 +0.0000000000000000e+00 +5.1999997519645333e+00 -5.3497194527444268e-04 +0.0000000000000000e+00 +9.9999985690249837e-01
5.2999999999999972e+00 +9.0435550620378518e+00 +0.0000000000000000e+00 +5.2999997373778314e+00 -5.4525988822347652e-04 +0.0000000000000000e+00 +9.9999985134581582e-01
5.3999999999999968e+00 +9.0435000216518322e+00 +0.0000000000000000e+00 +5.3999997222301683e+00 -5.5554783236787069e-04 +0.0000000000000000e+00 +9.9999984568329081e-01
5.4999999999999964e+00 +9.0434439524713373e+00 +0.0000000000000000e+00 +5.4999997065109607e+00 -5.6583577773009169e-04 +0.0000000000000000e+00 +9.9999983991492325e-01
5.5999999999999961e+00 +9.0433868544962444e+00 +0.0000000000000000e+00 +5.5999996902096250e+00 -5.7612372433265364e-04 +0.0000000000000000e+00 +9.9999983404071313e-01
5.6999999999999957e+00 +9.0433287277264292e+00 +0.0000000000000000e+00 +5.6999996733155758e+00 -5.8641167219811781e-04 +0.0000000000000000e+00 +9.9999982806066035e-01
5.7999999999999954e+00 +9.0432695721617620e+00 +0.0000000000000000e+00 +5.7999996558182287e+00 -5.9669962134909242e-04 +0.0000000000000000e+00 +9.9999982197476489e-01
5.8999999999999950e+00 +9.0432093878021149e+00 +0.0000000000000000e+00 +5.8999996377070003e+00 -6.0698757180823230e-04 +0.0000000000000000e+00 +9.9999981578302666e-01
5.9999999999999947e+00 +9.0431481746473565e+00 +0.0000000000000000e+00 +5.9999996189713061e+00 -6.1727552359823858e-04 +0.0000000000000000e+00 +9.9999980948544565e-01
6.0999999999999943e+00 +9.0430859326973501e+00 +0.0000000000000000e+00 +6.0999995996005616e+00 -6.2756347674185317e-04 +0.0000000000000000e+00 +9.9999980308202174e-01
6.1999999999999940e+00 +9.0430226619519622e+00 +0.0000000000000000e+00 +6.1999995795841825e+00 -6.3785143126180040e-04 +0.0000000000000000e+00 +9.9999979657275495e-01
6.2999999999999936e+00 +9.0429583624110510e+00 +0.0000000000000000e+00 +6.2999995589115843e+00 -6.4813938718072904e-04 +0.0000000000000000e+00 +9.9999978995764516e-01
6.3999999999999932e+00 +9.0428930340744778e+00 +0.0000000000000000e+00 +6.3999995375721834e+00 -6.5842734452120763e-04 +0.0000000000000000e+00 +9.9999978323669236e-01
6.4999999999999929e+00 +9.0428266769420986e+00 +0.0000000000000000e+00 +6.4999995155553947e+00 -6.6871530330572478e-04 +0.0000000000000000e+00 +9.9999977640989646e-01
6.5999999999999925e+00 +9.0427592910137680e+00 +0.0000000000000000e+00 +6.5999994928506345e+00 -6.7900326355669000e-04 +0.0000000000000000e+00 +9.9999976947725733e-01
6.6999999999999922e+00 +9.0426908762893383e+00 +0.0000000000000000e+00 +6.6999994694473184e+00 -6.8929122529643393e-04 +0.0000000000000000e+00 +9.9999976243877498e-01
6.7999999999999918e+00 +9.0426214327686587e+00 +0.0000000000000000e+00 +6.7999994453348620e+00 -6.9957918854720929e-04 +0.0000000000000000e+00 +9.9999975529444940e-01
6.8999999999999915e+00 +9.0425509604515781e+00 +0.0000000000000000e+00 +6.8999994205026809e+00 -7.0986715333119115e-04 +0.0000000000000000e+00 +9.9999974804428038e-01
6.9999999999999911e+00 +9.0424794593379403e+00 +0.0000000000000000e+00 +6.9999993949401906e+00 -7.2015511967047784e-04 +0.0000000000000000e+00 +9.9999974068826802e-01
7.0999999999999908e+00 +9.0424069294275906e+00 +0.0000000000000000e+00 +7.0999993686368068e+00 -7.3044308758709892e-04 +0.0000000000000000e+00 +9.9999973322641211e-01
7.1999999999999904e+00 +9.0423333707203692e+00 +0.0000000000000000e+00 +7.1999993415819450e+00 -7.4073105710309917e-04 +0.0000000000000000e+00 +9.9999972565871265e-01
7.2999999999999901e+00 +9.0422587832161163e+00 +0.0000000000000000e+00 +7.2999993137650208e+00 -7.5101902824062112e-04 +0.0000000000000000e+00 +9.9999971798516962e-01
7.3999999999999897e+00 +9.0421831669146666e+00 +0.0000000000000000e+00 +7.3999992851754506e+00 -7.6130700102191207e-04 +0.0000000000000000e+00 +9.9999971020578293e-01
7.4999999999999893e+00 +9.0421065218158567e+00 +0.0000000000000000e+00 +7.4999992558026491e+00 -7.7159497546932338e-04 +0.0000000000000000e+00 +9.9999970232055246e-01
7.5999999999999890e+00 +9.0420288479195179e+00 +0.0000000000000000e+00 +7.5999992256360329e+00 -7.8188295160530944e-04 +0.0000000000000000e+00 +9.9999969432947811e-01
7.6999999999999886e+00 +9.0419501452254796e+00 +0.0000000000000000e+00 +7.6999991946650166e+00 -7.9217092945242683e-04 +0.0000000000000000e+00 +9.9999968623255986e-01
7.7999999999999883e+00 +9.0418704137335695e+00 +0.0000000000000000e+00 +7.7999991628790166e+00 -8.0245890903333345e-04 +0.0000000000000000e+00 +9.9999967802979761e-01
7.8999999999999879e+00 +9.0417896534436135e+00 +0.0000000000000000e+00 +7.8999991302674477e+00 -8.1274689037078766e-04 +0.0000000000000000e+00 +9.9999966972119136e-01
7.9999999999999876e+00 +9.0417078643554358e+00 +0.0000000000000000e+00 +7.9999990968197263e+00 -8.2303487348764717e-04 +0.0000000000000000e+00 +9.9999966130674101e-01
8.0999999999999872e+00 +9.0416250464688570e+00 +0.0000000000000000e+00 +8.0999990625252671e+00 -8.3332285840686420e-04 +0.0000000000000000e+00 +9.9999965278644642e-01
8.1999999999999869e+00 +9.0415411997836941e+00 +0.0000000000000000e+00 +8.1999990273734866e+00 -8.4361084515144076e-04 +0.0000000000000000e+00 +9.9999964416030751e-01
8.2999999999999865e+00 +9.0414563242997641e+00 +0.0000000000000000e+00 +8.2999989913537995e+00 -8.5389883374438437e-04 +0.0000000000000000e+00 +9.9999963542832426e-01
8.3999999999999861e+00 +9.0413704200168823e+00 +0.0000000000000000e+00 +8.3999989544556222e+00 -8.6418682420870440e-04 +0.0000000000000000e+00 +9.9999962659049657e-01
8.4999999999999858e+00 +9.0412834869348586e+00 +0.0000000000000000e+00 +8.4999989166683694e+00 -8.7447481656741230e-04 +0.0000000000000000e+00 +9.9999961764682432e-01
8.5999999999999854e+00 +9.0411955250535048e+00 +0.0000000000000000e+00 +8.5999988779814576e+00 -8.8476281084352197e-04 +0.0000000000000000e+00 +9.9999960859730752e-01
8.6999999999999851e+00 +9.0411065343726253e+00 +0.0000000000000000e+00 +8.6999988383843014e+00 -8.9505080706005018e-04 +0.0000000000000000e+00 +9.9999959944194605e-01
8.7999999999999847e+00 +9.0410165148920267e+00 +0.0000000000000000e+00 +8.7999987978663174e+00 -9.0533880524001659e-04 +0.0000000000000000e+00 +9.9999959018073981e-01
8.8999999999999844e+00 +9.0409254666115118e+00 +0.0000000000000000e+00 +8.8999987564169203e+00 -9.1562680540644413e-04 +0.0000000000000000e+00 +9.9999958081368867e-01
8.9999999999999840e+00 +9.0408333895308797e+00 +0.0000000000000000e+00 +8.9999987140255264e+00 -9.2591480758235961e-04 +0.0000000000000000e+00 +9.9999957134079265e-01
9.0999999999999837e+00 +9.0407402836499280e+00 +0.0000000000000000e+00 +9.0999986706815505e+00 -9.3620281179078533e-04 +0.0000000000000000e+00 +9.9999956176205151e-01
9.1999999999999833e+00 +9.0406461489684524e+00 +0.0000000000000000e+00 +9.1999986263744091e+00 -9.4649081805464694e-04 +0.0000000000000000e+00 +9.9999955207746527e-01
9.2999999999999829e+00 +9.0405509854862469e+00 +0.0000000000000000e+00 +9.2999985810935168e+00 -9.5677882639668094e-04 +0.0000000000000000e+00 +9.9999954228703380e-01
9.3999999999999826e+00 +9.0404547932031019e+00 +0.0000000000000000e+00 +9.3999985348282884e+00 -9.6706683683942668e-04 +0.0000000000000000e+00 +9.9999953239075712e-01
9.4999999999999822e+00 +9.0403575721188076e+00 +0.0000000000000000e+00 +9.4999984875681402e+00 -9.7735484940522687e-04 +0.0000000000000000e+00 +9.9999952238863499e-01
9.5999999999999819e+00 +9.0402593222331493e+00 +0.0000000000000000e+00 +9.5999984393024871e+00 -9.8764286411622774e-04 +0.0000000000000000e+00 +9.9999951228066741e-01
9.6999999999999815e+00 +9.0401600435459120e+00 +0.0000000000000000e+00 +9.6999983900207454e+00 -9.9793088099437962e-04 +0.0000000000000000e+00 +9.9999950206685428e-01
9.7999999999999812e+00 +9.0400597360568771e+00 +0.0000000000000000e+00 +9.7999983397123298e+00 -1.0082189000614372e-03 +0.0000000000000000e+00 +9.9999949174719549e-01
9.8999999999999808e+00 +9.0399583997658262e+00 +0.0000000000000000e+00 +9.8999982883666569e+00 -1.0185069213389602e-03 +0.0000000000000000e+00 +9.9999948132169092e-01
9.9999999999999805e+00 +9.0398560346725354e+00 +0.0000000000000000e+00 +9.9999982359731412e+00 -1.0287949448483133e-03 +0.0000000000000000e+00 +9.9999947079034057e-01
1.0099999999999980e+01 +9.0397526407767810e+00 +0.0000000000000000e+00 +1.0099998182521198e+01 -1.0390829706107003e-03 +0.0000000000000000e+00 +9.9999946015314423e-01
1.0199999999999980e+01 +9.0396482180783373e+00 +0.0000000000000000e+00 +1.0199998128000242e+01 -1.0493709986475236e-03 +0.0000000000000000e+00 +9.9999944941010188e-01
1.0299999999999979e+01 +9.0395427665769752e+00 +0.0000000000000000e+00 +1.0299998072399690e+01 -1.0596590289807457e-03 +0.0000000000000000e+00 +9.9999943856121343e-01
1.0399999999999979e+01 +9.0394362862724638e+00 +0.0000000000000000e+00 +1.0399998015708958e+01 -1.0699470616329209e-03 +0.0000000000000000e+00 +9.9999942760647875e-01
1.0499999999999979e+01 +9.0393287771645703e+00 +0.0000000000000000e+00 +1.0499997957917458e+01 -1.0802350966271953e-03 +0.0000000000000000e+00 +9.9999941654589775e-01
1.0599999999999978e+01 +9.0392202392530585e+00 +0.0000000000000000e+00 +1.0599997899014609e+01 -1.0905231339873066e-03 +0.0000000000000000e+00 +9.9999940537947030e-01
1.0699999999999978e+01 +9.0391106725376922e+00 +0.0000000000000000e+00 +1.0699997838989823e+01 -1.1008111737375835e-03 +0.0000000000000000e+00 +9.9999939410719629e-01
1.0799999999999978e+01 +9.0390000770182297e+00 +0.0000000000000000e+00 +1.0799997777832520e+01 -1.1110992159029456e-03 +0.0000000000000000e+00 +9.9999938272907563e-01
1.0899999999999977e+01 +9.0388884526944295e+00 +0.0000000000000000e+00 +1.0899997715532111e+01 -1.1213872605089032e-03 +0.0000000000000000e+00 +9.9999937124510829e-01
1.0999999999999977e+01 +9.0387757995660465e+00 +0.0000000000000000e+00 +1.0999997652078013e+01 -1.1316753075815565e-03 +0.0000000000000000e+00 +9.9999935965529407e-01
1.1099999999999977e+01 +9.0386621176328301e+00 +0.0000000000000000e+00 +1.1099997587459642e+01 -1.1419633571474849e-03 +0.0000000000000000e+00 +9.9999934795963286e-01
1.1199999999999976e+01 +9.0385474068945317e+00 +0.0000000000000000e+00 +1.1199997521666411e+01 -1.1522514092325270e-03 +0.0000000000000000e+00 +9.9999933615812464e-01
1.1299999999999976e+01 +9.0384316673508991e+00 +0.0000000000000000e+00 +1.1299997454687738e+01 -1.1625394638605602e-03 +0.0000000000000000e+00 +9.9999932425076921e-01
1.1399999999999975e+01 +9.0383148990016746e+00 +0.0000000000000000e+00 +1.1399997386513036e+01 -1.1728275210533910e-03 +0.0000000000000000e+00 +9.9999931223756644e-01
1.1499999999999975e+01 +9.0381971018466025e+00 +0.0000000000000000e+00 +1.1499997317131722e+01 -1.1831155808307533e-03 +0.0000000000000000e+00 +9.9999930011851634e-01
1.1599999999999975e+01 +9.0380782758854217e+00 +0.0000000000000000e+00 +1.1599997246533212e+01 -1.1934036432103099e-03 +0.0000000000000000e+00 +9.9999928789361869e-01
1.1699999999999974e+01 +9.0379584211178727e+00 +0.0000000000000000e+00 +1.1699997174706919e+01 -1.2036917082076514e-03 +0.0000000000000000e+00 +9.9999927556287349e-01
1.1799999999999974e+01 +9.0378375375436928e+00 +0.0000000000000000e+00 +1.1799997101642258e+01 -1.2139797758362963e-03 +0.0000000000000000e+00 +9.9999926312628051e-01
