# trajectory
# s[mm] rx[mm] ry[mm] rz[mm] px[rad] py[rad] pz[rad]
0.0000000000000000e+00 +9.1183999999999994e+00 +0.0000000000000000e+00 +0.0000000000000000e+00 +0.0000000000000000e+00 +0.0000000000000000e+00 +1.0000000000000000e+00
-1.0000000000000001e-01 +9.1183994838433264e+00 +0.0000000000000000e+00 -9.9999999998223885e-02 +1.0323127332738890e-05 +0.0000000000000000e+00 +9.9999999994671651e-01
-2.0000000000000001e-01 +9.1183979353757572e+00 +0.0000000000000000e+00 -1.9999999998579110e-01 +2.0646217920634641e-05 +0.0000000000000000e+00 +9.9999999978686682e-01
-3.0000000000000004e-01 +9.1183953546009668e+00 +0.0000000000000000e+00 -2.9999999995204507e-01 +3.0969271763908945e-05 +0.0000000000000000e+00 +9.9999999952045204e-01
-4.0000000000000002e-01 +9.1183917415226290e+00 +0.0000000000000000e+00 -3.9999999988632934e-01 +4.1292288887044234e-05 +0.0000000000000000e+00 +9.9999999914747340e-01
-5.0000000000000000e-01 +9.1183870961444118e+00 +0.0000000000000000e+00 -4.9999999977798765e-01 +5.1615269338784348e-05 +0.0000000000000000e+00 +9.9999999866793199e-01
-5.9999999999999998e-01 +9.1183814184699798e+00 +0.0000000000000000e+00 -5.9999999961636374e-01 +6.1938213192134955e-05 +0.0000000000000000e+00 +9.9999999808182882e-01
-6.9999999999999996e-01 +9.1183747085029889e+00 +0.0000000000000000e+00 -6.9999999939080149e-01 +7.2261120544363748e-05 +0.0000000000000000e+00 +9.9999999738916523e-01
-7.9999999999999993e-01 +9.1183669662470841e+00 +0.0000000000000000e+00 -7.9999999909064479e-01 +8.2583991517000399e-05 +0.0000000000000000e+00 +9.9999999658994221e-01
-8.9999999999999991e-01 +9.1183581917058945e+00 +0.0000000000000000e+00 -8.9999999870523795e-01 +9.2906826255836341e-05 +0.0000000000000000e+00 +9.9999999568416087e-01
-9.9999999999999989e-01 +9.1183483848830349e+00 +0.0000000000000000e+00 -9.9999999822392505e-01 +1.0322962493092425e-04 +0.0000000000000000e+00 +9.9999999467182232e-01
-1.0999999999999999e+00 +9.1183375457821043e+00 +0.0000000000000000e+00 -1.0999999976360506e+00 +1.1355238773657733e-04 +0.0000000000000000e+00 +9.9999999355292768e-01
-1.2000000000000000e+00 +9.1183256744066767e+00 +0.0000000000000000e+00 -1.1999999969309589e+00 +1.2387511489136838e-04 +0.0000000000000000e+00 +9.9999999232747805e-01
-1.3000000000000000e+00 +9.1183127707603067e+00 +0.0000000000000000e+00 -1.2999999960979944e+00 +1.3419780663812862e-04 +0.0000000000000000e+00 +9.9999999099547443e-01
-1.4000000000000001e+00 +9.1182988348465202e+00 +0.0000000000000000e+00 -1.3999999951265021e+00 +1.4452046324394630e-04 +0.0000000000000000e+00 +9.9999998955691793e-01
-1.5000000000000002e+00 +9.1182838666688184e+00 +0.0000000000000000e+00 -1.4999999940058264e+00 +1.5484308500016505e-04 +0.0000000000000000e+00 +9.9999998801180956e-01
-1.6000000000000003e+00 +9.1182678662306706e+00 +0.0000000000000000e+00 -1.5999999927253123e+00 +1.6516567221727880e-04 +0.0000000000000000e+00 +9.9999998636015042e-01
-1.7000000000000004e+00 +9.1182508335355159e+00 +0.0000000000000000e+00 -1.6999999912743049e+00 +1.7548822516879391e-04 +0.0000000000000000e+00 +9.9999998460194139e-01
-1.8000000000000005e+00 +9.1182327685867719e+00 +0.0000000000000000e+00 -1.7999999896421490e+00 +1.8581074403509291e-04 +0.0000000000000000e+00 +9.9999998273718360e-01
-1.9000000000000006e+00 +9.1182136713878421e+00 +0.0000000000000000e+00 -1.8999999878181899e+00 +1.9613322889833185e-04 +0.0000000000000000e+00 +9.9999998076587815e-01
-2.0000000000000004e+00 +9.1181935419421265e+00 +0.0000000000000000e+00 -1.9999999857917730e+00 +2.0645567974244121e-04 +0.0000000000000000e+00 +9.9999997868802604e-01
-2.1000000000000005e+00 +9.1181723802530321e+00 +0.0000000000000000e+00 -2.0999999835522436e+00 +2.1677809645312697e-04 +0.0000000000000000e+00 +9.9999997650362826e-01
-2.2000000000000006e+00 +9.1181501863239820e+00 +0.0000000000000000e+00 -2.1999999810889470e+00 +2.2710047881787198e-04 +0.0000000000000000e+00 +9.9999997421268605e-01
-2.3000000000000007e+00 +9.1181269601584241e+00 +0.0000000000000000e+00 -2.2999999783912290e+00 +2.3742282652593742e-04 +0.0000000000000000e+00 +9.9999997181520039e-01
-2.4000000000000008e+00 +9.1181027017598453e+00 +0.0000000000000000e+00 -2.3999999754484356e+00 +2.4774513916836456e-04 +0.0000000000000000e+00 +9.9999996931117263e-01
-2.5000000000000009e+00 +9.1180774111317753e+00 +0.0000000000000000e+00 -2.4999999722499124e+00 +2.5806741623797666e-04 +0.0000000000000000e+00 +9.9999996670060387e-01
-2.6000000000000010e+00 +9.1180510882778023e+00 +0.0000000000000000e+00 -2.5999999687850051e+00 +2.6838965712938114e-04 +0.0000000000000000e+00 +9.9999996398349544e-01
-2.7000000000000011e+00 +9.1180237332015786e+00 +0.0000000000000000e+00 -2.6999999650430602e+00 +2.7871186113897183e-04 +0.0000000000000000e+00 +9.9999996115984857e-01
-2.8000000000000012e+00 +9.1179953459068308e+00 +0.0000000000000000e+00 -2.7999999610134236e+00 +2.8903402746493161e-04 +0.0000000000000000e+00 +9.9999995822966470e-01
-2.9000000000000012e+00 +9.1179659263973711e+00 +0.0000000000000000e+00 -2.8999999566854417e+00 +2.9935615520723506e-04 +0.0000000000000000e+00 +9.9999995519294527e-01
-3.0000000000000013e+00 +9.1179354746771075e+00 +0.0000000000000000e+00 -2.9999999520484613e+00 +3.0967824336765147e-04 +0.0000000000000000e+00 +9.9999995204969172e-01
-3.1000000000000014e+00 +9.1179039907500528e+00 +0.0000000000000000e+00 -3.0999999470918289e+00 +3.2000029084974801e-04 +0.0000000000000000e+00 +9.9999994879990572e-01
-3.2000000000000015e+00 +9.1178714746203333e+00 +0.0000000000000000e+00 -3.1999999418048914e+00 +3.3032229645889294e-04 +0.0000000000000000e+00 +9.9999994544358883e-01
-3.3000000000000016e+00 +9.1178379262922000e+00 +0.0000000000000000e+00 -3.2999999361769956e+00 +3.4064425890225930e-04 +0.0000000000000000e+00 +9.9999994198074282e-01
-3.4000000000000017e+00 +9.1178033457700387e+00 +0.0000000000000000e+00 -3.3999999301974890e+00 +3.5096617678882872e-04 +0.0000000000000000e+00 +9.9999993841136958e-01
-3.5000000000000018e+00 +9.1177677330583773e+00 +0.0000000000000000e+00 -3.4999999238557189e+00 +3.6128804862939519e-04 +0.0000000000000000e+00 +9.9999993473547089e-01
-3.6000000000000019e+00 +9.1177310881619000e+00 +0.0000000000000000e+00 -3.5999999171410324e+00 +3.7160987284301240e-04 +0.0000000000000000e+00 +9.9999993095304884e-01
-3.7000000000000020e+00 +9.1176934110854493e+00 +0.0000000000000000e+00 -3.6999999100427776e+00 +3.8193164782787079e-04 +0.0000000000000000e+00 +9.9999992706410556e-01
-3.8000000000000020e+00 +9.1176547018340273e+00 +0.0000000000000000e+00 -3.7999999025503026e+00 +3.9225337203217271e-04 +0.0000000000000000e+00 +9.9999992306864316e-01
-3.9000000000000021e+00 +9.1176149604127854e+00 +0.0000000000000000e+00 -3.8999998946529555e+00 +4.0257504396057630e-04 +0.0000000000000000e+00 +9.9999991896666374e-01
-4.0000000000000018e+00 +9.1175741868270244e+00 +0.0000000000000000e+00 -3.9999998863400847e+00 +4.1289666217419606e-04 +0.0000000000000000e+00 +9.9999991475816963e-01
-4.1000000000000014e+00 +9.1175323810821869e+00 +0.0000000000000000e+00 -4.0999998776010393e+00 +4.2321822529060355e-04 +0.0000000000000000e+00 +9.9999991044316294e-01
-4.2000000000000011e+00 +9.1174895431838472e+00 +0.0000000000000000e+00 -4.1999998684251674e+00 +4.3353973198382781e-04 +0.0000000000000000e+00 +9.9999990602164601e-01
-4.3000000000000007e+00 +9.1174456731377127e+00 +0.0000000000000000e+00 -4.2999998588018187e+00 +4.4386118098435590e-04 +0.0000000000000000e+00 +9.9999990149362117e-01
-4.4000000000000004e+00 +9.1174007709496134e+00 +0.0000000000000000e+00 -4.3999998487203422e+00 +4.5418257107913328e-04 +0.0000000000000000e+00 +9.9999989685909074e-01
-4.5000000000000000e+00 +9.1173548366254984e+00 +0.0000000000000000e+00 -4.4999998381700870e+00 +4.6450390111156417e-04 +0.0000000000000000e+00 +9.9999989211805707e-01
-4.5999999999999996e+00 +9.1173078701714303e+00 +0.0000000000000000e+00 -4.5999998271404037e+00 +4.7482516998151178e-04 +0.0000000000000000e+00 +9.9999988727052258e-01
-4.6999999999999993e+00 +9.1172598715935766e+00 +0.0000000000000000e+00 -4.6999998156206422e+00 +4.8514637664529871e-04 +0.0000000000000000e+00 +9.9999988231648962e-01
-4.7999999999999989e+00 +9.1172108408982080e+00 +0.0000000000000000e+00 -4.7999998036001523e+00 +4.9546752011570699e-04 +0.0000000000000000e+00 +9.9999987725596062e-01
-4.8999999999999986e+00 +9.1171607780916908e+00 +0.0000000000000000e+00 -4.8999997910682849e+00 +5.0578859946197817e-04 +0.0000000000000000e+00 +9.9999987208893804e-01
-4.9999999999999982e+00 +9.1171096831804821e+00 +0.0000000000000000e+00 -4.9999997780143906e+00 +5.1610961380981358e-04 +0.0000000000000000e+00 +9.9999986681542430e-01
-5.0999999999999979e+00 +9.1170575561711225e+00 +0.0000000000000000e+00 -5.0999997644278201e+00 +5.2643056234137403e-04 +0.0000000000000000e+00 +9.9999986143542186e-01
-5.1999999999999975e+00 +9.1170043970702324e+00 +0.0000000000000000e+00 -5.1999997502979252e+00 +5.3675144429528006e-04 +0.0000000000000000e+00 +9.9999985594893304e-01
-5.2999999999999972e+00 +9.1169502058845051e+00 +0.0000000000000000e+00 -5.2999997356140574e+00 +5.4707225896661173e-04 +0.0000000000000000e+00 +9.9999985035596040e-01
-5.3999999999999968e+00 +9.1168949826207033e+00 +0.0000000000000000e+00 -5.3999997203655683e+00 +5.5739300570690825e-04 +0.0000000000000000e+00 +9.9999984465650638e-01
-5.4999999999999964e+00 +9.1168387272856481e+00 +0.0000000000000000e+00 -5.4999997045418096e+00 +5.6771368392416791e-04 +0.0000000000000000e+00 +9.9999983885057342e-01
-5.5999999999999961e+00 +9.1167814398862195e+00 +0.0000000000000000e+00 -5.5999996881321339e+00 +5.7803429308923198e-04 +0.0000000000000000e+00 +9.9999983293816386e-01
-5.6999999999999957e+00 +9.1167231204293451e+00 +0.0000000000000000e+00 -5.6999996711258936e+00 +5.8835483280600561e-04 +0.0000000000000000e+00 +9.9999982691928013e-01
-5.7999999999999954e+00 +9.1166637689219794e+00 +0.0000000000000000e+00 -5.7999996535124412e+00 +5.9867530288166442e-04 +0.0000000000000000e+00 +9.9999982079392458e-01
-5.8999999999999950e+00 +9.1166033853710893e+00 +0.0000000000000000e+00 -5.8999996352811293e+00 +6.0899570333300889e-04 +0.0000000000000000e+00 +9.9999981456209919e-01
-5.9999999999999947e+00 +9.1165419697836256e+00 +0.0000000000000000e+00 -5.9999996164213121e+00 +6.1931603438643377e-04 +0.0000000000000000e+00 +9.9999980822380607e-01
-6.0999999999999943e+00 +9.1164795221665109e+00 +0.0000000000000000e+00 -6.0999995969223422e+00 +6.2963629647789577e-04 +0.0000000000000000e+00 +9.9999980177904713e-01
-6.1999999999999940e+00 +9.1164160425266090e+00 +0.0000000000000000e+00 -6.1999995767735729e+00 +6.3995649025288019e-04 +0.0000000000000000e+00 +9.9999979522782401e-01
-6.2999999999999936e+00 +9.1163515308707108e+00 +0.0000000000000000e+00 -6.2999995559643587e+00 +6.5027661656636576e-04 +0.0000000000000000e+00 +9.9999978857013827e-01
-6.3999999999999932e+00 +9.1162859872055098e+00 +0.0000000000000000e+00 -6.3999995344840519e+00 +6.6059667648278857e-04 +0.0000000000000000e+00 +9.9999978180599136e-01
-6.4999999999999929e+00 +9.1162194115375854e+00 +0.0000000000000000e+00 -6.4999995123220078e+00 +6.7091667127600486e-04 +0.0000000000000000e+00 +9.9999977493538439e-01
-6.5999999999999925e+00 +9.1161518038733771e+00 +0.0000000000000000e+00 -6.5999994894675797e+00 +6.8123660242925199e-04 +0.0000000000000000e+00 +9.9999976795831846e-01
-6.6999999999999922e+00 +9.1160831642191660e+00 +0.0000000000000000e+00 -6.6999994659101230e+00 +6.9155647163510843e-04 +0.0000000000000000e+00 +9.9999976087479436e-01
-6.7999999999999918e+00 +9.1160134925810521e+00 +0.0000000000000000e+00 -6.7999994416389908e+00 +7.0187628079545247e-04 +0.0000000000000000e+00 +9.9999975368481253e-01
-6.8999999999999915e+00 +9.1159427889649383e+00 +0.0000000000000000e+00 -6.8999994166435377e+00 +7.1219603202141949e-04 +0.0000000000000000e+00 +9.9999974638837341e-01
-6.9999999999999911e+00 +9.1158710533765017e+00 +0.0000000000000000e+00 -6.9999993909131177e+00 +7.2251572763335804e-04 +0.0000000000000000e+00 +9.9999973898547723e-01
-7.0999999999999908e+00 +9.1157982858211799e+00 +0.0000000000000000e+00 -7.0999993644370853e+00 +7.3283537016078455e-04 +0.0000000000000000e+00 +9.9999973147612364e-01
-7.1999999999999904e+00 +9.1157244863041473e+00 +0.0000000000000000e+00 -7.1999993372047939e+00 +7.4315496234233656e-04 +0.0000000000000000e+00 +9.9999972386031244e-01
-7.2999999999999901e+00 +9.1156496548302925e+00 +0.0000000000000000e+00 -7.2999993092055986e+00 +7.5347450712572506e-04 +0.0000000000000000e+00 +9.9999971613804284e-01
-7.3999999999999897e+00 +9.1155737914041985e+00 +0.0000000000000000e+00 -7.3999992804288537e+00 +7.6379400766768510e-04 +0.0000000000000000e+00 +9.9999970830931395e-01
-7.4999999999999893e+00 +9.1154968960301233e+00 +0.0000000000000000e+00 -7.4999992508639126e+00 +7.7411346733392557e-04 +0.0000000000000000e+00 +9.9999970037412456e-01
-7.5999999999999890e+00 +9.1154189687119764e+00 +0.0000000000000000e+00 -7.5999992205001297e+00 +7.8443288967854671e-04 +0.0000000000000000e+00 +9.9999969233247310e-01
-7.6999999999999886e+00 +9.1153400094533144e+00 +0.0000000000000000e+00 -7.6999991893268582e+00 +7.9475227821816229e-04 +0.0000000000000000e+00 +9.9999968418435792e-01
-7.7999999999999883e+00 +9.1152600182573504e+00 +0.0000000000000000e+00 -7.7999991573334526e+00 +8.0507163620607749e-04 +0.0000000000000000e+00 +9.9999967592977745e-01
-7.8999999999999879e+00 +9.1151789951269908e+00 +0.0000000000000000e+00 -7.8999991245092653e+00 +8.1539096661181233e-04 +0.0000000000000000e+00 +9.9999966756873016e-01
-7.9999999999999876e+00 +9.1150969400648574e+00 +0.0000000000000000e+00 -7.9999990908436498e+00 +8.2571027212115992e-04 +0.0000000000000000e+00 +9.9999965910121480e-01
-8.0999999999999872e+00 +9.1150138530733162e+00 +0.0000000000000000e+00 -8.0999990563259594e+00 +8.3602955513624813e-04 +0.0000000000000000e+00 +9.9999965052723006e-01
-8.1999999999999869e+00 +9.1149297341545097e+00 +0.0000000000000000e+00 -8.1999990209455476e+00 +8.4634881777560247e-04 +0.0000000000000000e+00 +9.9999964184677481e-01
-8.2999999999999865e+00 +9.1148445833103793e+00 +0.0000000000000000e+00 -8.2999989846917668e+00 +8.5666806187421213e-04 +0.0000000000000000e+00 +9.9999963305984818e-01
-8.3999999999999861e+00 +9.1147584005427014e+00 +0.0000000000000000e+00 -8.3999989475539696e+00 +8.6698728898359752e-04 +0.0000000000000000e+00 +9.9999962416644939e-01
-8.4999999999999858e+00 +9.1146711858531066e+00 +0.0000000000000000e+00 -8.4999989095215085e+00 +8.7730650037188076e-04 +0.0000000000000000e+00 +9.9999961516657776e-01
-8.5999999999999854e+00 +9.1145829392431175e+00 +0.0000000000000000e+00 -8.5999988705837360e+00 +8.8762569702385786e-04 +0.0000000000000000e+00 +9.9999960606023297e-01
-8.6999999999999851e+00 +9.1144936607141691e+00 +0.0000000000000000e+00 -8.6999988307300065e+00 +8.9794487964107365e-04 +0.0000000000000000e+00 +9.9999959684741491e-01
-8.7999999999999847e+00 +9.1144033502676418e+00 +0.0000000000000000e+00 -8.7999987899496706e+00 +9.0826404864189866e-04 +0.0000000000000000e+00 +9.9999958752812357e-01
-8.8999999999999844e+00 +9.1143120079048892e+00 +0.0000000000000000e+00 -8.8999987482320826e+00 +9.1858320416160835e-04 +0.0000000000000000e+00 +9.9999957810235918e-01
-8.9999999999999840e+00 +9.1142196336272630e+00 +0.0000000000000000e+00 -8.9999987055665933e+00 +9.2890234605246490e-04 +0.0000000000000000e+00 +9.9999956857012229e-01
-9.0999999999999837e+00 +9.1141262274361470e+00 +0.0000000000000000e+00 -9.0999986619425570e+00 +9.3922147388380054e-04 +0.0000000000000000e+00 +9.9999955893141379e-01
-9.1999999999999833e+00 +9.1140317893329783e+00 +0.0000000000000000e+00 -9.1999986173493262e+00 +9.4954058694210410e-04 +0.0000000000000000e+00 +9.9999954918623479e-01
-9.2999999999999829e+00 +9.1139363193192828e+00 +0.0000000000000000e+00 -9.2999985717762552e+00 +9.5985968423110924e-04 +0.0000000000000000e+00 +9.9999953933458674e-01
-9.3999999999999826e+00 +9.1138398173967001e+00 +0.0000000000000000e+00 -9.3999985252126947e+00 +9.7017876447188503e-04 +0.0000000000000000e+00 +9.9999952937647130e-01
-9.4999999999999822e+00 +9.1137422835670083e+00 +0.0000000000000000e+00 -9.4999984776480009e+00 +9.8049782610292900e-04 +0.0000000000000000e+00 +9.9999951931189057e-01
-9.5999999999999819e+00 +9.1136437178321597e+00 +0.0000000000000000e+00 -9.5999984290715243e+00 +9.9081686730053591e-04 +0.0000000000000000e+00 +9.9999950914084690e-01
-9.6999999999999815e+00 +9.1135441201942911e+00 +0.0000000000000000e+00 -9.6999983794726212e+00 +1.0011358862019050e-03 +0.0000000000000000e+00 +9.9999949886334272e-01
-9.7999999999999812e+00 +9.1134434906557189e+00 +0.0000000000000000e+00 -9.7999983288406440e+00 +1.0114548811281940e-03 +0.0000000000000000e+00 +9.9999948847938047e-01
-9.8999999999999808e+00 +9.1133418292189141e+00 +0.0000000000000000e+00 -9.8999982771649488e+00 +1.0217738506047853e-03 +0.0000000000000000e+00 +9.9999947798896249e-01
-9.9999999999999805e+00 +9.1132391358864879e+00 +0.0000000000000000e+00 -9.9999982244348882e+00 +1.0320927933612739e-03 +0.0000000000000000e+00 +9.9999946739209078e-01
-1.0099999999999980e+01 +9.1131354106611671e+00 +0.0000000000000000e+00 -1.0099998170639818e+01 +1.0424117083314539e-03 +0.0000000000000000e+00 +9.9999945668876722e-01
-1.0199999999999980e+01 +9.1130306535457759e+00 +0.0000000000000000e+00 -1.0199998115769093e+01 +1.0527305946533051e-03 +0.0000000000000000e+00 +9.9999944587899370e-01
-1.0299999999999979e+01 +9.1129248645432135e+00 +0.0000000000000000e+00 -1.0299998059812069e+01 +1.0630494516689786e-03 +0.0000000000000000e+00 +9.9999943496277166e-01
-1.0399999999999979e+01 +9.1128180436564339e+00 +0.0000000000000000e+00 -1.0399998002758100e+01 +1.0733682789247820e-03 +0.0000000000000000e+00 +9.9999942394010266e-01
-1.0499999999999979e+01 +9.1127101908884285e+00 +0.0000000000000000e+00 -1.0499997944596542e+01 +1.0836870761711630e-03 +0.0000000000000000e+00 +9.9999941281098781e-01
-1.0599999999999978e+01 +9.1126013062422011e+00 +0.0000000000000000e+00 -1.0599997885316750e+01 +1.0940058433626940e-03 +0.0000000000000000e+00 +9.9999940157542799e-01
-1.0699999999999978e+01 +9.1124913897207520e+00 +0.0000000000000000e+00 -1.0699997824908079e+01 +1.1043245806580549e-03 +0.0000000000000000e+00 +9.9999939023342410e-01
-1.0799999999999978e+01 +9.1123804413270548e+00 +0.0000000000000000e+00 -1.0799997763359887e+01 +1.1146432884200157e-03 +0.0000000000000000e+00 +9.9999937878497658e-01
-1.0899999999999977e+01 +9.1122684610640352e+00 +0.0000000000000000e+00 -1.0899997700661526e+01 +1.1249619672154183e-03 +0.0000000000000000e+00 +9.9999936723008576e-01
-1.0999999999999977e+01 +9.1121554489345531e+00 +0.0000000000000000e+00 -1.0999997636802355e+01 +1.1352806178151573e-03 +0.0000000000000000e+00 +9.9999935556875152e-01
-1.1099999999999977e+01 +9.1120414049413796e+00 +0.0000000000000000e+00 -1.1099997571771729e+01 +1.1455992411941618e-03 +0.0000000000000000e+00 +9.9999934380097377e-01
-1.1199999999999976e+01 +9.1119263290871810e+00 +0.0000000000000000e+00 -1.1199997505559002e+01 +1.1559178385313739e-03 +0.0000000000000000e+00 +9.9999933192675194e-01
-1.1299999999999976e+01 +9.1118102213744940e+00 +0.0000000000000000e+00 -1.1299997438153531e+01 +1.1662364112097292e-03 +0.0000000000000000e+00 +9.9999931994608515e-01
-1.1399999999999975e+01 +9.1116930818057078e+00 +0.0000000000000000e+00 -1.1399997369544671e+01 +1.1765549608161352e-03 +0.0000000000000000e+00 +9.9999930785897240e-01
-1.1499999999999975e+01 +9.1115749103830410e+00 +0.0000000000000000e+00 -1.1499997299721777e+01 +1.1868734891414489e-03 +0.0000000000000000e+00 +9.9999929566541224e-01
-1.1599999999999975e+01 +9.1114557071085240e+00 +0.0000000000000000e+00 -1.1599997228674205e+01 +1.1971919981673524e-03 +0.0000000000000000e+00 +9.9999928336540289e-01
-1.1699999999999974e+01 +9.1113354719839830e+00 +0.0000000000000000e+00 -1.1699997156391309e+01 +1.2075104899221948e-03 +0.0000000000000000e+00 +9.9999927095894248e-01
