# field on trajectory
# s[mm] rx[mm] ry[mm] rz[mm] bx[T] by[T] bz[T]
0.0000000000000000e+00 +9.0925999999999991e+00 +0.0000000000000000e+00 +0.0000000000000000e+00 +1.1244916661646245e-02 -1.0351396214099149e+00 -5.9110161639926426e-02
1.0000000000000001e-01 +9.0925994827880494e+00 +0.0000000000000000e+00 +9.9999999998216599e-02 +1.1244826421430265e-02 -1.0351406887948342e+00 -5.9109288639400501e-02
2.0000000000000001e-01 +9.0925979311515093e+00 +0.0000000000000000e+00 +1.9999999998573287e-01 +1.1244729235802466e-02 -1.0351416256837911e+00 -5.9108417649905758e-02
3.0000000000000004e-01 +9.0925953450894426e+00 +0.0000000000000000e+00 +2.9999999995184845e-01 +1.1244624155536330e-02 -1.0351424180863313e+00 -5.9107547826345377e-02
4.0000000000000002e-01 +9.0925917246010606e+00 +0.0000000000000000e+00 +3.9999999988586293e-01 +1.1244510231433939e-02 -1.0351430520105336e+00 -5.9106678323627773e-02
5.0000000000000000e-01 +9.0925870696857309e+00 +0.0000000000000000e+00 +4.9999999977707588e-01 +1.1244386514331290e-02 -1.0351435134627964e+00 -5.9105808296672009e-02
5.9999999999999998e-01 +9.0925813803429936e+00 +0.0000000000000000e+00 +5.9999999961478689e-01 +1.1244252420161522e-02 -1.0351437941205923e+00 -5.9104937187672076e-02
6.9999999999999996e-01 +9.0925746565725660e+00 +0.0000000000000000e+00 +6.9999999938829560e-01 +1.1244108825124022e-02 -1.0351439083515639e+00 -5.9104065587873261e-02
7.9999999999999993e-01 +9.0925668983743346e+00 +0.0000000000000000e+00 +7.9999999908690156e-01 +1.1243956970493515e-02 -1.0351438761953353e+00 -5.9103194375790952e-02
8.9999999999999991e-01 +9.0925581057483313e+00 +0.0000000000000000e+00 +8.9999999869990432e-01 +1.1243798097554119e-02 -1.0351437176908738e+00 -5.9102324429951038e-02
9.9999999999999989e-01 +9.0925482786947125e+00 +0.0000000000000000e+00 +9.9999999821660357e-01 +1.1243633447593233e-02 -1.0351434528767520e+00 -5.9101456628889763e-02
1.0999999999999999e+00 +9.0925374172137428e+00 +0.0000000000000000e+00 +1.0999999976262989e+00 +1.1243464261895385e-02 -1.0351431017913992e+00 -5.9100591851153843e-02
1.2000000000000000e+00 +9.0925255213057721e+00 +0.0000000000000000e+00 +1.1999999969182900e+00 +1.1243291781736102e-02 -1.0351426844733607e+00 -5.9099730975300212e-02
1.3000000000000000e+00 +9.0925125909712179e+00 +0.0000000000000000e+00 +1.2999999960818764e+00 +1.1243117248375791e-02 -1.0351422209615551e+00 -5.9098874879896082e-02
1.4000000000000001e+00 +9.0924986262105421e+00 +0.0000000000000000e+00 +1.3999999951063580e+00 +1.1242941903053616e-02 -1.0351417312955300e+00 -5.9098024443518908e-02
1.5000000000000002e+00 +9.0924836270242348e+00 +0.0000000000000000e+00 +1.4999999939810342e+00 +1.1242766986981349e-02 -1.0351412355157166e+00 -5.9097180544756253e-02
1.6000000000000003e+00 +9.0924675934127901e+00 +0.0000000000000000e+00 +1.5999999926952049e+00 +1.1242593741337256e-02 -1.0351407536636912e+00 -5.9096344062205770e-02
1.7000000000000004e+00 +9.0924505253766910e+00 +0.0000000000000000e+00 +1.6999999912381698e+00 +1.1242423407259939e-02 -1.0351403057824262e+00 -5.9095515874475146e-02
1.8000000000000005e+00 +9.0924324229163851e+00 +0.0000000000000000e+00 +1.7999999895992285e+00 +1.1242257225842248e-02 -1.0351399119165519e+00 -5.9094696860182080e-02
1.9000000000000006e+00 +9.0924132860322651e+00 +0.0000000000000000e+00 +1.8999999877676810e+00 +1.1242096438125099e-02 -1.0351395921126083e+00 -5.9093887897954091e-02
2.0000000000000004e+00 +9.0923931147246524e+00 +0.0000000000000000e+00 +1.9999999857328268e+00 +1.1241942285091384e-02 -1.0351393664193067e+00 -5.9093089866428694e-02
2.1000000000000005e+00 +9.0923719089937709e+00 +0.0000000000000000e+00 +2.0999999834839658e+00 +1.1241796007659809e-02 -1.0351392548877814e+00 -5.9092303644253039e-02
2.2000000000000006e+00 +9.0923496688397343e+00 +0.0000000000000000e+00 +2.1999999810103978e+00 +1.1241658846678772e-02 -1.0351392775718493e+00 -5.9091530110084112e-02
2.3000000000000007e+00 +9.0923263942625212e+00 +0.0000000000000000e+00 +2.2999999783014222e+00 +1.1241532042920223e-02 -1.0351394545282675e+00 -5.9090770142588581e-02
2.4000000000000008e+00 +9.0923020852619540e+00 +0.0000000000000000e+00 +2.3999999753463386e+00 +1.1241416837073529e-02 -1.0351398058169838e+00 -5.9090024620442626e-02
2.5000000000000009e+00 +9.0922767418376829e+00 +0.0000000000000000e+00 +2.4999999721344470e+00 +1.1241314469739349e-02 -1.0351403515014022e+00 -5.9089294422332087e-02
2.6000000000000010e+00 +9.0922503639891641e+00 +0.0000000000000000e+00 +2.5999999686550468e+00 +1.1241225763814266e-02 -1.0351411081211899e+00 -5.9088580069513730e-02
2.7000000000000011e+00 +9.0922229517156445e+00 +0.0000000000000000e+00 +2.6999999648974371e+00 +1.1241149871704201e-02 -1.0351420781094627e+00 -5.9087880653473625e-02
2.8000000000000012e+00 +9.0921945050161579e+00 +0.0000000000000000e+00 +2.7999999608509176e+00 +1.1241085528237724e-02 -1.0351432603739790e+00 -5.9087194908194723e-02
2.9000000000000012e+00 +9.0921650238895264e+00 +0.0000000000000000e+00 +2.8999999565047876e+00 +1.1241031468295000e-02 -1.0351446538244591e+00 -5.9086521567582616e-02
3.0000000000000013e+00 +9.0921345083343592e+00 +0.0000000000000000e+00 +2.9999999518483462e+00 +1.1240986426815421e-02 -1.0351462573726351e+00 -5.9085859365458349e-02
3.1000000000000014e+00 +9.0921029583490576e+00 +0.0000000000000000e+00 +3.0999999468708923e+00 +1.1240949138805184e-02 -1.0351480699322939e+00 -5.9085207035551007e-02
3.2000000000000015e+00 +9.0920703739318149e+00 +0.0000000000000000e+00 +3.1999999415617251e+00 +1.1240918339344921e-02 -1.0351500904193272e+00 -5.9084563311490597e-02
3.3000000000000016e+00 +9.0920367550806152e+00 +0.0000000000000000e+00 +3.2999999359101433e+00 +1.1240892763597302e-02 -1.0351523177517774e+00 -5.9083926926800631e-02
3.4000000000000017e+00 +9.0920021017932360e+00 +0.0000000000000000e+00 +3.3999999299054458e+00 +1.1240871146814638e-02 -1.0351547508498846e+00 -5.9083296614890896e-02
3.5000000000000018e+00 +9.0919664140672491e+00 +0.0000000000000000e+00 +3.4999999235369308e+00 +1.1240852224346494e-02 -1.0351573886361329e+00 -5.9082671109050196e-02
3.6000000000000019e+00 +9.0919296919000239e+00 +0.0000000000000000e+00 +3.5999999167938967e+00 +1.1240834731647298e-02 -1.0351602300352984e+00 -5.9082049142439058e-02
3.7000000000000020e+00 +9.0918919352887251e+00 +0.0000000000000000e+00 +3.6999999096656420e+00 +1.1240817404283968e-02 -1.0351632739744969e+00 -5.9081429448082499e-02
3.8000000000000020e+00 +9.0918531442303134e+00 +0.0000000000000000e+00 +3.7999999021414648e+00 +1.1240798977943505e-02 -1.0351665193832280e+00 -5.9080810758862644e-02
3.9000000000000021e+00 +9.0918133187215506e+00 +0.0000000000000000e+00 +3.8999998942106626e+00 +1.1240778188440614e-02 -1.0351699651934261e+00 -5.9080191807511576e-02
4.0000000000000018e+00 +9.0917724587589976e+00 +0.0000000000000000e+00 +3.9999998858625339e+00 +1.1240753771725334e-02 -1.0351736103395044e+00 -5.9079571326604047e-02
4.1000000000000014e+00 +9.0917305643390165e+00 +0.0000000000000000e+00 +4.0999998770863755e+00 +1.1240724463890635e-02 -1.0351774537584020e+00 -5.9078948048550080e-02
4.2000000000000011e+00 +9.0916876354577703e+00 +0.0000000000000000e+00 +4.1999998678714849e+00 +1.1240689001180047e-02 -1.0351814943896334e+00 -5.9078320705587911e-02
4.3000000000000007e+00 +9.0916436721112266e+00 +0.0000000000000000e+00 +4.2999998582071592e+00 +1.1240646119995295e-02 -1.0351857311753332e+00 -5.9077688029776546e-02
4.4000000000000004e+00 +9.0915986742951560e+00 +0.0000000000000000e+00 +4.3999998480826958e+00 +1.1240594556903870e-02 -1.0351901630603035e+00 -5.9077048752988533e-02
4.5000000000000000e+00 +9.0915526420051354e+00 +0.0000000000000000e+00 +4.4999998374873904e+00 +1.1240533048646726e-02 -1.0351947889920627e+00 -5.9076401606902827e-02
4.5999999999999996e+00 +9.0915055752365461e+00 +0.0000000000000000e+00 +4.5999998264105404e+00 +1.1240460716351531e-02 -1.0351996050776993e+00 -5.9075745690190577e-02
4.6999999999999993e+00 +9.0914574739845833e+00 +0.0000000000000000e+00 +4.6999998148414415e+00 +1.1240378218065965e-02 -1.0352045960521357e+00 -5.9075081570206293e-02
4.7999999999999989e+00 +9.0914083382442641e+00 +0.0000000000000000e+00 +4.7999998027693902e+00 +1.1240286595964282e-02 -1.0352097438038463e+00 -5.9074410181600014e-02
4.8999999999999986e+00 +9.0913581680104532e+00 +0.0000000000000000e+00 +4.8999997901836814e+00 +1.1240186892105609e-02 -1.0352150302172536e+00 -5.9073732459157938e-02
4.9999999999999982e+00 +9.0913069632778729e+00 +0.0000000000000000e+00 +4.9999997770736115e+00 +1.1240080148425594e-02 -1.0352204371724265e+00 -5.9073049337813266e-02
5.0999999999999979e+00 +9.0912547240411268e+00 +0.0000000000000000e+00 +5.0999997634284755e+00 +1.1239967406728051e-02 -1.0352259465447828e+00 -5.9072361752656719e-02
5.1999999999999975e+00 +9.0912014502947187e+00 +0.0000000000000000e+00 +5.1999997492375680e+00 +1.1239849708676647e-02 -1.0352315402047829e+00 -5.9071670638947332e-02
5.2999999999999972e+00 +9.0911471420330638e+00 +0.0000000000000000e+00 +5.2999997344901848e+00 +1.1239728095786501e-02 -1.0352372000176358e+00 -5.9070976932123015e-02
5.3999999999999968e+00 +9.0910917992505151e+00 +0.0000000000000000e+00 +5.3999997191756197e+00 +1.1239603609415883e-02 -1.0352429078429919e+00 -5.9070281567811272e-02
5.4999999999999964e+00 +9.0910354219413758e+00 +0.0000000000000000e+00 +5.4999997032831676e+00 +1.1239477290757832e-02 -1.0352486455346466e+00 -5.9069585481839909e-02
5.5999999999999961e+00 +9.0909780100999189e+00 +0.0000000000000000e+00 +5.5999996868021222e+00 +1.1239350180831807e-02 -1.0352543949402382e+00 -5.9068889610247553e-02
5.6999999999999957e+00 +9.0909195637204068e+00 +0.0000000000000000e+00 +5.6999996697217785e+00 +1.1239223320475330e-02 -1.0352601379009456e+00 -5.9068194889294483e-02
5.7999999999999954e+00 +9.0908600827971089e+00 +0.0000000000000000e+00 +5.7999996520314294e+00 +1.1239097750335649e-02 -1.0352658562511907e+00 -5.9067502255473178e-02
5.8999999999999950e+00 +9.0907995673243178e+00 +0.0000000000000000e+00 +5.8999996337203697e+00 +1.1238974510861364e-02 -1.0352715318183352e+00 -5.9066812645519044e-02
5.9999999999999947e+00 +9.0907380172963705e+00 +0.0000000000000000e+00 +5.9999996147778925e+00 +1.1238854642294053e-02 -1.0352771464223807e+00 -5.9066126996421046e-02
6.0999999999999943e+00 +9.0906754327076644e+00 +0.0000000000000000e+00 +6.0999995951932906e+00 +1.1238739184659950e-02 -1.0352826818756666e+00 -5.9065446245432328e-02
6.1999999999999940e+00 +9.0906118135526750e+00 +0.0000000000000000e+00 +6.1999995749558581e+00 +1.1238629177761545e-02 -1.0352881199825725e+00 -5.9064771330080951e-02
6.2999999999999936e+00 +9.0905471598259773e+00 +0.0000000000000000e+00 +6.2999995540548879e+00 +1.1238525661169230e-02 -1.0352934425392140e+00 -5.9064103188180436e-02
6.3999999999999932e+00 +9.0904814715222617e+00 +0.0000000000000000e+00 +6.3999995324796730e+00 +1.1238429674212959e-02 -1.0352986313331443e+00 -5.9063442757840590e-02
6.4999999999999929e+00 +9.0904147486363502e+00 +0.0000000000000000e+00 +6.4999995102195074e+00 +1.1238342255973836e-02 -1.0353036681430521e+00 -5.9062790977477957e-02
6.5999999999999925e+00 +9.0903469911632193e+00 +0.0000000000000000e+00 +6.5999994872636831e+00 +1.1238264141459465e-02 -1.0353085386015082e+00 -5.9062148600200232e-02
6.6999999999999922e+00 +9.0902781990980071e+00 +0.0000000000000000e+00 +6.6999994636014932e+00 +1.1238194850267707e-02 -1.0353132437874204e+00 -5.9061515636830118e-02
6.7999999999999918e+00 +9.0902083724360203e+00 +0.0000000000000000e+00 +6.7999994392222307e+00 +1.1238133598286158e-02 -1.0353177886425853e+00 -5.9060891912626215e-02
6.8999999999999915e+00 +9.0901375111727223e+00 +0.0000000000000000e+00 +6.8999994141151886e+00 +1.1238079601558671e-02 -1.0353221781094342e+00 -5.9060277252890973e-02
6.9999999999999911e+00 +9.0900656153037360e+00 +0.0000000000000000e+00 +6.9999993882696590e+00 +1.1238032076292656e-02 -1.0353264171311185e+00 -5.9059671482970422e-02
7.0999999999999908e+00 +9.0899926848248320e+00 +0.0000000000000000e+00 +7.0999993616749357e+00 +1.1237990238866440e-02 -1.0353305106515895e+00 -5.9059074428254012e-02
7.1999999999999904e+00 +9.0899187197319264e+00 +0.0000000000000000e+00 +7.1999993343203110e+00 +1.1237953305836570e-02 -1.0353344636156803e+00 -5.9058485914174237e-02
7.2999999999999901e+00 +9.0898437200210758e+00 +0.0000000000000000e+00 +7.2999993061950779e+00 +1.1237920493945133e-02 -1.0353382809691878e+00 -5.9057905766206585e-02
7.3999999999999897e+00 +9.0897676856884750e+00 +0.0000000000000000e+00 +7.3999992772885292e+00 +1.1237891020127134e-02 -1.0353419676589548e+00 -5.9057333809869196e-02
7.4999999999999893e+00 +9.0896906167304472e+00 +0.0000000000000000e+00 +7.4999992475899573e+00 +1.1237864101517770e-02 -1.0353455286329492e+00 -5.9056769870722586e-02
7.5999999999999890e+00 +9.0896125131434395e+00 +0.0000000000000000e+00 +7.5999992170886550e+00 +1.1237838955459814e-02 -1.0353489688403501e+00 -5.9056213774369502e-02
7.6999999999999886e+00 +9.0895333749240237e+00 +0.0000000000000000e+00 +7.6999991857739154e+00 +1.1237814799510921e-02 -1.0353522932316257e+00 -5.9055665346454692e-02
7.7999999999999883e+00 +9.0894532020688867e+00 +0.0000000000000000e+00 +7.7999991536350306e+00 +1.1237790851450989e-02 -1.0353555067586173e+00 -5.9055124412664695e-02
7.8999999999999879e+00 +9.0893719945748241e+00 +0.0000000000000000e+00 +7.8999991206612936e+00 +1.1237766329289477e-02 -1.0353586143746183e+00 -5.9054590798727477e-02
7.9999999999999876e+00 +9.0892897524387397e+00 +0.0000000000000000e+00 +7.9999990868419975e+00 +1.1237740451272751e-02 -1.0353616210344598e+00 -5.9054064330412291e-02
8.0999999999999872e+00 +9.0892064756576367e+00 +0.0000000000000000e+00 +8.0999990521664333e+00 +1.1237712435891459e-02 -1.0353645316945899e+00 -5.9053544833529634e-02
8.1999999999999869e+00 +9.0891221642286144e+00 +0.0000000000000000e+00 +8.1999990166238952e+00 +1.1237681501887817e-02 -1.0353673513131547e+00 -5.9053032133930657e-02
8.2999999999999865e+00 +9.0890368181488643e+00 +0.0000000000000000e+00 +8.2999989802036751e+00 +1.1237646868263002e-02 -1.0353700848500824e+00 -5.9052526057507243e-02
8.3999999999999861e+00 +9.0889504374156633e+00 +0.0000000000000000e+00 +8.3999989428950670e+00 +1.1237607754284501e-02 -1.0353727372671644e+00 -5.9052026430191681e-02
8.4999999999999858e+00 +9.0888630220263700e+00 +0.0000000000000000e+00 +8.4999989046873630e+00 +1.1237563379493422e-02 -1.0353753135281347e+00 -5.9051533077956381e-02
8.5999999999999854e+00 +9.0887745719784192e+00 +0.0000000000000000e+00 +8.5999988655698552e+00 +1.1237513181361554e-02 -1.0353778186030034e+00 -5.9051045806598416e-02
8.6999999999999851e+00 +9.0886850872693152e+00 +0.0000000000000000e+00 +8.6999988255318357e+00 +1.1237457468121645e-02 -1.0353802574807391e+00 -5.9050564340942240e-02
8.7999999999999847e+00 +9.0885945678966316e+00 +0.0000000000000000e+00 +8.7999987845625967e+00 +1.1237396765534900e-02 -1.0353826351563731e+00 -5.9050088385222819e-02
8.8999999999999844e+00 +9.0885030138580003e+00 +0.0000000000000000e+00 +8.8999987426514320e+00 +1.1237331599182899e-02 -1.0353849566267850e+00 -5.9049617643252908e-02
8.9999999999999840e+00 +9.0884104251511104e+00 +0.0000000000000000e+00 +8.9999986997876338e+00 +1.1237262494461527e-02 -1.0353872268907724e+00 -5.9049151818409945e-02
9.0999999999999837e+00 +9.0883168017737042e+00 +0.0000000000000000e+00 +9.0999986559604942e+00 +1.1237189976574835e-02 -1.0353894509491244e+00 -5.9048690613623112e-02
9.1999999999999833e+00 +9.0882221437235682e+00 +0.0000000000000000e+00 +9.1999986111593053e+00 +1.1237114570528976e-02 -1.0353916338046856e+00 -5.9048233731360165e-02
9.2999999999999829e+00 +9.0881264509985318e+00 +0.0000000000000000e+00 +9.2999985653733610e+00 +1.1237036801126057e-02 -1.0353937804624316e+00 -5.9047780873614508e-02
9.3999999999999826e+00 +9.0880297235964580e+00 +0.0000000000000000e+00 +9.3999985185919517e+00 +1.1236957192958065e-02 -1.0353958959295351e+00 -5.9047331741892056e-02
9.4999999999999822e+00 +9.0879319615152436e+00 +0.0000000000000000e+00 +9.4999984708043712e+00 +1.1236876270400743e-02 -1.0353979852154371e+00 -5.9046886037198196e-02
9.5999999999999819e+00 +9.0878331647528103e+00 +0.0000000000000000e+00 +9.5999984219999117e+00 +1.1236794557607470e-02 -1.0354000533319156e+00 -5.9046443460024779e-02
9.6999999999999815e+00 +9.0877333333071029e+00 +0.0000000000000000e+00 +9.6999983721678653e+00 +1.1236712578503170e-02 -1.0354021052931570e+00 -5.9046003710336990e-02
9.7999999999999812e+00 +9.0876324671760802e+00 +0.0000000000000000e+00 +9.7999983212975241e+00 +1.1236630856778168e-02 -1.0354041461158237e+00 -5.9045566487560396e-02
9.8999999999999808e+00 +9.0875305663577119e+00 +0.0000000000000000e+00 +9.8999982693781803e+00 +1.1236549915882113e-02 -1.0354061808191259e+00 -5.9045131490567872e-02
9.9999999999999805e+00 +9.0874276308499766e+00 +0.0000000000000000e+00 +9.9999982163991259e+00 +1.1236470279017814e-02 -1.0354082144248891e+00 -5.9044698417666415e-02
1.0099999999999980e+01 +9.0873236606508527e+00 +0.0000000000000000e+00 +1.0099998162349653e+01 +1.1236392469135150e-02 -1.0354102519576263e+00 -5.9044266966584338e-02
1.0199999999999980e+01 +9.0872186557583152e+00 +0.0000000000000000e+00 +1.0199998107219054e+01 +1.1236317008924945e-02 -1.0354122984446053e+00 -5.9043836834458026e-02
1.0299999999999979e+01 +9.0871126161703284e+00 +0.0000000000000000e+00 +1.0299998050996621e+01 +1.1236244420812839e-02 -1.0354143589159195e+00 -5.9043407717819019e-02
1.0399999999999979e+01 +9.0870055418848459e+00 +0.0000000000000000e+00 +1.0399997993671645e+01 +1.1236175226953160e-02 -1.0354164384045581e+00 -5.9042979312580832e-02
1.0499999999999979e+01 +9.0868974328998000e+00 +0.0000000000000000e+00 +1.0499997935233418e+01 +1.1236109949222806e-02 -1.0354185419464736e+00 -5.9042551314025991e-02
1.0599999999999978e+01 +9.0867882892131000e+00 +0.0000000000000000e+00 +1.0599997875671233e+01 +1.1236048995286300e-02 -1.0354206733377511e+00 -5.9042123696001939e-02
1.0699999999999978e+01 +9.0866781108226267e+00 +0.0000000000000000e+00 +1.0699997814974381e+01 +1.1235992316924156e-02 -1.0354228314042433e+00 -5.9041697549026037e-02
1.0799999999999978e+01 +9.0865668977262359e+00 +0.0000000000000000e+00 +1.0799997753132152e+01 +1.1235939752092703e-02 -1.0354250137279863e+00 -5.9041274243363827e-02
1.0899999999999977e+01 +9.0864546499217607e+00 +0.0000000000000000e+00 +1.0899997690133837e+01 +1.1235891138908228e-02 -1.0354272178898767e+00 -5.9040855149906361e-02
1.0999999999999977e+01 +9.0863413674070088e+00 +0.0000000000000000e+00 +1.0999997625968730e+01 +1.1235846315651337e-02 -1.0354294414696432e+00 -5.9040441640186805e-02
1.1099999999999977e+01 +9.0862270501797706e+00 +0.0000000000000000e+00 +1.1099997560626120e+01 +1.1235805120771389e-02 -1.0354316820458158e+00 -5.9040035086397012e-02
1.1199999999999976e+01 +9.0861116982378203e+00 +0.0000000000000000e+00 +1.1199997494095300e+01 +1.1235767392890929e-02 -1.0354339371956958e+00 -5.9039636861404225e-02
1.1299999999999976e+01 +9.0859953115789160e+00 +0.0000000000000000e+00 +1.1299997426365559e+01 +1.1235732970810087e-02 -1.0354362044953247e+00 -5.9039248338767669e-02
1.1399999999999975e+01 +9.0858778902008055e+00 +0.0000000000000000e+00 +1.1399997357426189e+01 +1.1235701693511020e-02 -1.0354384815194566e+00 -5.9038870892755134e-02
1.1499999999999975e+01 +9.0857594341012256e+00 +0.0000000000000000e+00 +1.1499997287266481e+01 +1.1235673400162332e-02 -1.0354407658415257e+00 -5.9038505898359704e-02
1.1599999999999975e+01 +9.0856399432779060e+00 +0.0000000000000000e+00 +1.1599997215875726e+01 +1.1235647930123481e-02 -1.0354430550336176e+00 -5.9038154731316211e-02
1.1699999999999974e+01 +9.0855194177285732e+00 +0.0000000000000000e+00 +1.1699997143243214e+01 +1.1235625122949226e-02 -1.0354453466664382e+00 -5.9037818768118006e-02
1.1799999999999974e+01 +9.0853978574509497e+00 +0.0000000000000000e+00 +1.1799997069358236e+01 +1.1235604818394040e-02 -1.0354476383092852e+00 -5.9037499386033421e-02
