# multipoles
# s[mm] polynom_b[n=0][T/m^n] polynom_b[n=1][T/m^n] polynom_b[n=2][T/m^n] polynom_b[n=3][T/m^n] polynom_b[n=4][T/m^n] polynom_b[n=5][T/m^n] polynom_b[n=6][T/m^n] 
+0.0000000000000000e+00 -1.0352145149330396e+00 +2.2861212608447929e+00 +2.5001022283120776e+01 +1.9661332703642688e+02 -1.1350338707904943e+05 -3.7347756021385820e+05 +5.9802414695201588e+08 
-1.0000000000000001e-01 -1.0352132005331518e+00 +2.2864868314954747e+00 +2.4998447719493331e+01 +1.9157215838011837e+02 -1.1312561050720999e+05 -3.3667829889373569e+05 +5.9594810620208538e+08 
-2.0000000000000001e-01 -1.0352117955977163e+00 +2.2868472501878681e+00 +2.4988996123542062e+01 +1.8681010331771344e+02 -1.1265909880677611e+05 -3.0144008732686070e+05 +5.9352980084210503e+08 
-3.0000000000000004e-01 -1.0352103117204419e+00 +2.2872031975609537e+00 +2.4973431542884502e+01 +1.8230164359726402e+02 -1.1211661285423004e+05 -2.6772926722613187e+05 +5.9082433842051339e+08 
-4.0000000000000002e-01 -1.0352087604949469e+00 +2.2875553542857987e+00 +2.4952518010139439e+01 +1.7802126079256234e+02 -1.1151091322921212e+05 -2.3551218201961557e+05 +5.8788682508431506e+08 
-5.0000000000000000e-01 -1.0352071535147884e+00 +2.2879044010545022e+00 +2.4927019544842302e+01 +1.7394343663973413e+02 -1.1085476020260731e+05 -2.0475517889221411e+05 +5.8477236535394061e+08 
-5.9999999999999998e-01 -1.0352055023733515e+00 +2.2882510185608949e+00 +2.4897700136836335e+01 +1.7004265364368575e+02 -1.1016091337379561e+05 -1.7542461252049246e+05 +5.8153606023796535e+08 
-6.9999999999999996e-01 -1.0352038186639696e+00 +2.2885958874895564e+00 +2.4865323761071156e+01 +1.6629339545100805e+02 -1.0944213191340424e+05 -1.4748684743735133e+05 +5.7823300824610436e+08 
-7.9999999999999993e-01 -1.0352021139797667e+00 +2.2889396885060234e+00 +2.4830654354870976e+01 +1.6267014713722759e+02 -1.0871117408462061e+05 -1.2090825976840191e+05 +5.7491830295700169e+08 
-8.9999999999999991e-01 -1.0352003999136716e+00 +2.2892831022434468e+00 +2.4794455818027494e+01 +1.5914739564277301e+02 -1.0798079719432085e+05 -9.5655239966005553e+04 +5.7164703260677993e+08 
-9.9999999999999989e-01 -1.0351986880584707e+00 +2.2896268092788903e+00 +2.4757492017793727e+01 +1.5569963050470190e+02 -1.0726375765189592e+05 -7.1694197242874565e+04 +5.6847428024447620e+08 
-1.0999999999999999e+00 -1.0351969900066462e+00 +2.2899714901446786e+00 +2.4720526767251208e+01 +1.5230134356074183e+02 -1.0657281050907004e+05 -4.8991558005053725e+04 +5.6545512136749923e+08 
-1.2000000000000000e+00 -1.0351953173504924e+00 +2.2903178252863072e+00 +2.4684323837320356e+01 +1.4892703019233642e+02 -1.0592070964398794e+05 -2.7513773191919976e+04 +5.6264462464951980e+08 
-1.3000000000000000e+00 -1.0351936816820020e+00 +2.2906664950712092e+00 +2.4649646941358039e+01 +1.4555118912646913e+02 -1.0532020742526364e+05 -7.2273173473891129e+03 +5.6009785018831301e+08 
-1.4000000000000001e+00 -1.0351920945928825e+00 +2.2910181797624536e+00 +2.4617259734950515e+01 +1.4214832321448685e+02 -1.0478405466276425e+05 +1.1901306762740203e+04 +5.5786984911450195e+08 
-1.5000000000000002e+00 -1.0351905676745390e+00 +2.2913735595177225e+00 +2.4587925812333655e+01 +1.3869293951298511e+02 -1.0432500049416137e+05 +2.9905567577245409e+04 +5.5601566290429723e+08 
-1.6000000000000003e+00 -1.0351891099361796e+00 +2.2917333727057643e+00 +2.4562277816123995e+01 +1.3516179626060924e+02 -1.0395334664526039e+05 +4.6829026567362489e+04 +5.5457923614145267e+08 
-1.7000000000000004e+00 -1.0351877201687758e+00 +2.2920985968439065e+00 +2.4540439217182573e+01 +1.3153977547422485e+02 -1.0366996503581016e+05 +6.2759623268515039e+04 +5.5356151704013872e+08 
-1.8000000000000005e+00 -1.0351863946355240e+00 +2.2924702704109889e+00 +2.4522409700631279e+01 +1.2781358279468043e+02 -1.0347345570263828e+05 +7.7797397218900718e+04 +5.5295302958507180e+08 
-1.9000000000000006e+00 -1.0351851295996595e+00 +2.2928494318578352e+00 +2.4508188940347427e+01 +1.2396992485115196e+02 -1.0336241827397239e+05 +9.2042382465641378e+04 +5.5274429525543320e+08 
-2.0000000000000004e+00 -1.0351839213244398e+00 +2.2932371196067711e+00 +2.4497776598325121e+01 +1.1999550919017777e+02 -1.0333545197778755e+05 +1.0559460837037634e+05 +5.5292583314255071e+08 
-2.1000000000000005e+00 -1.0351827660731729e+00 +2.2936343720619954e+00 +2.4491172327530723e+01 +1.1587704387429042e+02 -1.0339115571131134e+05 +1.1855410244728898e+05 +5.5348816034571707e+08 
-2.2000000000000006e+00 -1.0351816601093089e+00 +2.2940422276042978e+00 +2.4488375783094995e+01 +1.1160123752754026e+02 -1.0352812826800422e+05 +1.3102089061133943e+05 +5.5442179311038351e+08 
-2.3000000000000007e+00 -1.0351805996963583e+00 +2.2944617246043078e+00 +2.4489386613695878e+01 +1.0715479885793241e+02 -1.0374496819466595e+05 +1.4309500042086767e+05 +5.5571724622462440e+08 
-2.4000000000000008e+00 -1.0351795810980489e+00 +2.2948939014200551e+00 +2.4494204479764413e+01 +1.0252443662511858e+02 -1.0404027415407856e+05 +1.5487646177688375e+05 +5.5736503481540358e+08 
-2.5000000000000009e+00 -1.0351786005782531e+00 +2.2953397964023954e+00 +2.4502829045455261e+01 +9.7696859381496111e+01 -1.0441264478505726e+05 +1.6646530891629457e+05 +5.5935567373212934e+08 
-2.6000000000000010e+00 -1.0351776544010940e+00 +2.2958004478998348e+00 +2.4515259991621381e+01 +9.2658775223626733e+01 -1.0486067896822645e+05 +1.7796158238447394e+05 +5.6167967888769293e+08 
-2.7000000000000011e+00 -1.0351767388308784e+00 +2.2962768942601652e+00 +2.4531497008166365e+01 +8.7396891667824278e+01 -1.0538297570131779e+05 +1.8946533017291725e+05 +5.6432756674173522e+08 
-2.8000000000000012e+00 -1.0351758501322528e+00 +2.2967701738358137e+00 +2.4551539812524620e+01 +8.1897915363791782e+01 -1.0597813445804200e+05 +2.0107660997805989e+05 +5.6728985604939032e+08 
-2.9000000000000012e+00 -1.0351749845701244e+00 +2.2972813249875914e+00 +2.4575388141275138e+01 +7.6148551912841157e+01 -1.0664475505569624e+05 +2.1289549066685032e+05 +5.7055706732606125e+08 
-3.0000000000000013e+00 -1.0351741384097350e+00 +2.2978113860903862e+00 +2.4603041758500936e+01 +7.0135505575102712e+01 -1.0738143782199486e+05 +2.2502205455325815e+05 +5.7411972368266094e+08 
-3.1000000000000014e+00 -1.0351733079167029e+00 +2.2983613955317286e+00 +2.4634500461783272e+01 +6.3845479238653390e+01 -1.0818678373335369e+05 +2.3755639799337092e+05 +5.7796835157212627e+08 
-3.2000000000000015e+00 -1.0351724893570249e+00 +2.2989323917168663e+00 +2.4669764082124058e+01 +5.7265174147018634e+01 -1.0905939442295025e+05 +2.5059863352510377e+05 +5.8209348087299168e+08 
-3.3000000000000016e+00 -1.0351716789971133e+00 +2.2995254130790981e+00 +2.4708832489102278e+01 +5.0381289510912190e+01 -1.0999787230077550e+05 +2.6424889259979088e+05 +5.8648564554256284e+08 
-3.4000000000000017e+00 -1.0351708731038221e+00 +2.3001414980739439e+00 +2.4751705594020347e+01 +4.3180522573566755e+01 -1.1100082062934505e+05 +2.7860732569828577e+05 +5.9113538404140806e+08 
-3.5000000000000018e+00 -1.0351700679445446e+00 +2.3007816851956360e+00 +2.4798383362985724e+01 +3.5649567942156523e+01 -1.1206684380461785e+05 +2.9377410661197297e+05 +5.9603324075933123e+08 
-3.6000000000000019e+00 -1.0351692605164295e+00 +2.3014466250123640e+00 +2.4848838293953026e+01 +2.7779699320510939e+01 -1.1319431926822414e+05 +3.0983416427726723e+05 +6.0116948576165783e+08 
-3.7000000000000020e+00 -1.0351684505911929e+00 +2.3021354524228790e+00 +2.4902929255158053e+01 +1.9581411632703379e+01 -1.1438050748968488e+05 +3.2680502094977867e+05 +6.0653194463590157e+08 
-3.8000000000000020e+00 -1.0351676386002353e+00 +2.3028469329190751e+00 +2.4960485967472952e+01 +1.1070185704338606e+01 -1.1562234578018793e+05 +3.4468603723172226e+05 +6.1210754205336440e+08 
-3.9000000000000021e+00 -1.0351668249751820e+00 +2.3035798319704366e+00 +2.5021338194784185e+01 +2.2615031291057774e+00 -1.1691677251414706e+05 +3.6347656858770899e+05 +6.1788320851485813e+08 
-4.0000000000000018e+00 -1.0351660101476965e+00 +2.3043329150289917e+00 +2.5085315723210623e+01 -6.8291538454324705e+00 -1.1826072675847147e+05 +3.8317596568567434e+05 +6.2384587866369271e+08 
-4.1000000000000014e+00 -1.0351651945496461e+00 +2.3051049475191774e+00 +2.5152248383543192e+01 -1.6186302002965075e+01 -1.1965114872277116e+05 +4.0378357238240924e+05 +6.2998249349631083e+08 
-4.2000000000000011e+00 -1.0351643786130063e+00 +2.3058946948455605e+00 +2.5221966040200403e+01 -2.5794457374367660e+01 -1.2108497956368854e+05 +4.2529872683032160e+05 +6.3627999947147584e+08 
-4.3000000000000007e+00 -1.0351635627698992e+00 +2.3067009223903017e+00 +2.5294298600008190e+01 -3.5638135130397131e+01 -1.2255916159296036e+05 +4.4772076063694345e+05 +6.4272534962025619e+08 
-4.4000000000000004e+00 -1.0351627474525926e+00 +2.3075223955083115e+00 +2.5369076011652698e+01 -4.5701849419512612e+01 -1.2407063827094785e+05 +4.7104899773787893e+05 +6.4930550352502608e+08 
-4.5000000000000000e+00 -1.0351619330934880e+00 +2.3083578795306066e+00 +2.5446128267915114e+01 -5.5970113447934814e+01 -1.2561635428632930e+05 +4.9528275466844329e+05 +6.5600742780597627e+08 
-4.5999999999999996e+00 -1.0351611201251285e+00 +2.3092061397677459e+00 +2.5525285407171939e+01 -6.6427439562413412e+01 -1.2719325559993126e+05 +5.2042134090046893e+05 +6.6281809637420607e+08 
-4.6999999999999993e+00 -1.0351603089802304e+00 +2.3100659415043965e+00 +2.5606377520416704e+01 -7.7058339067766283e+01 -1.2879828960669559e+05 +5.4646405756872008e+05 +6.6972449128280473e+08 
-4.7999999999999989e+00 -1.0351595000915690e+00 +2.3109360499951515e+00 +2.5689234737463604e+01 -8.7847322075252777e+01 -1.3042840488823435e+05 +5.7341019637861894e+05 +6.7671360159373319e+08 
-4.8999999999999986e+00 -1.0351586938921500e+00 +2.3118152304722281e+00 +2.5773687251945770e+01 -9.8778897719566970e+01 -1.3208055172436047e+05 +6.0125904072909616e+05 +6.8377242591532075e+08 
-4.9999999999999982e+00 -1.0351578908150885e+00 +2.3127022481399884e+00 +2.5859565307138229e+01 -1.0983757396706405e+02 -1.3375168183688342e+05 +6.3000986437387567e+05 +6.9088797121946573e+08 
-5.0999999999999979e+00 -1.0351570912936483e+00 +2.3135958681794011e+00 +2.5946699202262000e+01 -1.2100785773082896e+02 -1.3543874853395126e+05 +6.5966193193565391e+05 +6.9804725360336506e+08 
-5.1999999999999975e+00 -1.0351562957612221e+00 +2.3144948557404343e+00 +2.6034919292872161e+01 -1.3227425462900058e+02 -1.3713870674273587e+05 +6.9021449730093149e+05 +7.0523729851321244e+08 
-5.2999999999999972e+00 -1.0351555046513778e+00 +2.3153979759452503e+00 +2.6124055997891208e+01 -1.4362126904038706e+02 -1.3884851316432343e+05 +7.2166680371774046e+05 +7.1244514154401159e+08 
-5.3999999999999968e+00 -1.0351547183977983e+00 +2.3163039938908061e+00 +2.6213939794642059e+01 -1.5503340418991186e+02 -1.4056512620731565e+05 +7.5401808420220553e+05 +7.1965782820513928e+08 
-5.4999999999999964e+00 -1.0351539374343639e+00 +2.3172116746369849e+00 +2.6304401229492385e+01 -1.6649516171327190e+02 -1.4228550620763199e+05 +7.8726755681957758e+05 +7.2686241485592556e+08 
-5.5999999999999961e+00 -1.0351531619966603e+00 +2.3181196301273848e+00 +2.6395200892308182e+01 -1.7798871049537371e+02 -1.4400541577214716e+05 +8.2138739889813587e+05 +7.3404101413635945e+08 
-5.6999999999999957e+00 -1.0351523914705825e+00 +2.3190259328055136e+00 +2.6485821188825099e+01 -1.8948741814616631e+02 -1.4571581359964298e+05 +8.5623833030328027e+05 +7.4115699860451722e+08 
-5.7999999999999954e+00 -1.0351516250077808e+00 +2.3199285373426708e+00 +2.6575674066233123e+01 -2.0096252662019336e+02 -1.4740643199768991e+05 +8.9165130865252239e+05 +7.4816923657343948e+08 
-5.8999999999999950e+00 -1.0351508617589038e+00 +2.3208253986812570e+00 +2.6664171363858266e+01 -2.1238528708150494e+02 -1.4906700102089971e+05 +9.2745734292739758e+05 +7.5503658482969737e+08 
-5.9999999999999947e+00 -1.0351501008737134e+00 +2.3217144720447651e+00 +2.6750724831307668e+01 -2.2372696056807050e+02 -1.5068724880442143e+05 +9.6348750130672147e+05 +7.6171788986495900e+08 
-6.0999999999999943e+00 -1.0351493415009134e+00 +2.3225937129515311e+00 +2.6834746104878135e+01 -2.3495881845539793e+02 -1.5225690108092222e+05 +9.9957291393007908e+05 +7.6817198545712733e+08 
-6.1999999999999940e+00 -1.0351485827882247e+00 +2.3234610772239201e+00 +2.6915646719838424e+01 -2.4605214280245772e+02 -1.5376568141548318e+05 +1.0355447750097651e+06 +7.7435769376271522e+08 
-6.2999999999999936e+00 -1.0351478238822385e+00 +2.3243145210017282e+00 +2.6992838090580893e+01 -2.5697822680893688e+02 -1.5520331080065964e+05 +1.0712343455592159e+06 +7.8023382329045939e+08 
-6.3999999999999932e+00 -1.0351470639284279e+00 +2.3251520007582411e+00 +2.7065731514440241e+01 -2.6770837535665436e+02 -1.5655950772381673e+05 +1.1064729566285303e+06 +7.8575916917715621e+08 
-6.4999999999999929e+00 -1.0351463020711265e+00 +2.3259714733015624e+00 +2.7133738167380685e+01 -2.7821390511173325e+02 -1.5782398806076756e+05 +1.1410920099611247e+06 +7.9089251259092796e+08 
-6.5999999999999925e+00 -1.0351455374533958e+00 +2.3267708957991426e+00 +2.7196269089620934e+01 -2.8846614530083082e+02 -1.5898646479336594e+05 +1.1749229825685858e+06 +7.9559261933387470e+08 
-6.6999999999999922e+00 -1.0351447692171123e+00 +2.3275482257823752e+00 +2.7252735196703551e+01 -2.9843643794136841e+02 -1.6003664820773818e+05 +1.2077974282128729e+06 +7.9981824072561049e+08 
-6.7999999999999918e+00 -1.0351439965027844e+00 +2.3283014211616870e+00 +2.7302547256205120e+01 -3.0809613832374998e+02 -1.6096424542603703e+05 +1.2395469802200529e+06 +8.0352811127692914e+08 
-6.8999999999999915e+00 -1.0351432184495932e+00 +2.3290284402368853e+00 +2.7345115893905611e+01 -3.1741661539139250e+02 -1.6175896051600922e+05 +1.2700033537916932e+06 +8.0668094916535437e+08 
-6.9999999999999911e+00 -1.0351424341953810e+00 +2.3297272417095418e+00 +2.7379851593161074e+01 -3.2636925218456469e+02 -1.6241049446472435e+05 +1.2989983487039155e+06 +8.0923545604301500e+08 
-7.0999999999999908e+00 -1.0351416428765048e+00 +2.3303957846979770e+00 +2.7406164676516315e+01 -3.3492544632197013e+02 -1.6290854481115218e+05 +1.3263638521147603e+06 +8.1115031521260023e+08 
-7.1999999999999904e+00 -1.0351408436278420e+00 +2.3310320287445934e+00 +2.7423465307185054e+01 -3.4305661030194790e+02 -1.6324280565836505e+05 +1.3519318404510384e+06 +8.1238419161264765e+08 
-7.2999999999999901e+00 -1.0351400355827860e+00 +2.3316339338281318e+00 +2.7431163488501369e+01 -3.5073417192226037e+02 -1.6340296764838370e+05 +1.3755343819001045e+06 +8.1289573163399255e+08 
-7.3999999999999897e+00 -1.0351392178731733e+00 +2.3321994603848384e+00 +2.7428669056260297e+01 -3.5792957497159335e+02 -1.6337871780494141e+05 +1.3970036405369397e+06 +8.1264356231090593e+08 
-7.4999999999999893e+00 -1.0351383896291275e+00 +2.3327265693087744e+00 +2.7415391662805337e+01 -3.6461427801375845e+02 -1.6315973905628265e+05 +1.4161718698842078e+06 +8.1158628876245344e+08 
-7.5999999999999890e+00 -1.0351375505324378e+00 +2.3332137679818432e+00 +2.7390979868725736e+01 -3.7076424173304440e+02 -1.6273974147254106e+05 +1.4328933158129130e+06 +8.0969870579974830e+08 
-7.6999999999999886e+00 -1.0351367025102198e+00 +2.3336614065177317e+00 +2.7355996474836928e+01 -3.7637117012665948e+02 -1.6212825950404620e+05 +1.4471254997165855e+06 +8.0701868093442833e+08 
-7.7999999999999883e+00 -1.0351358480794364e+00 +2.3340702126509081e+00 +2.7311227121002332e+01 -3.8143008492406318e+02 -1.6133878150682565e+05 +1.4588565728702575e+06 +8.0359960792562544e+08 
-7.8999999999999879e+00 -1.0351349897576048e+00 +2.3344409136979434e+00 +2.7257457529035822e+01 -3.8593599488506544e+02 -1.6038479793851275e+05 +1.4680746252039638e+06 +7.9949489156266797e+08 
-7.9999999999999876e+00 -1.0351341300626478e+00 +2.3347742365763957e+00 +2.7195473477698688e+01 -3.8988389524438770e+02 -1.5927980092685862e+05 +1.4747676671198315e+06 +7.9475794691413403e+08 
-8.0999999999999872e+00 -1.0351332715128601e+00 +2.3350709077812937e+00 +2.7126060799309450e+01 -3.9326876694151974e+02 -1.5803728422532370e+05 +1.4789236249442394e+06 +7.8944219919658589e+08 
-8.1999999999999869e+00 -1.0351324166269493e+00 +2.3353316533703850e+00 +2.7050005383421460e+01 -3.9608557610934758e+02 -1.5667074329507333e+05 +1.4805303378983396e+06 +7.8360108422823882e+08 
-8.2999999999999865e+00 -1.0351315679241107e+00 +2.3355571989554655e+00 +2.6968093186885131e+01 -3.9832927374230769e+02 -1.5519367552228612e+05 +1.4795755561290320e+06 +7.7728804956316245e+08 
-8.3999999999999861e+00 -1.0351307279239845e+00 +2.3357482696677554e+00 +2.6881110227909922e+01 -3.9999479459944473e+02 -1.5361958011941216e+05 +1.4760469342466998e+06 +7.7055655408924234e+08 
-8.4999999999999858e+00 -1.0351298991467235e+00 +2.3359055901681316e+00 +2.6789842594397573e+01 -4.0107705743128662e+02 -1.5196195830455903e+05 +1.4699320326297253e+06 +7.6346006896708965e+08 
-8.5999999999999854e+00 -1.0351290841129672e+00 +2.3360298846047254e+00 +2.6695076440264096e+01 -4.0157096364408079e+02 -1.5023431324927823e+05 +1.4612183095315679e+06 +7.5605207746217179e+08 
-8.6999999999999851e+00 -1.0351282853439088e+00 +2.3361218766192398e+00 +2.6597597994262706e+01 -4.0147139742504953e+02 -1.4845015026544439e+05 +1.4498931218400369e+06 +7.4838607591015804e+08 
-8.7999999999999847e+00 -1.0351275053613518e+00 +2.3361822893159068e+00 +2.6498193566220806e+01 -4.0077322472715792e+02 -1.4662297694366073e+05 +1.4359437190187781e+06 +7.4051557446413934e+08 
-8.8999999999999844e+00 -1.0351267466876000e+00 +2.3362118452495095e+00 +2.6397649533204152e+01 -3.9947129287354767e+02 -1.4476630290608652e+05 +1.4193572408583756e+06 +7.3249409598832548e+08 
-8.9999999999999840e+00 -1.0351260118456511e+00 +2.3362112664121382e+00 +2.6296752363857735e+01 -3.9756043004452675e+02 -1.4289364029234962e+05 +1.4001207143034562e+06 +7.2437517846260631e+08 
-9.0999999999999837e+00 -1.0351253033590850e+00 +2.3361812742140771e+00 +2.6196288603883776e+01 -3.9503544467619844e+02 -1.4101850349799587e+05 +1.3782210500103345e+06 +7.1621237380812764e+08 
-9.1999999999999833e+00 -1.0351246237521294e+00 +2.3361225894710462e+00 +2.6097044884122788e+01 -3.9189112499274717e+02 -1.3915440934868454e+05 +1.3536450395223878e+06 +7.0805924880046666e+08 
-9.2999999999999829e+00 -1.0351239755497446e+00 +2.3360359323841315e+00 +2.5999807930947760e+01 -3.8812223833452720e+02 -1.3731487731687920e+05 +1.3263793513030419e+06 +6.9996938618226910e+08 
-9.3999999999999826e+00 -1.0351233612775368e+00 +2.3359220225240005e+00 +2.5905364555461556e+01 -3.8372353061539030e+02 -1.3551342933677821e+05 +1.2964105275049396e+06 +6.9199638386814725e+08 
-9.4999999999999822e+00 -1.0351227834620522e+00 +2.3357815788923464e+00 +2.5814501690697217e+01 -3.7868973123110561e+02 -1.3376359097928152e+05 +1.2637250123255912e+06 +6.8419386140860605e+08 
-9.5999999999999819e+00 -1.0351222442502674e+00 +2.3356149630572207e+00 +2.5727819835728592e+01 -3.7301674380724029e+02 -1.3207612220938876e+05 +1.2283244248371692e+06 +6.7660537436306226e+08 
-9.6999999999999815e+00 -1.0351217442717218e+00 +2.3354213844446541e+00 +2.5645211836458451e+01 -3.6670332675232089e+02 -1.3045061703203697e+05 +1.1902326556453069e+06 +6.6923304074482310e+08 
-9.7999999999999812e+00 -1.0351212837630206e+00 +2.3351998347434506e+00 +2.5566399218422159e+01 -3.5974879686290478e+02 -1.2888382136388269e+05 +1.1494700336608144e+06 +6.6206839245998132e+08 
-9.8999999999999808e+00 -1.0351208629597619e+00 +2.3349493058537467e+00 +2.5491103422870836e+01 -3.5215247429022418e+02 -1.2737247957898324e+05 +1.1060568776206018e+06 +6.5510295512789083e+08 
-9.9999999999999805e+00 -1.0351204820967368e+00 +2.3346687898670209e+00 +2.5419045839826058e+01 -3.4391368344588034e+02 -1.2591333508106612e+05 +1.0600135220451034e+06 +6.4832824902794206e+08 
-1.0099999999999980e+01 -1.0351201414080031e+00 +2.3343572790695752e+00 +2.5349947819180795e+01 -3.3503175305718042e+02 -1.2450313052209087e+05 +1.0113603172777663e+06 +6.4173579014100397e+08 
