# multipoles
# s[mm] polynom_b[n=0][T/m^n] polynom_b[n=1][T/m^n] polynom_b[n=2][T/m^n] polynom_b[n=3][T/m^n] polynom_b[n=4][T/m^n] polynom_b[n=5][T/m^n] polynom_b[n=6][T/m^n] 
+0.0000000000000000e+00 -1.0319089470173353e+00 +2.2816201923338228e+00 +2.0986001158089529e+01 +2.2786135275789260e+02 -3.9612925015443871e+04 -9.0493054662667064e+05 +2.6115031433098668e+08 
+1.0000000000000001e-01 -1.0319091622163927e+00 +2.2813476163867032e+00 +2.1003895654240473e+01 +2.3682451971447404e+02 -4.0678723079839001e+04 -9.4817607019966841e+05 +2.6766305961031845e+08 
+2.0000000000000001e-01 -1.0319093887814159e+00 +2.2810912729984230e+00 +2.1021855748534040e+01 +2.4546381855796088e+02 -4.1747415948594869e+04 -9.8998850379776640e+05 +2.7422860060815746e+08 
+2.9999999999999999e-01 -1.0319096292986969e+00 +2.2808516521685758e+00 +2.1039782784386322e+01 +2.5376942609237537e+02 -4.2816610304760761e+04 -1.0303121541769380e+06 +2.8083707252364385e+08 
+4.0000000000000002e-01 -1.0319098863546692e+00 +2.2806292439296940e+00 +2.1057578114586057e+01 +2.6173151781955261e+02 -4.3883912933027641e+04 -1.0690913201150685e+06 +2.8747861080086619e+08 
+5.0000000000000000e-01 -1.0319101625358460e+00 +2.2804245383546662e+00 +2.1075143095397131e+01 +2.6934026764377762e+02 -4.4946930604719942e+04 -1.1062702903775277e+06 +2.9414335057055616e+08 
+5.9999999999999998e-01 -1.0319104600407760e+00 +2.2802376584375383e+00 +2.1092353087153946e+01 +2.7659209616432918e+02 -4.6002697959460158e+04 -1.1418179212529422e+06 +3.0081788943533462e+08 
+6.9999999999999996e-01 -1.0319107795152340e+00 +2.2800672621393572e+00 +2.1108981639402096e+01 +2.8350822301634770e+02 -4.7045997891667110e+04 -1.1757996640067433e+06 +3.0747481761168665e+08 
+8.0000000000000004e-01 -1.0319111212167595e+00 +2.2799116419908882e+00 +2.1124777410587601e+01 +2.9011601935216493e+02 -4.8071059808564554e+04 -1.2083046895707073e+06 +3.1408325989034986e+08 
+9.0000000000000002e-01 -1.0319114854029658e+00 +2.2797690905636934e+00 +2.1139489067674784e+01 +2.9644285468449846e+02 -4.9072113264525120e+04 -1.2394221583724243e+06 +3.2061234169092906e+08 
+1.0000000000000000e+00 -1.0319118723315166e+00 +2.2796379004510583e+00 +2.1152865283705175e+01 +3.0251609744182485e+02 -5.0043387939904438e+04 -1.2692412235644243e+06 +3.2703118902817112e+08 
+1.1000000000000001e+00 -1.0319122822601121e+00 +2.2795163642729985e+00 +2.1164654739223387e+01 +3.0836311481937804e+02 -5.0979113674651700e+04 -1.2978510300774786e+06 +3.3330892869165516e+08 
+1.2000000000000000e+00 -1.0319127154464529e+00 +2.2794027746731000e+00 +2.1174606118658485e+01 +3.1401127286414214e+02 -5.1873520426498544e+04 -1.3253407150696989e+06 +3.3941468811995393e+08 
+1.3000000000000000e+00 -1.0319131721483068e+00 +2.2792954243131680e+00 +2.1182468120707810e+01 +3.1948793663194795e+02 -5.2720838474471406e+04 -1.3517994087939167e+06 +3.4531759638522047e+08 
+1.3999999999999999e+00 -1.0319136526233634e+00 +2.2791926058789285e+00 +2.1187989442071256e+01 +3.2482047001190682e+02 -5.3515298135894089e+04 -1.3773162335212757e+06 +3.5098678291761327e+08 
+1.5000000000000000e+00 -1.0319141571293595e+00 +2.2790926120695811e+00 +2.1190918792955287e+01 +3.3003623602356515e+02 -5.4251130067952217e+04 -1.4019803052121731e+06 +3.5639137895894128e+08 
+1.6000000000000001e+00 -1.0319146859239809e+00 +2.2789937355980170e+00 +2.1191004889018394e+01 +3.3516259681814279e+02 -5.4922565139924081e+04 -1.4258807334859041e+06 +3.6150051702641344e+08 
+1.7000000000000000e+00 -1.0319152392648243e+00 +2.2788942691949785e+00 +2.1187996446261767e+01 +3.4022691354480185e+02 -5.5523834342080510e+04 -1.4491066207900818e+06 +3.6628333049046361e+08 
+1.8000000000000000e+00 -1.0319158174095029e+00 +2.2787925055960083e+00 +2.1181642196638357e+01 +3.4525654671682878e+02 -5.6049169113206401e+04 -1.4717470644468223e+06 +3.7070895522260183e+08 
+1.8999999999999999e+00 -1.0319164206155236e+00 +2.2786867375489619e+00 +2.1171690874130235e+01 +3.5027885600994284e+02 -5.6492801074167430e+04 -1.4938911554737915e+06 +3.7474652831888616e+08 
+2.0000000000000000e+00 -1.0319170491403307e+00 +2.2785752578090182e+00 +2.1157891222181515e+01 +3.5532120038853236e+02 -5.6848962203519179e+04 -1.5156279792461453e+06 +3.7836518903000993e+08 
+2.1000000000000001e+00 -1.0319177032412372e+00 +2.2784563591320279e+00 +2.1139991986324606e+01 +3.6041093829391536e+02 -5.7111884698848538e+04 -1.5370466165168984e+06 +3.8153407810708851e+08 
+2.2000000000000002e+00 -1.0319183831754892e+00 +2.2783283342800580e+00 +2.1117741924475474e+01 +3.6557542749456337e+02 -5.7275801200675072e+04 -1.5582361425559702e+06 +3.8422233894165683e+08 
+2.2999999999999998e+00 -1.0319190892001693e+00 +2.2781894760116495e+00 +2.1090889794590645e+01 +3.7084202533314101e+02 -5.7334944563444835e+04 -1.5792856284421494e+06 +3.8639911649382490e+08 
+2.3999999999999999e+00 -1.0319198215722816e+00 +2.2780380770892452e+00 +2.1059184370084239e+01 +3.7623808855416860e+02 -5.7283548175229873e+04 -1.6002841401308903e+06 +3.8803355888299876e+08 
+2.5000000000000000e+00 -1.0319205805486291e+00 +2.2778724302658828e+00 +2.1022374423793536e+01 +3.8179097366995524e+02 -5.7115845660032508e+04 -1.6213207405535479e+06 +3.8909481598583645e+08 
+2.6000000000000001e+00 -1.0319213662026951e+00 +2.2776912092240771e+00 +2.0980356435981346e+01 +3.8752379165298692e+02 -5.6829093933328637e+04 -1.6424823650267632e+06 +3.8956637181952322e+08 
+2.7000000000000002e+00 -1.0319221777294985e+00 +2.2774944897841105e+00 +2.0933585711538925e+01 +3.9344523621376169e+02 -5.6432101994832658e+04 -1.6638601606963114e+06 +3.8948695249372858e+08 
+2.7999999999999998e+00 -1.0319230140684585e+00 +2.2772826685792116e+00 +2.0882649554177753e+01 +3.9956103794042701e+02 -5.5936437960424337e+04 -1.6855496038686065e+06 +3.8890860331291133e+08 
+2.8999999999999999e+00 -1.0319238741588532e+00 +2.2770561421369777e+00 +2.0828135242109770e+01 +4.0587693124228639e+02 -5.5353669393718141e+04 -1.7076461955262446e+06 +3.8788336675071782e+08 
+3.0000000000000000e+00 -1.0319247569398082e+00 +2.2768153068684218e+00 +2.0770630030850349e+01 +4.1239865471435769e+02 -5.4695363348880179e+04 -1.7302454634215431e+06 +3.8646328261525863e+08 
+3.1000000000000001e+00 -1.0319256613502208e+00 +2.2765605590590412e+00 +2.0710721138158242e+01 +4.1913195152979603e+02 -5.3973086064991832e+04 -1.7534429648190949e+06 +3.8470038654164630e+08 
+3.2000000000000002e+00 -1.0319265863288896e+00 +2.2762922948571909e+00 +2.0648995758519543e+01 +4.2608256984804666e+02 -5.3198403221709523e+04 -1.7773342890678898e+06 +3.8264671115736830e+08 
+3.2999999999999998e+00 -1.0319275308143472e+00 +2.2760109102658732e+00 +2.0586041044042776e+01 +4.3325626317651518e+02 -5.2382879570194331e+04 -1.8020150600508852e+06 +3.8035428430723727e+08 
+3.3999999999999999e+00 -1.0319284937449948e+00 +2.2757168011302693e+00 +2.0522444116773197e+01 +4.4065879081970309e+02 -5.1538079142203125e+04 -1.8275809390763100e+06 +3.7787512998198783e+08 
+3.5000000000000000e+00 -1.0319294740589562e+00 +2.2754103631302249e+00 +2.0458792049429956e+01 +4.4829591818458204e+02 -5.0675564875190677e+04 -1.8541276269103482e+06 +3.7526126651371354e+08 
+3.6000000000000001e+00 -1.0319304706941705e+00 +2.2750919917701622e+00 +2.0395671877687214e+01 +4.5617341721171084e+02 -4.9806898826599579e+04 -1.8817508666880617e+06 +3.7256470753758013e+08 
+3.7000000000000002e+00 -1.0319314825883836e+00 +2.2747620823694183e+00 +2.0333670595318289e+01 +4.6429706671700660e+02 -4.8943642066636763e+04 -1.9105464460892437e+06 +3.6983746144497758e+08 
+3.7999999999999998e+00 -1.0319325086790414e+00 +2.2744210300477277e+00 +2.0273375139366777e+01 +4.7267265293289626e+02 -4.8097354381171674e+04 -1.9406102008479100e+06 +3.6713152993104488e+08 
+3.8999999999999999e+00 -1.0319335479033760e+00 +2.2740692297221146e+00 +2.0215372402233104e+01 +4.8130596969158103e+02 -4.7279594484427253e+04 -1.9720380160719431e+06 +3.6449890895344377e+08 
+4.0000000000000000e+00 -1.0319345991983728e+00 +2.2737070760936882e+00 +2.0160249221573874e+01 +4.9020281890732872e+02 -4.6501919816320296e+04 -2.0049258293855542e+06 +3.6199158774640435e+08 
+4.0999999999999996e+00 -1.0319356615007313e+00 +2.2733349636363136e+00 +2.0108592379565792e+01 +4.9936901101460450e+02 -4.5775886507643459e+04 -2.0393696337437301e+06 +3.5966154859432435e+08 
+4.2000000000000002e+00 -1.0319367337468857e+00 +2.2729532865895132e+00 +2.0060988598495150e+01 +5.0881036526599217e+02 -4.5113049283467313e+04 -2.0754654794947659e+06 +3.5756076633973533e+08 
+4.2999999999999998e+00 -1.0319378148729972e+00 +2.2725624389473733e+00 +2.0018024542228495e+01 +5.1853271014798861e+02 -4.4524961473313306e+04 -2.1133094770380948e+06 +3.5574120838202149e+08 
+4.4000000000000004e+00 -1.0319389038149076e+00 +2.2721628144462356e+00 +1.9980286806555000e+01 +5.2854188385662837e+02 -4.4023174813282953e+04 -2.1529977999693141e+06 +3.5425483369769514e+08 
+4.5000000000000000e+00 -1.0319399995081724e+00 +2.2717548065541826e+00 +1.9948361922960025e+01 +5.3884373450085286e+02 -4.3619239514945584e+04 -2.1946266856519748e+06 +3.5315359320878983e+08 
+4.5999999999999996e+00 -1.0319411007341546e+00 +2.2713389252322980e+00 +1.9922665869672361e+01 +5.4943749605972471e+02 -4.3321540545043630e+04 -2.2382445848432612e+06 +3.5247560747281021e+08 
+4.7000000000000002e+00 -1.0319422059659911e+00 +2.2709163416973888e+00 +1.9902968334072668e+01 +5.6029295170748537e+02 -4.3126299702456774e+04 -2.2836999467897918e+06 +3.5220534478342170e+08 
+4.7999999999999998e+00 -1.0319433136704597e+00 +2.2704884408804840e+00 +1.9888884801163666e+01 +5.7137174543006051e+02 -4.3026792566218239e+04 -2.3307887045215718e+06 +3.5231414816384888e+08 
+4.9000000000000004e+00 -1.0319444223144936e+00 +2.2700566077751012e+00 +1.9880030762652606e+01 +5.8263551911968966e+02 -4.3016294671095005e+04 -2.3793067777996799e+06 +3.5277335987703043e+08 
+5.0000000000000000e+00 -1.0319455303653886e+00 +2.2696222274402427e+00 +1.9876021748489762e+01 +5.9404591248054442e+02 -4.3088082120256578e+04 -2.4290500723932819e+06 +3.5355432436919940e+08 
+5.0999999999999996e+00 -1.0319466362907359e+00 +2.2691866850068561e+00 +1.9876473314441906e+01 +6.0556456277078109e+02 -4.3235431330250802e+04 -2.4798144783700099e+06 +3.5462838699980378e+08 
+5.2000000000000002e+00 -1.0319477385584477e+00 +2.2687513656855822e+00 +1.9881001046556946e+01 +6.1715310452892493e+02 -4.3451619122839504e+04 -2.5313958683323022e+06 +3.5596689449698985e+08 
+5.2999999999999998e+00 -1.0319488356368260e+00 +2.2683176547735675e+00 +1.9889220570271174e+01 +6.2877316934875410e+02 -4.3729922884900530e+04 -2.5835900959939202e+06 +3.5754119567600936e+08 
+5.4000000000000004e+00 -1.0319499259945304e+00 +2.2678869376695858e+00 +1.9900747544728375e+01 +6.4038638535756763e+02 -4.4063620464123080e+04 -2.6361929928959743e+06 +3.5932264095394272e+08 
+5.5000000000000000e+00 -1.0319510081006067e+00 +2.2674605998718316e+00 +1.9915197667999163e+01 +6.5195437726171247e+02 -4.4445990254286036e+04 -2.6890003685606187e+06 +3.6128258271171564e+08 
+5.5999999999999996e+00 -1.0319520804245645e+00 +2.2670400269939774e+00 +1.9932186684197511e+01 +6.6343876581326720e+02 -4.4870311334941136e+04 -2.7418080072115948e+06 +3.6339237596776283e+08 
+5.7000000000000002e+00 -1.0319531414363052e+00 +2.2666266047678523e+00 +1.9951330375886162e+01 +6.7480116769034669e+02 -4.5329863311559588e+04 -2.7944116668896549e+06 +3.6562337757376462e+08 
+5.7999999999999998e+00 -1.0319541896062683e+00 +2.2662217190596774e+00 +1.9972244581855151e+01 +6.8600319497960675e+02 -4.5817926660824654e+04 -2.8466070763077987e+06 +3.6794694787412411e+08 
+5.9000000000000004e+00 -1.0319552234052971e+00 +2.2658267558647487e+00 +1.9994545180651823e+01 +6.9700645528117445e+02 -4.6327782403011079e+04 -2.8981899352696198e+06 +3.7033444910318798e+08 
+6.0000000000000000e+00 -1.0319562413047756e+00 +2.2654431013308156e+00 +2.0017848106819265e+01 +7.0777255097060743e+02 -4.6852712410255903e+04 -2.9489559101889106e+06 +3.7275724685076863e+08 
+6.0999999999999996e+00 -1.0319572417766401e+00 +2.2650721417544002e+00 +2.0041769350661749e+01 +7.1826307927425898e+02 -4.7385999398627835e+04 -2.9987006344322599e+06 +3.7518671000835574e+08 
+6.2000000000000002e+00 -1.0319582232933615e+00 +2.2647152635949639e+00 +2.0065924960164093e+01 +7.2843963179399361e+02 -4.7920926956843534e+04 -3.0472197052887781e+06 +3.7759421088518983e+08 
+6.2999999999999998e+00 -1.0319591843279445e+00 +2.2643738534815094e+00 +2.0089931035916880e+01 +7.3826379427930237e+02 -4.8450779443402273e+04 -3.0943086825629142e+06 +3.7995112469347972e+08 
+6.4000000000000004e+00 -1.0319601233540494e+00 +2.2640492982194700e+00 +2.0113403748145934e+01 +7.4769714636477977e+02 -4.8968842310932087e+04 -3.1397630868179994e+06 +3.8222883109690124e+08 
+6.5000000000000000e+00 -1.0319610388459544e+00 +2.2637429848065760e+00 +2.0135959334660580e+01 +7.5670126128762297e+02 -4.9468402048658892e+04 -3.1833783985071993e+06 +3.8439871383062756e+08 
+6.5999999999999996e+00 -1.0319619296946532e+00 +2.2634559761602020e+00 +2.0157306547893928e+01 +7.6524617574266153e+02 -4.9944339678561329e+04 -3.2249962543249554e+06 +3.8643882998234999e+08 
+6.7000000000000002e+00 -1.0319627961996274e+00 +2.2631879268538486e+00 +2.0177514936644513e+01 +7.7333710696430910e+02 -5.0397871033098709e+04 -3.2646438200368788e+06 +3.8835400348147494e+08 
+6.7999999999999998e+00 -1.0319636389558591e+00 +2.2629381098066443e+00 +2.0196743611945038e+01 +7.8098845114818573e+02 -5.0831814080829005e+04 -3.3023951480176602e+06 +3.9015588474499959e+08 
+6.9000000000000004e+00 -1.0319644585581891e+00 +2.2627057977844403e+00 +2.0215151667479578e+01 +7.8821460986786917e+02 -5.1248986353672670e+04 -3.3383243243780914e+06 +3.9185612161877108e+08 
+7.0000000000000000e+00 -1.0319652556011816e+00 +2.2624902634192798e+00 +2.0232898164440041e+01 +7.9502998971002830e+02 -5.1652204666351725e+04 -3.3725054680390824e+06 +3.9346635813495350e+08 
+7.0999999999999996e+00 -1.0319660306791700e+00 +2.2622907792024565e+00 +2.0250142134980994e+01 +8.0144900249449756e+02 -5.2044285174502991e+04 -3.4050127321293131e+06 +3.9499823476456875e+08 
+7.2000000000000002e+00 -1.0319667843862632e+00 +2.2621066174779569e+00 +2.0267042582827312e+01 +8.0748606550857335e+02 -5.2428043391931868e+04 -3.4359203054839079e+06 +3.9646338851300788e+08 
+7.2999999999999998e+00 -1.0319675173162819e+00 +2.2619370504358898e+00 +2.0283758480417145e+01 +8.1315560172822859e+02 -5.2806294139736448e+04 -3.4653024140023920e+06 +3.9787345268649936e+08 
+7.4000000000000004e+00 -1.0319682300627910e+00 +2.2617813501156898e+00 +2.0300448765533350e+01 +8.1847203975684261e+02 -5.3181851476237061e+04 -3.4932333204787788e+06 +3.9924005653843641e+08 
+7.5000000000000000e+00 -1.0319689232190883e+00 +2.2616387883927720e+00 +2.0317272346594482e+01 +8.2344981424499053e+02 -5.3557528804616006e+04 -3.5197873270892436e+06 +4.0057482579906428e+08 
+7.5999999999999996e+00 -1.0319695973781360e+00 +2.2615086369800044e+00 +2.0334388090964151e+01 +8.2810336588645168e+02 -5.3936138647545020e+04 -3.5450387755392529e+06 +4.0188938159370369e+08 
+7.7000000000000002e+00 -1.0319702531326398e+00 +2.2613901674203936e+00 +2.0351954836987382e+01 +8.3244714166957760e+02 -5.4320492876659468e+04 -3.5690620486379070e+06 +4.0319534153160477e+08 
+7.7999999999999998e+00 -1.0319708910749297e+00 +2.2612826510843456e+00 +2.0370131378431257e+01 +8.3649559497605617e+02 -5.4713402417034187e+04 -3.5919315709521812e+06 +4.0450431830056584e+08 
+7.9000000000000004e+00 -1.0319715117970596e+00 +2.2611853591667148e+00 +2.0389076476090107e+01 +8.4026318570468277e+02 -5.5117677473678144e+04 -3.6137218096833983e+06 +4.0582792075845885e+08 
+8.0000000000000000e+00 -1.0319721158907182e+00 +2.2610975626747081e+00 +2.0408948849610301e+01 +8.4376438067461402e+02 -5.5536127370131537e+04 -3.6345072771403515e+06 +4.0717775314513004e+08 
+8.0999999999999996e+00 -1.0319727039472497e+00 +2.2610185324380905e+00 +2.0429907177891280e+01 +8.4701365333575643e+02 -5.5971560563295447e+04 -3.6543625291340076e+06 +4.0856541517274344e+08 
+8.1999999999999993e+00 -1.0319732765576581e+00 +2.2609475390848597e+00 +2.0452110102603370e+01 +8.5002548452758708e+02 -5.6426784706145700e+04 -3.6733621695229746e+06 +4.1000250230785006e+08 
+8.3000000000000007e+00 -1.0319738343125000e+00 +2.2608838530552964e+00 +2.0475716210723899e+01 +8.5281436210151435e+02 -5.6904606314112811e+04 -3.6915808481740532e+06 +4.1150060418004346e+08 
+8.4000000000000004e+00 -1.0319743778020305e+00 +2.2608267445858634e+00 +2.0500884057633620e+01 +8.5539478141805580e+02 -5.7407831212062221e+04 -3.7090932639132431e+06 +4.1307130672711301e+08 
+8.5000000000000000e+00 -1.0319749076159894e+00 +2.2607754836984277e+00 +2.0527772136311892e+01 +8.5778124545297135e+02 -5.7939263932602138e+04 -3.7259741596909245e+06 +4.1472618973599857e+08 
+8.5999999999999996e+00 -1.0319754240121202e+00 +2.2607294921869752e+00 +2.0556479785784820e+01 +8.5998580831089612e+02 -5.8500567204454317e+04 -3.7422823659323188e+06 +4.1647211930125266e+08 
+8.6999999999999993e+00 -1.0319759261192598e+00 +2.2606888942959071e+00 +2.0586880623643101e+01 +8.6200905291116203e+02 -5.9089126378211164e+04 -3.7580141858484959e+06 +4.1829827667743629e+08 
+8.8000000000000007e+00 -1.0319764128311673e+00 +2.2606540131232831e+00 +2.0618793576235472e+01 +8.6384833154909381e+02 -5.9701312080452895e+04 -3.7731506459016167e+06 +4.2018968209461045e+08 
+8.9000000000000004e+00 -1.0319768830417977e+00 +2.2606251718671926e+00 +2.0652037590242450e+01 +8.6550099271563499e+02 -6.0333495460926919e+04 -3.7876727500216826e+06 +4.2213135901481545e+08 
+9.0000000000000000e+00 -1.0319773356455226e+00 +2.2606026938313928e+00 +2.0686431661916842e+01 +8.6696438046585297e+02 -6.0982048710809897e+04 -3.8015614737129686e+06 +4.2410833638009608e+08 
+9.0999999999999996e+00 -1.0319777695369845e+00 +2.2605869024384271e+00 +2.0721794815833249e+01 +8.6823583397612003e+02 -6.1643344662402094e+04 -3.8147977613771772e+06 +4.2610564672492158e+08 
+9.1999999999999993e+00 -1.0319781836111692e+00 +2.2605781212275389e+00 +2.0757946115535123e+01 +8.6931268754721964e+02 -6.2313756999148383e+04 -3.8273625261842427e+06 +4.2810832720730329e+08 
+9.3000000000000007e+00 -1.0319785767633898e+00 +2.2605766738632260e+00 +2.0794704662951666e+01 +8.7019227032917729e+02 -6.2989660249822286e+04 -3.8392366484094183e+06 +4.3010141960208136e+08 
+9.4000000000000004e+00 -1.0319789478893580e+00 +2.2605828841376372e+00 +2.0831889605211320e+01 +8.7087190617466285e+02 -6.3667429924491160e+04 -3.8504009744160213e+06 +4.3206997097808886e+08 
+9.5000000000000000e+00 -1.0319792958850860e+00 +2.2605970759756224e+00 +2.0869320122901946e+01 +8.7134891345628819e+02 -6.4343442291594329e+04 -3.8608363155220677e+06 +4.3399903264322281e+08 
+9.5999999999999996e+00 -1.0319796196469690e+00 +2.2606195734389174e+00 +2.0906815441161985e+01 +8.7162060489136934e+02 -6.5014074604523441e+04 -3.8705234468544885e+06 +4.3587366127954358e+08 
+9.6999999999999993e+00 -1.0319799180718567e+00 +2.2606507007352517e+00 +2.0944194837160879e+01 +8.7168428720511122e+02 -6.5675705240711322e+04 -3.8794431052251910e+06 +4.3767891960068232e+08 
+9.8000000000000007e+00 -1.0319801900568581e+00 +2.2606907822150637e+00 +2.0981277618468656e+01 +8.7153726121935074e+02 -6.6324713296803122e+04 -3.8875759896316663e+06 +4.3939987445530295e+08 
+9.9000000000000004e+00 -1.0319804344995887e+00 +2.2607401423818647e+00 +2.1017883149348474e+01 +8.7117682144690059e+02 -6.6957479102046462e+04 -3.8949027587057129e+06 +4.4102159931443501e+08 
+1.0000000000000000e+01 -1.0319806502980251e+00 +2.2607991058976364e+00 +2.1053830838246174e+01 +8.7060025593056503e+02 -6.7570383976135927e+04 -3.9014040296985144e+06 +4.4252917311776817e+08 
+1.0100000000000000e+01 -1.0319808363505725e+00 +2.2608679975852430e+00 +2.1088940141434655e+01 +8.6980484608211248e+02 -6.8159810313843453e+04 -3.9070603774118214e+06 +4.4390768072800291e+08 
