# multipoles
# s[mm] polynom_b[n=0][T/m^n] polynom_b[n=1][T/m^n] polynom_b[n=2][T/m^n] polynom_b[n=3][T/m^n] polynom_b[n=4][T/m^n] polynom_b[n=5][T/m^n] polynom_b[n=6][T/m^n] 
+0.0000000000000000e+00 -1.0333574496615989e+00 +2.2970115504106090e+00 +2.0185394667150440e+01 -5.8258956313707836e+02 -1.0707585523100617e+04 +5.0053088603766281e+06 +1.5251751601281464e+08 
+1.0000000000000001e-01 -1.0333592385291877e+00 +2.2975368657041355e+00 +2.0437081025512427e+01 -5.9608111623410343e+02 -1.5240767193868547e+04 +5.0743035673139160e+06 +1.7258652210311854e+08 
+2.0000000000000001e-01 -1.0333610312325614e+00 +2.2980859184571387e+00 +2.0682912374960033e+01 -6.1003652659137504e+02 -1.9672085661897014e+04 +5.1448378172386289e+06 +1.9215964077938724e+08 
+3.0000000000000004e-01 -1.0333628218676898e+00 +2.2986581714144161e+00 +2.0921676135451861e+01 -6.2444578873438456e+02 -2.3981517894185516e+04 +5.2168492665800089e+06 +2.1114987769108996e+08 
+4.0000000000000002e-01 -1.0333646045306148e+00 +2.2992530873244883e+00 +2.1152159720832056e+01 -6.3929889673267292e+02 -2.8149040525987377e+04 +5.2902755672818515e+06 +2.2947023622038597e+08 
+5.0000000000000000e-01 -1.0333663733173888e+00 +2.2998701289673429e+00 +2.1373150531176726e+01 -6.5458584497842844e+02 -3.2154629701714759e+04 +5.3650543712447435e+06 +2.4703371666045111e+08 
+5.9999999999999998e-01 -1.0333681231207774e+00 +2.3005085467609541e+00 +2.1583679005287959e+01 -6.7029182256429920e+02 -3.5982236054786023e+04 +5.4411114881564174e+06 +2.6377127651243886e+08 
+6.9999999999999996e-01 -1.0333698520422681e+00 +2.3011667170220615e+00 +2.1783752223876458e+01 -6.8638251088128391e+02 -3.9631802656201718e+04 +5.5183233782171505e+06 +2.7968609832887435e+08 
+7.9999999999999993e-01 -1.0333715589910120e+00 +2.3018427914000670e+00 +2.1973622543110242e+01 -7.0281864295522735e+02 -4.3107293838143247e+04 +5.5965536720237862e+06 +2.9479951710161638e+08 
+8.9999999999999991e-01 -1.0333732428761504e+00 +2.3025349215802202e+00 +2.2153542310937585e+01 -7.1956095264727878e+02 -4.6412673673653815e+04 +5.6756660040622763e+06 +3.0913286625635225e+08 
+9.9999999999999989e-01 -1.0333749026068142e+00 +2.3032412592993650e+00 +2.2323763867948394e+01 -7.3657017519870703e+02 -4.9551906016391215e+04 +5.7555240160983736e+06 +3.2270747792416692e+08 
+1.0999999999999999e+00 -1.0333765370921431e+00 +2.3039599563362430e+00 +2.2484539552572791e+01 -7.5380704705945027e+02 -5.2528954637815012e+04 +5.8359913564551426e+06 +3.3554468371874106e+08 
+1.2000000000000000e+00 -1.0333781452412607e+00 +2.3046891645301617e+00 +2.2636121699364221e+01 -7.7123230648950152e+02 -5.5347783217858181e+04 +5.9169316836486049e+06 +3.4766581477052450e+08 
+1.3000000000000000e+00 -1.0333797259632258e+00 +2.3054270357708879e+00 +2.2778762635708677e+01 -7.8880669340097586e+02 -5.8012355321159943e+04 +5.9982086658116383e+06 +3.5909220174182874e+08 
+1.4000000000000001e+00 -1.0333812781671636e+00 +2.3061717220116189e+00 +2.2912714699101059e+01 -8.0649094979537040e+02 -6.0526634750445271e+04 +6.0796859833843615e+06 +3.6984517659276336e+08 
+1.5000000000000002e+00 -1.0333828007620516e+00 +2.3069213752705524e+00 +2.3038230212790321e+01 -8.2424581992137780e+02 -6.2894585111823319e+04 +6.1612273303084429e+06 +3.7994607060809320e+08 
+1.6000000000000003e+00 -1.0333842926569228e+00 +2.3076741476361851e+00 +2.3155561514083935e+01 -8.4203205051144766e+02 -6.5120170393814653e+04 +6.2426964156089080e+06 +3.8941621728151959e+08 
+1.7000000000000004e+00 -1.0333857527607220e+00 +2.3084281912691127e+00 +2.3264960936450024e+01 -8.5981039093912159e+02 -6.7207354644463325e+04 +6.3239569645699225e+06 +3.9827695084699619e+08 
+1.8000000000000005e+00 -1.0333871799823735e+00 +2.3091816584056248e+00 +2.3366680821632254e+01 -8.7754159338957413e+02 -6.9160102243540998e+04 +6.4048727198751206e+06 +4.0654960770609099e+08 
+1.9000000000000006e+00 -1.0333885732307182e+00 +2.3099327013650157e+00 +2.3460973513079317e+01 -8.9518641321040150e+02 -7.0982377801774841e+04 +6.4853074440194713e+06 +4.1425552603112674e+08 
+2.0000000000000004e+00 -1.0333899314145898e+00 +2.3106794725509174e+00 +2.3548091367082417e+01 -9.1270560900166856e+02 -7.2678146404608997e+04 +6.5651249199339272e+06 +4.2141604703350204e+08 
+2.1000000000000005e+00 -1.0333912534426932e+00 +2.3114201244547705e+00 +2.3628286740166885e+01 -9.3005994282636300e+02 -7.4251373402843121e+04 +6.6441889524862468e+06 +4.2805251406461453e+08 
+2.2000000000000006e+00 -1.0333925382237437e+00 +2.3121528096633690e+00 +2.3701812008558335e+01 -9.4721018053084640e+02 -7.5706024818687220e+04 +6.7223633705988266e+06 +4.3418627466842520e+08 
+2.3000000000000007e+00 -1.0333937846663042e+00 +2.3128756808614863e+00 +2.3768919548860545e+01 -9.6411709190576278e+02 -7.7046066997498740e+04 +6.7995120283983685e+06 +4.3983867899180418e+08 
+2.4000000000000008e+00 -1.0333949916789200e+00 +2.3135868908336970e+00 +2.3829861757722011e+01 -9.8074145082346411e+02 -7.8275467023673598e+04 +6.8754988062024964e+06 +4.4503108189872044e+08 
+2.5000000000000009e+00 -1.0333961581700144e+00 +2.3142845924659627e+00 +2.3884891040828823e+01 -9.9704403537448036e+02 -7.9398192536502102e+04 +6.9501876112843277e+06 +4.4978484215056860e+08 
+2.6000000000000010e+00 -1.0333972833713045e+00 +2.3149673135293245e+00 +2.3934248934958497e+01 -1.0129932423606531e+03 -8.0418064028081513e+04 +7.0234684397054426e+06 +4.5411963786119270e+08 
+2.7000000000000011e+00 -1.0333983677359651e+00 +2.3156351064507965e+00 +2.3978111536363940e+01 -1.0285884621747109e+03 -8.1337866489562730e+04 +7.0953434417725671e+06 +4.5804654741293156e+08 
+2.8000000000000012e+00 -1.0333994120058410e+00 +2.3162884120532952e+00 +2.4016633235112149e+01 -1.0438369847814083e+03 -8.2160017594515521e+04 +7.1658448028282244e+06 +4.6157403774287719e+08 
+2.9000000000000012e+00 -1.0334004169228403e+00 +2.3169276712129592e+00 +2.4049968434655643e+01 -1.0587461023633884e+03 -8.2886935398724221e+04 +7.2350047239988893e+06 +4.6471057807272047e+08 
+3.0000000000000013e+00 -1.0334013832289002e+00 +2.3175533248558069e+00 +2.4078271546756934e+01 -1.0733231092287106e+03 -8.3521038241255315e+04 +7.3028554217146672e+06 +4.6746463943861324e+08 
+3.1000000000000014e+00 -1.0334023116660009e+00 +2.3181658139626227e+00 +2.4101696992686882e+01 -1.0875753019803810e+03 -8.4064744761716429e+04 +7.3694291289104866e+06 +4.6984469476279902e+08 
+3.2000000000000015e+00 -1.0334032029761679e+00 +2.3187655795616031e+00 +2.4120399204915845e+01 -1.1015099792880312e+03 -8.4520473943015124e+04 +7.4347580937783569e+06 +4.7185921908567113e+08 
+3.3000000000000016e+00 -1.0334040579014676e+00 +2.3193530627274628e+00 +2.4134532623685953e+01 -1.1151344419042628e+03 -8.4890645027967345e+04 +7.4988745801175041e+06 +4.7351668912326264e+08 
+3.4000000000000017e+00 -1.0334048771840512e+00 +2.3199287045814438e+00 +2.4144251705103958e+01 -1.1284559926515465e+03 -8.5177677691623685e+04 +7.5618108673504665e+06 +4.7482558414050144e+08 
+3.5000000000000018e+00 -1.0334056615661296e+00 +2.3204929462889048e+00 +2.4149710915164253e+01 -1.1414819363716274e+03 -8.5383991909118413e+04 +7.6235992504024757e+06 +4.7579438527271366e+08 
+3.6000000000000019e+00 -1.0334064117899771e+00 +2.3210462290610829e+00 +2.4151064732378408e+01 -1.1542195799921512e+03 -8.5512008019930799e+04 +7.6842720402738675e+06 +4.7643157587367773e+08 
+3.7000000000000020e+00 -1.0334071285979576e+00 +2.3215889941446988e+00 +2.4148467648088928e+01 -1.1666762322300483e+03 -8.5564146715679701e+04 +7.7438615624574292e+06 +4.7674564140992826e+08 
+3.8000000000000020e+00 -1.0334078127325241e+00 +2.3221216828327180e+00 +2.4142074169039027e+01 -1.1788592039196576e+03 -8.5542829107065321e+04 +7.8024001590107596e+06 +4.7674506983147770e+08 
+3.9000000000000021e+00 -1.0334084649362090e+00 +2.3226447364505307e+00 +2.4132038813600907e+01 -1.1907758076109915e+03 -8.5450476635380270e+04 +7.8599201863591913e+06 +4.7643835110648382e+08 
+4.0000000000000018e+00 -1.0334090859516394e+00 +2.3231585963651367e+00 +2.4118516114700359e+01 -1.2024333578751946e+03 -8.5289511135843495e+04 +7.9164540173039641e+06 +4.7583397754650033e+08 
+4.1000000000000014e+00 -1.0334096765215532e+00 +2.3236637039730028e+00 +2.4101660620720882e+01 -1.2138391709211030e+03 -8.5062354846966860e+04 +7.9720340388365919e+06 +4.7494044383210748e+08 
+4.2000000000000011e+00 -1.0334102373887990e+00 +2.3241605007078241e+00 +2.4081626896491944e+01 -1.2250005648772153e+03 -8.4771430439760283e+04 +8.0266926540685743e+06 +4.7376624718284935e+08 
+4.3000000000000007e+00 -1.0334107692963266e+00 +2.3246494280357846e+00 +2.4058569520038073e+01 -1.2359248596257837e+03 -8.4419160938715591e+04 +8.0804622813127832e+06 +4.7231988693692362e+08 
+4.4000000000000004e+00 -1.0334112729872589e+00 +2.3251309274481802e+00 +2.4032643093459921e+01 -1.2466193766256295e+03 -8.4007969944003315e+04 +8.1333753532927986e+06 +4.7060986564987832e+08 
+4.5000000000000000e+00 -1.0334117492047681e+00 +2.3256054404710564e+00 +2.4004002225118963e+01 -1.2570914392387485e+03 -8.3540281287124424e+04 +8.1854643186951745e+06 +4.6864468740048599e+08 
+4.5999999999999996e+00 -1.0334121990210905e+00 +2.3260733189889158e+00 +2.3972796857907255e+01 -1.2673478907736821e+03 -8.3018537638660171e+04 +8.2367557641412746e+06 +4.6643330961909544e+08 
+4.6999999999999993e+00 -1.0334126248420754e+00 +2.3265345669073736e+00 +2.3939165664224138e+01 -1.2773929667489979e+03 -8.2445338532476497e+04 +8.2872473269566866e+06 +4.6398711398478037e+08 
+4.7999999999999989e+00 -1.0334130294128496e+00 +2.3269891031896583e+00 +2.3903246530040700e+01 -1.2872300663746264e+03 -8.1823349860177390e+04 +8.3369277878691629e+06 +4.6131828282590413e+08 
+4.8999999999999986e+00 -1.0334134154783892e+00 +2.3274368467143987e+00 +2.3865177320990203e+01 -1.2968625855728994e+03 -8.1155237017040723e+04 +8.3857859033584222e+06 +4.5843899581059802e+08 
+4.9999999999999982e+00 -1.0334137857834733e+00 +2.3278777162710438e+00 +2.3825095878447883e+01 -1.3062939168726291e+03 -8.0443664825110522e+04 +8.4338104054468460e+06 +4.5536142952173424e+08 
+5.0999999999999979e+00 -1.0334141430727277e+00 +2.3283116305598495e+00 +2.3783140022800787e+01 -1.3155274493048498e+03 -7.9691297569855815e+04 +8.4809900006354023e+06 +4.5209775755070555e+08 
+5.1999999999999975e+00 -1.0334144900905935e+00 +2.3287385081799785e+00 +2.3739447549394413e+01 -1.3245665680212037e+03 -7.8900798913421488e+04 +8.5273133674330153e+06 +4.4866015004804575e+08 
+5.2999999999999972e+00 -1.0334148295812642e+00 +2.3291582676270792e+00 +2.3694156220698783e+01 -1.3334146541341672e+03 -7.8074831735980406e+04 +8.5727691550077349e+06 +4.4506077293938088e+08 
+5.3999999999999968e+00 -1.0334151642887597e+00 +2.3295708272812159e+00 +2.3647403775807902e+01 -1.3420750842958364e+03 -7.7216058306156789e+04 +8.6173459803780187e+06 +4.4131178869316852e+08 
+5.4999999999999964e+00 -1.0334154969568938e+00 +2.3299761054057186e+00 +2.3599327924826387e+01 -1.3505512306014309e+03 -7.6327140156356472e+04 +8.6610324275211934e+06 +4.3742535567483121e+08 
+5.5999999999999961e+00 -1.0334158303292167e+00 +2.3303740201384477e+00 +2.3550066342749709e+01 -1.3588464602511551e+03 -7.5410737965547465e+04 +8.7038170449921321e+06 +4.3341362757906580e+08 
+5.6999999999999957e+00 -1.0334161671490549e+00 +2.3307644894811590e+00 +2.3499756672850317e+01 -1.3669641351972364e+03 -7.4469511596412704e+04 +8.7456883436149973e+06 +4.2928875351805794e+08 
+5.7999999999999954e+00 -1.0334165101595170e+00 +2.3311474313000184e+00 +2.3448536528253765e+01 -1.3749076120524821e+03 -7.3506120129791540e+04 +8.7866347954606675e+06 +4.2506287819703466e+08 
+5.8999999999999950e+00 -1.0334168621033726e+00 +2.3315227633168210e+00 +2.3396543475687025e+01 -1.3826802417992760e+03 -7.2523221530078852e+04 +8.8266448319183551e+06 +4.2074814023766941e+08 
+5.9999999999999947e+00 -1.0334172257232008e+00 +2.3318904030929422e+00 +2.3343915054204874e+01 -1.3902853692294439e+03 -7.1523472998714016e+04 +8.8657068400000595e+06 +4.1635667384812224e+08 
+6.0999999999999943e+00 -1.0334176037612925e+00 +2.3322502680420136e+00 +2.3290788762568500e+01 -1.3977263332575242e+03 -7.0509530720428462e+04 +8.9038091638553385e+06 +4.1190060756957650e+08 
+6.1999999999999940e+00 -1.0334179989596022e+00 +2.3326022754036284e+00 +2.3237302052605738e+01 -1.4050064660658281e+03 -6.9484049720515162e+04 +8.9409400993747078e+06 +4.0739206354283303e+08 
+6.2999999999999936e+00 -1.0334184140598324e+00 +2.3329463422484591e+00 +2.3183592340071801e+01 -1.4121290932060642e+03 -6.8449684065530528e+04 +8.9770878944990784e+06 +4.0284315843787950e+08 
+6.3999999999999932e+00 -1.0334188518033662e+00 +2.3332823854665121e+00 +2.3129796995154912e+01 -1.4190975331796333e+03 -6.7409086666108356e+04 +9.0122407463927902e+06 +3.9826600246563584e+08 
+6.4999999999999929e+00 -1.0334193149312543e+00 +2.3336103217550312e+00 +2.3076053340656880e+01 -1.4259150968754916e+03 -6.6364909200137161e+04 +9.0463868001225665e+06 +3.9367269910424095e+08 
+6.5999999999999925e+00 -1.0334198050814296e+00 +2.3339300169698447e+00 +2.3022464023452216e+01 -1.4325819020873989e+03 -6.5319155398700554e+04 +9.0795032544593047e+06 +3.8907227565301704e+08 
+6.6999999999999922e+00 -1.0334203194237397e+00 +2.3342411099971927e+00 +2.2968989425462915e+01 -1.4390864602601166e+03 -6.4271322674094925e+04 +9.1115315713717714e+06 +3.8446146902050149e+08 
+6.7999999999999918e+00 -1.0334208539903231e+00 +2.3345431769599099e+00 +2.2915552644965874e+01 -1.4454146624251362e+03 -6.3220278562221392e+04 +9.1424067271492332e+06 +3.7983380916275483e+08 
+6.8999999999999915e+00 -1.0334214048130712e+00 +2.3348357940411812e+00 +2.2862076753202793e+01 -1.4515524017587857e+03 -6.2164890176773617e+04 +9.1720637166457623e+06 +3.7518282419711441e+08 
+6.9999999999999911e+00 -1.0334219679236925e+00 +2.3351185374650614e+00 +2.2808484803429486e+01 -1.4574855727215061e+03 -6.1104024422966002e+04 +9.2004375458615310e+06 +3.7050204171463263e+08 
+7.0999999999999908e+00 -1.0334225393536702e+00 +2.3353909835051234e+00 +2.2754699826086185e+01 -1.4632000713353277e+03 -6.0036547908600536e+04 +9.2274632337904293e+06 +3.6578498836847758e+08 
+7.1999999999999904e+00 -1.0334231151342550e+00 +2.3356527084780305e+00 +2.2700644827441266e+01 -1.4686817950001403e+03 -5.8961326923268985e+04 +9.2530758115002904e+06 +3.6102518979130256e+08 
+7.2999999999999901e+00 -1.0334236912965087e+00 +2.3359032887579678e+00 +2.2646242795637114e+01 -1.4739166429300312e+03 -5.7877227557507576e+04 +9.2772103248842787e+06 +3.5621617117483968e+08 
+7.3999999999999897e+00 -1.0334242638712217e+00 +2.3361423007663933e+00 +2.2591416690427316e+01 -1.4788905158563559e+03 -5.6783115516871985e+04 +9.2998018330763225e+06 +3.5135145641642272e+08 
+7.4999999999999893e+00 -1.0334248288889969e+00 +2.3363693209868361e+00 +2.2536089453928266e+01 -1.4835893164742688e+03 -5.5677856330448834e+04 +9.3207854112578910e+06 +3.4642456912214452e+08 
+7.5999999999999890e+00 -1.0334253823801682e+00 +2.3365839259568388e+00 +2.2480183999791624e+01 -1.4879989492165810e+03 -5.4560315143215499e+04 +9.3400961495055631e+06 +3.4142903161752707e+08 
+7.6999999999999886e+00 -1.0334259203748477e+00 +2.3367856922798915e+00 +2.2423623220436884e+01 -1.4921053206098770e+03 -5.3429356869032723e+04 +9.3576691550470628e+06 +3.3635836572039407e+08 
+7.7999999999999883e+00 -1.0334264389028931e+00 +2.3369741966170379e+00 +2.2366329982098449e+01 -1.4958943390385848e+03 -5.2283846094218912e+04 +9.3734395510687716e+06 +3.3120609227866393e+08 
+7.8999999999999879e+00 -1.0334269339939215e+00 +2.3371490156982735e+00 +2.2308227126897975e+01 -1.4993519150783450e+03 -5.1122647123834795e+04 +9.3873424787931740e+06 +3.2596573141361552e+08 
+7.9999999999999876e+00 -1.0334274016772891e+00 +2.3373097263196350e+00 +2.2249237470715268e+01 -1.5024639614507307e+03 -4.9944623948274850e+04 +9.3993130975063723e+06 +3.2063080238028091e+08 
+8.0999999999999872e+00 -1.0334278379820889e+00 +2.3374559053526878e+00 +2.2189283802914897e+01 -1.5052163932637877e+03 -4.8748640240512002e+04 +9.4092865859794356e+06 +3.1519482356470919e+08 
+8.1999999999999869e+00 -1.0334282389371865e+00 +2.3375871297336723e+00 +2.2128288891038064e+01 -1.5075951277403042e+03 -4.7533559454498783e+04 +9.4171981411862839e+06 +3.0965131298114353e+08 
+8.2999999999999865e+00 -1.0334286005711322e+00 +2.3377029764794903e+00 +2.2066175468893260e+01 -1.5095860846831047e+03 -4.6298244595244971e+04 +9.4229829811485894e+06 +3.0399378717102981e+08 
+8.3999999999999861e+00 -1.0334289189122585e+00 +2.3378030226845019e+00 +2.2002866251082533e+01 -1.5111751863855686e+03 -4.5041558512918775e+04 +9.4265763445870858e+06 +2.9821576265176314e+08 
+8.4999999999999858e+00 -1.0334291899885701e+00 +2.3378868455467527e+00 +2.1938283919428184e+01 -1.5123483589652456e+03 -4.3762363730623692e+04 +9.4279134986817446e+06 +2.9231075524575013e+08 
+8.5999999999999854e+00 -1.0334294107634854e+00 +2.3379541906985279e+00 +2.1872398980116259e+01 -1.5130970776144641e+03 -4.2460484218457292e+04 +9.4269588247887362e+06 +2.8627727269794476e+08 
+8.6999999999999851e+00 -1.0334295820391157e+00 +2.3380054434010202e+00 +2.1805369723546640e+01 -1.5134318609169839e+03 -4.1139327292251844e+04 +9.4237696640300117e+06 +2.8013242288225031e+08 
+8.7999999999999847e+00 -1.0334297055991792e+00 +2.3380411429040442e+00 +2.1737400355629859e+01 -1.5133672957990750e+03 -3.9803142404479564e+04 +9.4184209765846003e+06 +2.7389773316939515e+08 
+8.8999999999999844e+00 -1.0334297832275166e+00 +2.3380618284665258e+00 +2.1668695095084885e+01 -1.5129179689422995e+03 -3.8456179229166519e+04 +9.4109877179687396e+06 +2.6759473213456273e+08 
+8.9999999999999840e+00 -1.0334298167080451e+00 +2.3380680393672941e+00 +2.1599458167078332e+01 -1.5120984675868788e+03 -3.7102687483882808e+04 +9.4015448474038001e+06 +2.6124494829313922e+08 
+9.0999999999999837e+00 -1.0334298078248443e+00 +2.3380603149083083e+00 +2.1529893813514075e+01 -1.5109233796275566e+03 -3.5746917124113475e+04 +9.3901673283769116e+06 +2.5486991102275589e+08 
+9.1999999999999833e+00 -1.0334297583621177e+00 +2.3380391944087391e+00 +2.1460206288265443e+01 -1.5094072934319800e+03 -3.4393118246081656e+04 +9.3769301275478117e+06 +2.4849115007630229e+08 
+9.2999999999999829e+00 -1.0334296701042227e+00 +2.3380052172139205e+00 +2.1390599860780600e+01 -1.5075647981123259e+03 -3.3045541154931205e+04 +9.3619082163568977e+06 +2.4213019590482932e+08 
+9.3999999999999826e+00 -1.0334295448356388e+00 +2.3379589226916422e+00 +2.1321278811725133e+01 -1.5054104834167415e+03 -3.1708436277548379e+04 +9.3451765703775901e+06 +2.3580857922794190e+08 
+9.4999999999999822e+00 -1.0334293843410058e+00 +2.3379008502300631e+00 +2.1252447437310867e+01 -1.5029589396649296e+03 -3.0386054234715019e+04 +9.3268101689259391e+06 +2.2954783134432590e+08 
+9.5999999999999819e+00 -1.0334291904051511e+00 +2.3378315392430586e+00 +2.1184310053710121e+01 -1.5002247579159441e+03 -2.9082645938010119e+04 +9.3068839960654844e+06 +2.2336948462881884e+08 
+9.6999999999999815e+00 -1.0334289648130357e+00 +2.3377515291695361e+00 +2.1117070988819826e+01 -1.4972225299275749e+03 -2.7802462412730369e+04 +9.2854730403013118e+06 +2.1729507162763312e+08 
+9.7999999999999812e+00 -1.0334287093498078e+00 +2.3376613594671407e+00 +2.1050934589634291e+01 -1.4939668480034602e+03 -2.6549754945048142e+04 +9.2626522937734351e+06 +2.1134612577619207e+08 
+9.8999999999999808e+00 -1.0334284258008071e+00 +2.3375615696270229e+00 +2.0986105221928891e+01 -1.4904723053987802e+03 -2.5328775067704428e+04 +9.2384967545348406e+06 +2.0554418130719000e+08 
+9.9999999999999805e+00 -1.0334281159515326e+00 +2.3374526991581339e+00 +2.0922787266490030e+01 -1.4867534958806032e+03 -2.4143774484290381e+04 +9.2130814240403175e+06 +1.9991077287178263e+08 
+1.0099999999999980e+01 -1.0334277815877158e+00 +2.3373352875997542e+00 +2.0861185128514144e+01 -1.4828250140842067e+03 -2.2999005253679108e+04 +9.1864813091878854e+06 +1.9446743643484023e+08 
