# field on trajectory
# s[mm] rx[mm] ry[mm] rz[mm] bx[T] by[T] bz[T]
0.0000000000000000e+00 +9.1159999999999997e+00 +0.0000000000000000e+00 +0.0000000000000000e+00 +1.1096516096705471e-02 -1.0333895888614968e+00 -5.9236161145805051e-02
1.0000000000000001e-01 +9.1159994836633746e+00 +0.0000000000000000e+00 +9.9999999998222636e-02 +1.1096538413988043e-02 -1.0333852090674855e+00 -5.9237522821981019e-02
2.0000000000000001e-01 +9.1159979346564093e+00 +0.0000000000000000e+00 +1.9999999998578116e-01 +1.1096553841156110e-02 -1.0333808630021051e+00 -5.9238857462579189e-02
3.0000000000000004e-01 +9.1159953529834485e+00 +0.0000000000000000e+00 +2.9999999995201165e-01 +1.1096561655550143e-02 -1.0333765532472163e+00 -5.9240164021888260e-02
4.0000000000000002e-01 +9.1159917386487983e+00 +0.0000000000000000e+00 +3.9999999988625023e-01 +1.1096561134510024e-02 -1.0333722823848206e+00 -5.9241441454198046e-02
5.0000000000000000e-01 +9.1159870916567272e+00 +0.0000000000000000e+00 +4.9999999977783327e-01 +1.1096551555374146e-02 -1.0333680529970510e+00 -5.9242688713801686e-02
5.9999999999999998e-01 +9.1159814120114611e+00 +0.0000000000000000e+00 +5.9999999961609707e-01 +1.1096532472996037e-02 -1.0333638677615240e+00 -5.9243904955855145e-02
6.9999999999999996e-01 +9.1159746997171833e+00 +0.0000000000000000e+00 +6.9999999939037827e-01 +1.1096504552296443e-02 -1.0333597297373358e+00 -5.9245090138948235e-02
7.9999999999999993e-01 +9.1159669547780311e+00 +0.0000000000000000e+00 +7.9999999909001351e-01 +1.1096468735710878e-02 -1.0333556420788219e+00 -5.9246244422526996e-02
8.9999999999999991e-01 +9.1159581771980882e+00 +0.0000000000000000e+00 +8.9999999870433967e-01 +1.1096425965671860e-02 -1.0333516079401011e+00 -5.9247367966034276e-02
9.9999999999999989e-01 +9.1159483669813852e+00 +0.0000000000000000e+00 +9.9999999822269359e-01 +1.1096377184608481e-02 -1.0333476304749833e+00 -5.9248460928908037e-02
1.0999999999999999e+00 +9.1159375241318994e+00 +0.0000000000000000e+00 +1.0999999976344124e+00 +1.1096323334946062e-02 -1.0333437128368854e+00 -5.9249523470579664e-02
1.2000000000000000e+00 +9.1159256486535476e+00 +0.0000000000000000e+00 +1.1999999969288331e+00 +1.1096265359105737e-02 -1.0333398581787419e+00 -5.9250555750472382e-02
1.3000000000000000e+00 +9.1159127405501810e+00 +0.0000000000000000e+00 +1.2999999960952930e+00 +1.1096204199504090e-02 -1.0333360696529168e+00 -5.9251557927999542e-02
1.4000000000000001e+00 +9.1158987998255867e+00 +0.0000000000000000e+00 +1.3999999951231297e+00 +1.1096140798552761e-02 -1.0333323504111158e+00 -5.9252530162563030e-02
1.5000000000000002e+00 +9.1158838264834827e+00 +0.0000000000000000e+00 +1.4999999940016804e+00 +1.1096076098658064e-02 -1.0333287036042997e+00 -5.9253472613551621e-02
1.6000000000000003e+00 +9.1158678205275159e+00 +0.0000000000000000e+00 +1.5999999927202830e+00 +1.1096011042220612e-02 -1.0333251323825958e+00 -5.9254385440339327e-02
1.7000000000000004e+00 +9.1158507819612549e+00 +0.0000000000000000e+00 +1.6999999912682751e+00 +1.1095946571634905e-02 -1.0333216398952094e+00 -5.9255268802283677e-02
1.8000000000000005e+00 +9.1158327107881920e+00 +0.0000000000000000e+00 +1.7999999896349943e+00 +1.1095883629288983e-02 -1.0333182292903367e+00 -5.9256122858724232e-02
1.9000000000000006e+00 +9.1158136070117379e+00 +0.0000000000000000e+00 +1.8999999878097786e+00 +1.1095823157564010e-02 -1.0333149037150768e+00 -5.9256947768980800e-02
2.0000000000000004e+00 +9.1157934706352162e+00 +0.0000000000000000e+00 +1.9999999857819661e+00 +1.1095766098833901e-02 -1.0333116663153443e+00 -5.9257743692351809e-02
2.1000000000000005e+00 +9.1157723016618650e+00 +0.0000000000000000e+00 +2.0999999835408945e+00 +1.1095713395464946e-02 -1.0333085202357806e+00 -5.9258510788112777e-02
2.2000000000000006e+00 +9.1157501000948287e+00 +0.0000000000000000e+00 +2.1999999810759023e+00 +1.1095665989815401e-02 -1.0333054686196665e+00 -5.9259249215514495e-02
2.3000000000000007e+00 +9.1157268659371606e+00 +0.0000000000000000e+00 +2.2999999783763276e+00 +1.1095624824235128e-02 -1.0333025146088344e+00 -5.9259959133781570e-02
2.4000000000000008e+00 +9.1157025991918132e+00 +0.0000000000000000e+00 +2.3999999754315087e+00 +1.1095590841065187e-02 -1.0332996613435810e+00 -5.9260640702110567e-02
2.5000000000000009e+00 +9.1156772998616411e+00 +0.0000000000000000e+00 +2.4999999722307837e+00 +1.1095564982637461e-02 -1.0332969119625779e+00 -5.9261294079668632e-02
2.6000000000000010e+00 +9.1156509679493958e+00 +0.0000000000000000e+00 +2.5999999687634916e+00 +1.1095547872274033e-02 -1.0332942697869909e+00 -5.9261919332820205e-02
2.7000000000000011e+00 +9.1156236034577187e+00 +0.0000000000000000e+00 +2.6999999650189701e+00 +1.1095538857296415e-02 -1.0332917388734910e+00 -5.9262516156831861e-02
2.8000000000000012e+00 +9.1155952063891412e+00 +0.0000000000000000e+00 +2.7999999609865585e+00 +1.1095536966047917e-02 -1.0332893234624718e+00 -5.9263084154223843e-02
2.9000000000000012e+00 +9.1155657767460792e+00 +0.0000000000000000e+00 +2.8999999566555945e+00 +1.1095541226899933e-02 -1.0332870277940056e+00 -5.9263622927550719e-02
3.0000000000000013e+00 +9.1155353145308311e+00 +0.0000000000000000e+00 +2.9999999520154175e+00 +1.1095550668254791e-02 -1.0332848561078942e+00 -5.9264132079405556e-02
3.1000000000000014e+00 +9.1155038197455678e+00 +0.0000000000000000e+00 +3.0999999470553656e+00 +1.1095564318548625e-02 -1.0332828126437197e+00 -5.9264611212424191e-02
3.2000000000000015e+00 +9.1154712923923356e+00 +0.0000000000000000e+00 +3.1999999417647778e+00 +1.1095581206254201e-02 -1.0332809016408948e+00 -5.9265059929289481e-02
3.3000000000000016e+00 +9.1154377324730476e+00 +0.0000000000000000e+00 +3.2999999361329926e+00 +1.1095600359883792e-02 -1.0332791273387110e+00 -5.9265477832735496e-02
3.4000000000000017e+00 +9.1154031399894802e+00 +0.0000000000000000e+00 +3.3999999301493484e+00 +1.1095620807992000e-02 -1.0332774939763905e+00 -5.9265864525551701e-02
3.5000000000000018e+00 +9.1153675149432694e+00 +0.0000000000000000e+00 +3.4999999238031845e+00 +1.1095641579178635e-02 -1.0332760057931361e+00 -5.9266219610587263e-02
3.6000000000000019e+00 +9.1153308573359038e+00 +0.0000000000000000e+00 +3.5999999170838390e+00 +1.1095661702091548e-02 -1.0332746670281805e+00 -5.9266542690755243e-02
3.7000000000000020e+00 +9.1152931671687263e+00 +0.0000000000000000e+00 +3.6999999099806509e+00 +1.1095680205429476e-02 -1.0332734819208356e+00 -5.9266833369036799e-02
3.8000000000000020e+00 +9.1152544444429253e+00 +0.0000000000000000e+00 +3.7999999024829587e+00 +1.1095696117944927e-02 -1.0332724547105447e+00 -5.9267091248485462e-02
3.9000000000000021e+00 +9.1152146891595311e+00 +0.0000000000000000e+00 +3.8999998945801013e+00 +1.1095708468446989e-02 -1.0332715896369304e+00 -5.9267315932231251e-02
4.0000000000000018e+00 +9.1151739013194106e+00 +0.0000000000000000e+00 +3.9999998862614174e+00 +1.1095716285804228e-02 -1.0332708909398463e+00 -5.9267507023485065e-02
4.1000000000000014e+00 +9.1151320809232672e+00 +0.0000000000000000e+00 +4.0999998775162450e+00 +1.1095718598947498e-02 -1.0332703628594249e+00 -5.9267664125542713e-02
4.2000000000000011e+00 +9.1150892279716320e+00 +0.0000000000000000e+00 +4.1999998683339230e+00 +1.1095714436872826e-02 -1.0332700096361291e+00 -5.9267786841789308e-02
4.3000000000000007e+00 +9.1150453424648621e+00 +0.0000000000000000e+00 +4.2999998587037895e+00 +1.1095702828644268e-02 -1.0332698355108039e+00 -5.9267874775703437e-02
4.4000000000000004e+00 +9.1150004244031368e+00 +0.0000000000000000e+00 +4.3999998486151837e+00 +1.1095682803396718e-02 -1.0332698447247204e+00 -5.9267927530861263e-02
4.5000000000000000e+00 +9.1149544737864510e+00 +0.0000000000000000e+00 +4.4999998380574429e+00 +1.1095653390338833e-02 -1.0332700415196323e+00 -5.9267944710940920e-02
4.5999999999999996e+00 +9.1149074906146126e+00 +0.0000000000000000e+00 +4.5999998270199054e+00 +1.1095613958935074e-02 -1.0332704281116154e+00 -5.9267926102198776e-02
4.6999999999999993e+00 +9.1148594748872398e+00 +0.0000000000000000e+00 +4.6999998154919105e+00 +1.1095565239393985e-02 -1.0332709986118491e+00 -5.9267872220858303e-02
4.7999999999999989e+00 +9.1148104266037695e+00 +0.0000000000000000e+00 +4.7999998034627946e+00 +1.1095508302022602e-02 -1.0332717451041995e+00 -5.9267783765631736e-02
4.8999999999999986e+00 +9.1147603457634609e+00 +0.0000000000000000e+00 +4.8999997909218971e+00 +1.1095444217023021e-02 -1.0332726596712518e+00 -5.9267661435236020e-02
4.9999999999999982e+00 +9.1147092323654064e+00 +0.0000000000000000e+00 +4.9999997778585543e+00 +1.1095374054485709e-02 -1.0332737343942606e+00 -5.9267505928391473e-02
5.0999999999999979e+00 +9.1146570864085383e+00 +0.0000000000000000e+00 +5.0999997642621047e+00 +1.1095298884382853e-02 -1.0332749613531034e+00 -5.9267317943820182e-02
5.1999999999999975e+00 +9.1146039078916363e+00 +0.0000000000000000e+00 +5.1999997501218864e+00 +1.1095219776561726e-02 -1.0332763326262318e+00 -5.9267098180244573e-02
5.2999999999999972e+00 +9.1145496968133362e+00 +0.0000000000000000e+00 +5.2999997354272361e+00 +1.1095137800737995e-02 -1.0332778402906240e+00 -5.9266847336385944e-02
5.3999999999999968e+00 +9.1144944531721386e+00 +0.0000000000000000e+00 +5.3999997201674912e+00 +1.1095054026489089e-02 -1.0332794764217370e+00 -5.9266566110962995e-02
5.4999999999999964e+00 +9.1144381769664147e+00 +0.0000000000000000e+00 +5.4999997043319890e+00 +1.1094969523247506e-02 -1.0332812330934569e+00 -5.9266255202690264e-02
5.5999999999999961e+00 +9.1143808681944165e+00 +0.0000000000000000e+00 +5.5999996879100671e+00 +1.1094885360294196e-02 -1.0332831023780544e+00 -5.9265915310276723e-02
5.6999999999999957e+00 +9.1143225268542825e+00 +0.0000000000000000e+00 +5.6999996708910619e+00 +1.1094802606751848e-02 -1.0332850763461330e+00 -5.9265547132424282e-02
5.7999999999999954e+00 +9.1142631529440461e+00 +0.0000000000000000e+00 +5.7999996532643099e+00 +1.1094722331578266e-02 -1.0332871470665828e+00 -5.9265151367826292e-02
5.8999999999999950e+00 +9.1142027464616451e+00 +0.0000000000000000e+00 +5.8999996350191486e+00 +1.1094645603559692e-02 -1.0332893066065341e+00 -5.9264728715166096e-02
5.9999999999999947e+00 +9.1141413074049282e+00 +0.0000000000000000e+00 +5.9999996161449145e+00 +1.1094573491304128e-02 -1.0332915470313069e+00 -5.9264279873115458e-02
6.0999999999999943e+00 +9.1140788357716644e+00 +0.0000000000000000e+00 +6.0999995966309433e+00 +1.1094507063234697e-02 -1.0332938604043642e+00 -5.9263805540333156e-02
6.1999999999999940e+00 +9.1140153315595498e+00 +0.0000000000000000e+00 +6.1999995764665723e+00 +1.1094447387582937e-02 -1.0332962387872644e+00 -5.9263306415463533e-02
6.2999999999999936e+00 +9.1139507947662146e+00 +0.0000000000000000e+00 +6.2999995556411372e+00 +1.1094395532382182e-02 -1.0332986742396129e+00 -5.9262783197134856e-02
6.3999999999999932e+00 +9.1138852253892324e+00 +0.0000000000000000e+00 +6.3999995341439746e+00 +1.1094352565460848e-02 -1.0333011588190149e+00 -5.9262236583958058e-02
6.4999999999999929e+00 +9.1138186234261287e+00 +0.0000000000000000e+00 +6.4999995119644201e+00 +1.1094319554435789e-02 -1.0333036845810259e+00 -5.9261667274524969e-02
6.5999999999999925e+00 +9.1137509888743864e+00 +0.0000000000000000e+00 +6.5999994890918101e+00 +1.1094297206873598e-02 -1.0333062453069397e+00 -5.9261075757394019e-02
6.6999999999999922e+00 +9.1136823217314529e+00 +0.0000000000000000e+00 +6.6999994655154804e+00 +1.1094284790911336e-02 -1.0333088416895664e+00 -5.9260461681058668e-02
6.7999999999999918e+00 +9.1136126219947418e+00 +0.0000000000000000e+00 +6.7999994412247666e+00 +1.1094281215016811e-02 -1.0333114761536546e+00 -5.9259824484030853e-02
6.8999999999999915e+00 +9.1135418896616276e+00 +0.0000000000000000e+00 +6.8999994162090044e+00 +1.1094285387876100e-02 -1.0333141511287558e+00 -5.9259163604866480e-02
6.9999999999999911e+00 +9.1134701247294441e+00 +0.0000000000000000e+00 +6.9999993904575293e+00 +1.1094296218403195e-02 -1.0333168690494290e+00 -5.9258478482166407e-02
7.0999999999999908e+00 +9.1133973271954840e+00 +0.0000000000000000e+00 +7.0999993639596770e+00 +1.1094312615749677e-02 -1.0333196323554430e+00 -5.9257768554577497e-02
7.1999999999999904e+00 +9.1133234970569923e+00 +0.0000000000000000e+00 +7.1999993367047823e+00 +1.1094333489314340e-02 -1.0333224434919812e+00 -5.9257033260793554e-02
7.2999999999999901e+00 +9.1132486343111676e+00 +0.0000000000000000e+00 +7.2999993086821808e+00 +1.1094357748752889e-02 -1.0333253049098448e+00 -5.9256272039556322e-02
7.3999999999999897e+00 +9.1131727389551589e+00 +0.0000000000000000e+00 +7.3999992798812073e+00 +1.1094384303987567e-02 -1.0333282190656565e+00 -5.9255484329656459e-02
7.4999999999999893e+00 +9.1130958109860618e+00 +0.0000000000000000e+00 +7.4999992502911965e+00 +1.1094412065216800e-02 -1.0333311884220655e+00 -5.9254669569934630e-02
7.5999999999999890e+00 +9.1130178504009152e+00 +0.0000000000000000e+00 +7.5999992199014832e+00 +1.1094439942924918e-02 -1.0333342154479492e+00 -5.9253827199282336e-02
7.6999999999999886e+00 +9.1129388571967045e+00 +0.0000000000000000e+00 +7.6999991887014021e+00 +1.1094466847891745e-02 -1.0333373026186179e+00 -5.9252956656643076e-02
7.7999999999999883e+00 +9.1128588313703514e+00 +0.0000000000000000e+00 +7.7999991566802880e+00 +1.1094491691202300e-02 -1.0333404524160188e+00 -5.9252057381013197e-02
7.8999999999999879e+00 +9.1127777729187169e+00 +0.0000000000000000e+00 +7.8999991238274756e+00 +1.1094513384256445e-02 -1.0333436673289382e+00 -5.9251128811442948e-02
7.9999999999999876e+00 +9.1126956818385985e+00 +0.0000000000000000e+00 +7.9999990901322988e+00 +1.1094530838778564e-02 -1.0333469498532086e+00 -5.9250170387037566e-02
8.0999999999999872e+00 +9.1126125581267221e+00 +0.0000000000000000e+00 +8.0999990555840906e+00 +1.1094542966827218e-02 -1.0333503024919093e+00 -5.9249181546958116e-02
8.1999999999999869e+00 +9.1125284017797483e+00 +0.0000000000000000e+00 +8.1999990201721857e+00 +1.1094548680804808e-02 -1.0333537277555698e+00 -5.9248161730422584e-02
8.2999999999999865e+00 +9.1124432127942612e+00 +0.0000000000000000e+00 +8.2999989838859189e+00 +1.1094546893467250e-02 -1.0333572281623780e+00 -5.9247110376706900e-02
8.3999999999999861e+00 +9.1123569911667719e+00 +0.0000000000000000e+00 +8.3999989467146232e+00 +1.1094536517933642e-02 -1.0333608062383781e+00 -5.9246026925145800e-02
8.4999999999999858e+00 +9.1122697368937136e+00 +0.0000000000000000e+00 +8.4999989086476315e+00 +1.1094516467695948e-02 -1.0333644645176796e+00 -5.9244910815134083e-02
8.5999999999999854e+00 +9.1121814499714411e+00 +0.0000000000000000e+00 +8.5999988696742768e+00 +1.1094485961325708e-02 -1.0333682043177577e+00 -5.9243761744741517e-02
8.6999999999999851e+00 +9.1120921303962259e+00 +0.0000000000000000e+00 +8.6999988297838922e+00 +1.1094445436375269e-02 -1.0333720220608951e+00 -5.9242580446531468e-02
8.7999999999999847e+00 +9.1120017781642630e+00 +0.0000000000000000e+00 +8.7999987889658104e+00 +1.1094395634847700e-02 -1.0333759129421769e+00 -5.9241367911596669e-02
8.8999999999999844e+00 +9.1119103932716747e+00 +0.0000000000000000e+00 +8.8999987472093647e+00 +1.1094337298409761e-02 -1.0333798721533798e+00 -5.9240125130909392e-02
8.9999999999999840e+00 +9.1118179757145139e+00 +0.0000000000000000e+00 +8.9999987045038861e+00 +1.1094271168380795e-02 -1.0333838948828311e+00 -5.9238853095317352e-02
9.0999999999999837e+00 +9.1117245254887713e+00 +0.0000000000000000e+00 +9.0999986608387093e+00 +1.1094197985721598e-02 -1.0333879763152785e+00 -5.9237552795539515e-02
9.1999999999999833e+00 +9.1116300425903773e+00 +0.0000000000000000e+00 +9.1999986162031639e+00 +1.1094118491023265e-02 -1.0333921116317528e+00 -5.9236225222161980e-02
9.2999999999999829e+00 +9.1115345270152126e+00 +0.0000000000000000e+00 +9.2999985705865829e+00 +1.1094033424496106e-02 -1.0333962960094341e+00 -5.9234871365633761e-02
9.3999999999999826e+00 +9.1114379787591044e+00 +0.0000000000000000e+00 +9.3999985239782990e+00 +1.1093943525958468e-02 -1.0334005246215137e+00 -5.9233492216262694e-02
9.4999999999999822e+00 +9.1113403978178376e+00 +0.0000000000000000e+00 +9.4999984763676437e+00 +1.1093849534825640e-02 -1.0334047926370649e+00 -5.9232088764211294e-02
9.5999999999999819e+00 +9.1112417841871594e+00 +0.0000000000000000e+00 +9.5999984277439463e+00 +1.1093752190098692e-02 -1.0334090952208999e+00 -5.9230661999492451e-02
9.6999999999999815e+00 +9.1111421378627799e+00 +0.0000000000000000e+00 +9.6999983780965398e+00 +1.1093652230353374e-02 -1.0334134275334435e+00 -5.9229212911965548e-02
9.7999999999999812e+00 +9.1110414588403810e+00 +0.0000000000000000e+00 +9.7999983274147553e+00 +1.1093550393728949e-02 -1.0334177847305899e+00 -5.9227742491331947e-02
9.8999999999999808e+00 +9.1109397471156193e+00 +0.0000000000000000e+00 +9.8999982756879223e+00 +1.1093447417917080e-02 -1.0334221619635724e+00 -5.9226251727131168e-02
9.9999999999999805e+00 +9.1108370026841321e+00 +0.0000000000000000e+00 +9.9999982229053739e+00 +1.1093344040150695e-02 -1.0334265543788275e+00 -5.9224741608736434e-02
1.0099999999999980e+01 +9.1107332255415425e+00 +0.0000000000000000e+00 +1.0099998169056438e+01 +1.1093240997192834e-02 -1.0334309571178586e+00 -5.9223213125350706e-02
1.0199999999999980e+01 +9.1106284156834612e+00 +0.0000000000000000e+00 +1.0199998114130446e+01 +1.1093139025325523e-02 -1.0334353653171011e+00 -5.9221667266002427e-02
1.0299999999999979e+01 +9.1105225731054951e+00 +0.0000000000000000e+00 +1.0299998058116730e+01 +1.1093038860338649e-02 -1.0334397741077879e+00 -5.9220105019541371e-02
1.0399999999999979e+01 +9.1104156978032496e+00 +0.0000000000000000e+00 +1.0399998001004617e+01 +1.1092941237518797e-02 -1.0334441786158137e+00 -5.9218527374634448e-02
1.0499999999999979e+01 +9.1103077897723352e+00 +0.0000000000000000e+00 +1.0499997942783439e+01 +1.1092846891638124e-02 -1.0334485739616004e+00 -5.9216935319761570e-02
1.0599999999999978e+01 +9.1101988490083716e+00 +0.0000000000000000e+00 +1.0599997883442526e+01 +1.1092756394325640e-02 -1.0334529558417191e+00 -5.9215329767423046e-02
1.0699999999999978e+01 +9.1100888755069924e+00 +0.0000000000000000e+00 +1.0699997822971209e+01 +1.1092669666497674e-02 -1.0334573222755312e+00 -5.9213711326795718e-02
1.0799999999999978e+01 +9.1099778692638456e+00 +0.0000000000000000e+00 +1.0799997761358815e+01 +1.1092586466815497e-02 -1.0334616718621221e+00 -5.9212080531182661e-02
1.0899999999999977e+01 +9.1098658302745967e+00 +0.0000000000000000e+00 +1.0899997698594676e+01 +1.1092506554417871e-02 -1.0334660031987668e+00 -5.9210437913820781e-02
1.0999999999999977e+01 +9.1097527585349294e+00 +0.0000000000000000e+00 +1.0999997634668119e+01 +1.1092429688933484e-02 -1.0334703148808895e+00 -5.9208784007879954e-02
1.1099999999999977e+01 +9.1096386540405465e+00 +0.0000000000000000e+00 +1.1099997569568476e+01 +1.1092355630493373e-02 -1.0334746055020261e+00 -5.9207119346461903e-02
1.1199999999999976e+01 +9.1095235167871724e+00 +0.0000000000000000e+00 +1.1199997503285074e+01 +1.1092284139743362e-02 -1.0334788736537808e+00 -5.9205444462599219e-02
1.1299999999999976e+01 +9.1094073467705545e+00 +0.0000000000000000e+00 +1.1299997435807242e+01 +1.1092214977856509e-02 -1.0334831179257911e+00 -5.9203759889254338e-02
1.1399999999999975e+01 +9.1092901439864651e+00 +0.0000000000000000e+00 +1.1399997367124310e+01 +1.1092147906545525e-02 -1.0334873369056838e+00 -5.9202066159318570e-02
1.1499999999999975e+01 +9.1091719084306995e+00 +0.0000000000000000e+00 +1.1499997297225608e+01 +1.1092082688075211e-02 -1.0334915291790403e+00 -5.9200363805611084e-02
1.1599999999999975e+01 +9.1090526400990814e+00 +0.0000000000000000e+00 +1.1599997226100463e+01 +1.1092019085274929e-02 -1.0334956933293542e+00 -5.9198653360877859e-02
1.1699999999999974e+01 +9.1089323389874632e+00 +0.0000000000000000e+00 +1.1699997153738204e+01 +1.1091956861550983e-02 -1.0334998279379919e+00 -5.9196935357790706e-02
1.1799999999999974e+01 +9.1088110050917255e+00 +0.0000000000000000e+00 +1.1799997080128161e+01 +1.1091895780899088e-02 -1.0335039315841528e+00 -5.9195210328946292e-02
