# multipoles
# s[mm] polynom_b[n=0][T/m^n] polynom_b[n=1][T/m^n] polynom_b[n=2][T/m^n] polynom_b[n=3][T/m^n] polynom_b[n=4][T/m^n] polynom_b[n=5][T/m^n] polynom_b[n=6][T/m^n] 
-0.0000000000000000e+00 -1.0336535855320543e+00 +2.2985246345515065e+00 +1.8938180307173088e+01 -1.8681953926147901e+02 +4.2511641878708499e+04 +2.6283140704298316e+05 -1.4406812387372085e+08 
-1.0005104645227200e-01 -1.0336520886890692e+00 +2.2984189372370802e+00 +1.8968766922547502e+01 -1.8272949574745314e+02 +4.2005614590473670e+04 +2.3894095422480631e+05 -1.4235987511211884e+08 
-2.0010209290454301e-01 -1.0336505480923157e+00 +2.2983138037586279e+00 +1.8998829438221172e+01 -1.7865835883641174e+02 +4.1509661525588861e+04 +2.1544120829455912e+05 -1.4072656397745904e+08 
-3.0015313935681498e-01 -1.0336489647756231e+00 +2.2982097121053626e+00 +1.9028354402753695e+01 -1.7462417376335813e+02 +4.1024624741302214e+04 +1.9244691513684217e+05 -1.3917362503441238e+08 
-4.0020418580908601e-01 -1.0336473397728276e+00 +2.2981071402625401e+00 +1.9057328366804658e+01 -1.7064498559416026e+02 +4.0551346204067901e+04 +1.7007282026045740e+05 -1.3770649226752052e+08 
-5.0025523226135804e-01 -1.0336456741179094e+00 +2.2980065662028517e+00 +1.9085737901117152e+01 -1.6673883896798100e+02 +4.0090667454683382e+04 +1.4843366726813302e+05 -1.3633059752151757e+08 
-6.0030627871362996e-01 -1.0336439688448302e+00 +2.2979084678883637e+00 +1.9113569578969852e+01 -1.6292377813086188e+02 +3.9643429939144065e+04 +1.2764419797692400e+05 -1.3505137208380476e+08 
-7.0035732516590099e-01 -1.0336422249876982e+00 +2.2978133232707507e+00 +1.9140809993021094e+01 -1.5921784696303442e+02 +3.9210474701543819e+04 +1.0781915258264785e+05 -1.3387424527212968e+08 
-8.0040837161817302e-01 -1.0336404435806736e+00 +2.2977216102785416e+00 +1.9167445744096973e+01 -1.5563908860097649e+02 +3.8792642593523946e+04 +8.9073267412405010e+04 -1.3280464543554445e+08 
-9.0045941807044405e-01 -1.0336386256579877e+00 +2.2976338068252020e+00 +1.9193463445945678e+01 -1.5220554565605758e+02 +3.8390774191363882e+04 +7.1521276156508829e+04 -1.3184799959367903e+08 
-1.0005104645227201e+00 -1.0336367722539881e+00 +2.2975503908031749e+00 +1.9218849728573215e+01 -1.4893526005746000e+02 +3.8005709741610503e+04 +5.5277908954467312e+04 -1.3100973322163317e+08 
-1.1005615109749900e+00 -1.0336348844031418e+00 +2.2974718400820144e+00 +1.9243591240598548e+01 -1.4584627297148182e+02 +3.7638289107718701e+04 +4.0457891829336404e+04 -1.3029526998089622e+08 
-1.2006125574272599e+00 -1.0336329631399632e+00 +2.2973986325041929e+00 +1.9267674636616036e+01 -1.4295662470529462e+02 +3.7289352028177440e+04 +2.7175946154851576e+04 -1.2971003301409563e+08 
-1.3006636038795301e+00 -1.0336310094990990e+00 +2.2973312458827819e+00 +1.9291086592272173e+01 -1.4028435461467319e+02 +3.6959737830712351e+04 +1.5546788061518937e+04 -1.2925944360233884e+08 
-1.4007146503318000e+00 -1.0336290245153306e+00 +2.2972701580067905e+00 +1.9313813800426942e+01 -1.3784750127321209e+02 +3.6650285503757805e+04 +5.6851293959595478e+03 -1.2894892151354283e+08 
-1.5007656967840699e+00 -1.0336270092235340e+00 +2.2972158466248263e+00 +1.9335842970608191e+01 -1.3566410197334741e+02 +3.6361833712087573e+04 -2.2943252455278098e+03 -1.2878388510652582e+08 
-1.6008167432363500e+00 -1.0336249646166842e+00 +2.2971685800981319e+00 +1.9357184187092777e+01 -1.3374643105350984e+02 +3.6094494401274525e+04 -8.3118638673021724e+03 -1.2876532189328890e+08 
-1.7008677896886200e+00 -1.0336228915088106e+00 +2.2971277860225028e+00 +1.9377940621622106e+01 -1.3208335600062475e+02 +3.5845475269245217e+04 -1.2430684389979242e+04 -1.2887646249296075e+08 
-1.8009188361408901e+00 -1.0336207906661738e+00 +2.2970926809815944e+00 +1.9398238583757358e+01 -1.3065780423087895e+02 +3.5611258971442527e+04 -1.4750445696221177e+04 -1.2909609094505386e+08 
-1.9009698825931600e+00 -1.0336186628550594e+00 +2.2970624815596956e+00 +1.9418204388410516e+01 -1.2945270309623302e+02 +3.5388328081607717e+04 -1.5370807262424541e+04 -1.2940299112555125e+08 
-2.0010209290454299e+00 -1.0336165088416329e+00 +2.2970364043529656e+00 +1.9437964336762974e+01 -1.2845098021998299e+02 +3.5173165469116400e+04 -1.4391427233089566e+04 -1.2977594859356706e+08 
-2.1010719754977001e+00 -1.0336143293919902e+00 +2.2970136659667779e+00 +1.9457644721529576e+01 -1.2763556341265560e+02 +3.4962254201403477e+04 -1.1911963032440721e+04 -1.3019375014721169e+08 
-2.2011230219499698e+00 -1.0336121252721098e+00 +2.2969934830234608e+00 +1.9477371823569577e+01 -1.2698938090337639e+02 +3.4752077612297042e+04 -8.0320700378019292e+03 -1.3063518416495027e+08 
-2.3011740684022501e+00 -1.0336098972478638e+00 +2.2969750721615152e+00 +1.9497271911346139e+01 -1.2649536130558155e+02 +3.4539119323781735e+04 -2.8514018920473327e+03 -1.3107904075443138e+08 
-2.4012251148545198e+00 -1.0336076460849932e+00 +2.2969576500446154e+00 +1.9517471237572490e+01 -1.2613643390571822e+02 +3.4319863305769315e+04 +3.5303911595990189e+03 -1.3150411203374225e+08 
-2.5012761613067900e+00 -1.0336053725490775e+00 +2.2969404333596697e+00 +1.9538096034816633e+01 -1.2589552857362034e+02 +3.4090793979385671e+04 +1.1013661598752742e+04 -1.3188919268718880e+08 
-2.6013272077590601e+00 -1.0336030774054721e+00 +2.2969226388271515e+00 +1.9559272510810509e+01 -1.2575557609016806e+02 +3.3848396299259766e+04 +1.9498766562124503e+04 -1.3221308035039425e+08 
-2.7013782542113298e+00 -1.0336007614193896e+00 +2.2969034831916786e+00 +1.9581126854122232e+01 -1.2569950785900039e+02 +3.3589155658454416e+04 +2.8886066017813966e+04 -1.3245457519939995e+08 
-2.8014293006636000e+00 -1.0335984253558108e+00 +2.2968821832431527e+00 +1.9603785225440504e+01 -1.2571025652796655e+02 +3.3309558059206713e+04 +3.9075926351913426e+04 -1.3259248078838114e+08 
-2.9014803471158799e+00 -1.0335960699794668e+00 +2.2968579558050197e+00 +1.9627373755217274e+01 -1.2577075564636915e+02 +3.3006090160098545e+04 +4.9968718294065293e+04 -1.3260560429170430e+08 
-3.0015313935681500e+00 -1.0335936960548768e+00 +2.2968300177477494e+00 +1.9652018547491458e+01 -1.2586394005772740e+02 +3.2675239212566237e+04 +6.1464819131333432e+04 -1.3247275623633175e+08 
-3.1015824400204202e+00 -1.0335913043462572e+00 +2.2967975859841601e+00 +1.9677845669254999e+01 -1.2597274576204596e+02 +3.2313493270826733e+04 +7.3464611834011055e+04 -1.3217275153257386e+08 
-3.2016334864726899e+00 -1.0335888956175385e+00 +2.2967598774831952e+00 +1.9704981151045324e+01 -1.2608011033015991e+02 +3.1917341179730945e+04 +8.5868487428286506e+04 -1.3168440942173979e+08 
-3.3016845329249600e+00 -1.0335864706323568e+00 +2.2967161092620478e+00 +1.9733550986592491e+01 -1.2616897265623905e+02 +3.1483272593993792e+04 +9.8576843427923348e+04 -1.3098655361554495e+08 
-3.4017355793772301e+00 -1.0335840301540196e+00 +2.2966654983957886e+00 +1.9763681130172188e+01 -1.2622227323881397e+02 +3.1007778030250927e+04 +1.1149008542704841e+05 -1.3005801255493604e+08 
-3.5017866258295101e+00 -1.0335815749455020e+00 +2.2966072620133837e+00 +1.9795497492014661e+01 -1.2622295373555670e+02 +3.0487349014216037e+04 +1.2450862369763288e+05 -1.2887762030918768e+08 
-3.6018376722817802e+00 -1.0335791050583691e+00 +2.2965407282102426e+00 +1.9829065421140690e+01 -1.2615410463459087e+02 +2.9920086947289987e+04 +1.3753039777454315e+05 -1.2743366000513738e+08 
-3.7018887187340499e+00 -1.0335766179515216e+00 +2.2964657171736511e+00 +1.9864230506276716e+01 -1.2600304015393411e+02 +2.9309924015582659e+04 +1.5047012308064316e+05 -1.2574880241131426e+08 
-3.8019397651863200e+00 -1.0335741104962377e+00 +2.2963821820123185e+00 +1.9900788706433310e+01 -1.2575891504937363e+02 +2.8662112464114092e+04 +1.6325255226791810e+05 -1.2385356107763071e+08 
-3.9019908116385902e+00 -1.0335715795638873e+00 +2.2962900757803348e+00 +1.9938535995265738e+01 -1.2541088229922336e+02 +2.7981904129635885e+04 +1.7580242792335685e+05 -1.2177844701978047e+08 
-4.0020418580908599e+00 -1.0335690220257661e+00 +2.2961893514680449e+00 +1.9977268342859354e+01 -1.2494809280085938e+02 +2.7274550779134061e+04 +1.8804448076251388e+05 -1.1955397027373323e+08 
-4.1020929045431300e+00 -1.0335664347532347e+00 +2.2960799619992467e+00 +2.0016781732122801e+01 -1.2435969528707427e+02 +2.6545303786597284e+04 +1.9990342917838891e+05 -1.1721063829974659e+08 
-4.2021439509954099e+00 -1.0335638146176385e+00 +2.2959618602246938e+00 +2.0056872147704997e+01 -1.2363483613416355e+02 +2.5799414332021148e+04 +2.1130397817478416e+05 -1.1477895686781485e+08 
-4.3021949974476801e+00 -1.0335611584904039e+00 +2.2958349989204345e+00 +2.0097335589906582e+01 -1.2276265930386452e+02 +2.5042133126943580e+04 +2.2217081908476472e+05 -1.1228942869639090e+08 
-4.4022460438999502e+00 -1.0335584632429506e+00 +2.2956993307788953e+00 +2.0137968063223923e+01 -1.2173230607193109e+02 +2.4278710618470552e+04 +2.3242862800435987e+05 -1.0977255435646570e+08 
-4.5022970903522204e+00 -1.0335557257467727e+00 +2.2955548084086765e+00 +2.0178565588513397e+01 -1.2053291501119008e+02 +2.3514396749651602e+04 +2.4200206576269184e+05 -1.0725883108122565e+08 
-4.6023481368044896e+00 -1.0335529428733881e+00 +2.2954013843259511e+00 +2.0218924192018903e+01 -1.1915362173731236e+02 +2.2754441158693113e+04 +2.5081577643607763e+05 -1.0477875365870330e+08 
-4.7023991832567598e+00 -1.0335501114944137e+00 +2.2952390109477934e+00 +2.0258839920956454e+01 -1.1758355871134434e+02 +2.2004092867086463e+04 +2.5879438631547324e+05 -1.0236281287734188e+08 
-4.8024502297090397e+00 -1.0335472284815106e+00 +2.2950676405973991e+00 +2.0298108832591566e+01 -1.1581185537083650e+02 +2.1268600476368414e+04 +2.6586250463200541e+05 -1.0004149640327488e+08 
-4.9025012761613098e+00 -1.0335442907064161e+00 +2.2948872254863519e+00 +2.0336526999620183e+01 -1.1382763761964515e+02 +2.0553212061868442e+04 +2.7194472069034830e+05 -9.7845288238331601e+07 
-5.0025523226135800e+00 -1.0335412950409892e+00 +2.2946977177204251e+00 +2.0373890517822314e+01 -1.1162002796381712e+02 +1.9863175006352671e+04 +2.7696560463821789e+05 -9.5804667837243974e+07 
-5.1026033690658501e+00 -1.0335382383571214e+00 +2.2944990692869616e+00 +2.0409995492229104e+01 -1.0917814517064858e+02 +1.9203736258344361e+04 +2.8084970560065610e+05 -9.3950111301504761e+07 
-5.2026544155181202e+00 -1.0335351175268344e+00 +2.2942912320575615e+00 +2.0444638051916257e+01 -1.0649110430495136e+02 +1.8580142037669673e+04 +2.8352155184968637e+05 -9.2312089910958633e+07 
-5.3027054619703904e+00 -1.0335319294222827e+00 +2.2940741577751518e+00 +2.0477614347861007e+01 -1.0354801637709977e+02 +1.7997637866720903e+04 +2.8490564887560240e+05 -9.0921070218523413e+07 
-5.4027565084226703e+00 -1.0335286709156877e+00 +2.2938477980550314e+00 +2.0508720548863931e+01 -1.0033798832996192e+02 +1.7461468631250344e+04 +2.8492647928262444e+05 -8.9807514263101920e+07 
-5.5028075548749404e+00 -1.0335253388794670e+00 +2.2936121044596218e+00 +2.0537752859923803e+01 -9.6850127133506959e+01 +1.6976877941881015e+04 +2.8350853051131143e+05 -8.9001875638545319e+07 
-5.6028586013272097e+00 -1.0335219310591985e+00 +2.2933672691049103e+00 +2.0564537831285975e+01 -9.3082654847122100e+01 +1.6547868127499500e+04 +2.8063008894458867e+05 -8.8526228067467406e+07 
-5.7029096477794798e+00 -1.0335184483073216e+00 +2.2931142955864874e+00 +2.0588984524232476e+01 -8.9061224930295026e+01 +1.6174688737038143e+04 +2.7642225617570535e+05 -8.8376257300945505e+07 
-5.8029606942317500e+00 -1.0335148921605779e+00 +2.2928543608073548e+00 +2.0611013676602344e+01 -8.4816526899112887e+01 +1.5856909300875934e+04 +2.7104162961311330e+05 -8.8542527253952563e+07 
-5.9030117406840201e+00 -1.0335112641558595e+00 +2.2925886418182886e+00 +2.0630546032231756e+01 -8.0379254501976305e+01 +1.5594099442032710e+04 +2.6464482930536504e+05 -8.9015603073533192e+07 
-6.0030627871363000e+00 -1.0335075658303339e+00 +2.2923183158293226e+00 +2.0647502354826312e+01 -7.5780106073291904e+01 +1.5385828622382372e+04 +2.5738850004974951e+05 -8.9786049985641584e+07 
-6.1031138335885702e+00 -1.0335037987213680e+00 +2.2920445602136756e+00 +2.0661803419577762e+01 -7.1049784649374459e+01 +1.5231666315617622e+04 +2.4942931199151176e+05 -9.0844434171338782e+07 
-6.2031648800408403e+00 -1.0334999643665836e+00 +2.2917685525211198e+00 +2.0673370018065373e+01 -6.6218998378285605e+01 +1.5131181927437923e+04 +2.4092396298002673e+05 -9.2181322436790928e+07 
-6.3032159264931096e+00 -1.0334960643038571e+00 +2.2914914704764682e+00 +2.0682122958555347e+01 -6.1318460472834090e+01 +1.5083944797462726e+04 +2.3202917818317126e+05 -9.3787282260787502e+07 
-6.4032669729453797e+00 -1.0334921000713315e+00 +2.2912144919974580e+00 +2.0687983066609501e+01 -5.6378889724201038e+01 +1.5089524205904270e+04 +2.2290171298203067e+05 -9.5652881891341269e+07 
-6.5033180193976499e+00 -1.0334880732074232e+00 +2.2909387951955353e+00 +2.0690871183775517e+01 -5.1431010552806669e+01 +1.5147489403375534e+04 +2.1369835321950063e+05 -9.7768690514566943e+07 
-6.6033690658499298e+00 -1.0334839852508562e+00 +2.2906655583889668e+00 +2.0690708174105822e+01 -4.6505553385457475e+01 +1.5257409505074511e+04 +2.0457591734838174e+05 -1.0012527781633164e+08 
-6.7034201123021999e+00 -1.0334798377405991e+00 +2.2903959601058550e+00 +2.0687414912979612e+01 -4.1633254729230998e+01 +1.5418853714296014e+04 +1.9569125667587298e+05 -1.0271321509437081e+08 
-6.8034711587544701e+00 -1.0334756322159719e+00 +2.2901311790936090e+00 +2.0680912299616626e+01 -3.6844857498987473e+01 +1.5631391093072665e+04 +1.8720125734191205e+05 -1.0552307420030202e+08 
-6.9035222052067402e+00 -1.0334713702165972e+00 +2.2898723943296910e+00 +2.0671121253327939e+01 -3.2171111282453566e+01 +1.5894590652089073e+04 +1.7926284165921193e+05 -1.0854542803914860e+08 
-7.0035732516590103e+00 -1.0334670532824048e+00 +2.2896207850233519e+00 +2.0657962710526824e+01 -2.7642772436946714e+01 +1.6208021408113931e+04 +1.7203296867951218e+05 -1.1177085085595830e+08 
-7.1036242981112796e+00 -1.0334626829536968e+00 +2.2893775306302357e+00 +2.0641357632469148e+01 -2.3290604496449841e+01 +1.6571252265608968e+04 +1.6566863644451980e+05 -1.1518991776713511e+08 
-7.2036753445635497e+00 -1.0334582607711056e+00 +2.2891438108541093e+00 +2.0621227001293466e+01 -1.9145378234381024e+01 +1.6983852089737662e+04 +1.6032688229033220e+05 -1.1879320511911865e+08 
-7.3037263910158297e+00 -1.0334537882756010e+00 +2.2889208056612507e+00 +2.0597491816969214e+01 -1.5237872092806587e+01 +1.7445389782473638e+04 +1.5616478526756767e+05 -1.2257129091191928e+08 
-7.4037774374680998e+00 -1.0334492670085265e+00 +2.2887096952806347e+00 +2.0570073105184470e+01 -1.1598872187927283e+01 +1.7955434146315481e+04 +1.5333946611388042e+05 -1.2651475420698048e+08 
-7.5038284839203699e+00 -1.0334446985117502e+00 +2.2885116601255633e+00 +2.0538891918240374e+01 -8.2591678715612034e+00 +1.8513554226136694e+04 +1.5200805648832489e+05 -1.3061417786201881e+08 
-7.6038795303726401e+00 -1.0334400852491301e+00 +2.2883275185996692e+00 +2.0503963754688748e+01 -5.2394511276540392e+00 +1.9118106523776420e+04 +1.5227500679103329e+05 -1.3485645181433877e+08 
-7.7039305768249102e+00 -1.0334354329829014e+00 +2.2881567787636214e+00 +2.0465672415863558e+01 -2.5267895765823920e+00 +1.9762292765631693e+04 +1.5408151946167968e+05 -1.3921111821453834e+08 
-7.8039816232771804e+00 -1.0334307482237894e+00 +2.2879986470784748e+00 +2.0424492594191786e+01 -1.0113600295185203e-01 +2.0437956914605638e+04 +1.5733729685856120e+05 -1.4364286772446346e+08 
-7.9040326697294496e+00 -1.0334260374825364e+00 +2.2878523298625644e+00 +2.0380898998852750e+01 +2.0575613863054265e+00 +2.1136942303789714e+04 +1.6195201452755774e+05 -1.4811638687986767e+08 
-8.0040837161817304e+00 -1.0334213072697873e+00 +2.2877170332752543e+00 +2.0335366345280402e+01 +3.9693594859130381e+00 +2.1851091810633177e+04 +1.6783531756894776e+05 -1.5259635878336814e+08 
-8.1041347626340006e+00 -1.0334165640962234e+00 +2.2875919633215283e+00 +2.0288369370298195e+01 +5.6543201696499041e+00 +2.2572247564623995e+04 +1.7489682133462085e+05 -1.5704746169214532e+08 
-8.2041858090862707e+00 -1.0334118144724727e+00 +2.2874763258440973e+00 +2.0240382822984532e+01 +7.1325105353140632e+00 +2.3292251104560299e+04 +1.8304611000675327e+05 -1.6143436970878184e+08 
-8.3042368555385409e+00 -1.0334070649091347e+00 +2.2873693265112633e+00 +2.0191881468241949e+01 +8.4240032735256420e+00 +2.4002943300568808e+04 +1.9219273443732315e+05 -1.6572175237006867e+08 
-8.4042879019908092e+00 -1.0334023219167363e+00 +2.2872701708169330e+00 +2.0143340081996318e+01 +9.5488766689844002e+00 +2.4696164431281089e+04 +2.0224621216921392e+05 -1.6987427496468046e+08 
-8.5043389484430794e+00 -1.0333975920057450e+00 +2.2871780640692623e+00 +2.0095233453467060e+01 +1.0527214956247297e+01 +2.5363754137227330e+04 +2.1311602534260097e+05 -1.7385659828971025e+08 
-8.6043899948953602e+00 -1.0333928816866820e+00 +2.2870922113889445e+00 +2.0048036398204598e+01 +1.1379108355286363e+01 +2.5997551146248217e+04 +2.2471162052098801e+05 -1.7763337725749898e+08 
-8.7044410413476303e+00 -1.0333881974698782e+00 +2.2870118177031351e+00 +2.0002223731520168e+01 +1.2124653295440297e+01 +2.6589393782738865e+04 +2.3694240733676148e+05 -1.8116926332093149e+08 
-8.8044920877999004e+00 -1.0333835458656953e+00 +2.2869360877302771e+00 +1.9958270294104395e+01 +1.2783952834764793e+01 +2.7131119456450899e+04 +2.4971775611939852e+05 -1.8442890195988938e+08 
-8.9045431342521706e+00 -1.0333789333844263e+00 +2.2868642259879199e+00 +1.9916650941861775e+01 +1.3377116464402837e+01 +2.7614564847105776e+04 +2.6294699898280954e+05 -1.8737693352532017e+08 
-9.0045941807044407e+00 -1.0333743665362674e+00 +2.2867954367751100e+00 +1.9877840541630722e+01 +1.3924260627369060e+01 +2.8031565981917141e+04 +2.7653942682622292e+05 -1.8997799358742812e+08 
-9.1046452271567109e+00 -1.0333698518313759e+00 +2.2867289241686430e+00 +1.9842313981329070e+01 +1.4445508851094109e+01 +2.8373958017162273e+04 +2.9040428853265615e+05 -1.9219671181092140e+08 
-9.2046962736089899e+00 -1.0333653957798341e+00 +2.2866638920246634e+00 +1.9810546163100238e+01 +1.4960991671952952e+01 +2.8633575367659261e+04 +3.0445079150337848e+05 -1.9399771256022611e+08 
-9.3047473200612600e+00 -1.0333610048916131e+00 +2.2865995439582090e+00 +1.9783012001926956e+01 +1.5490847296010347e+01 +2.8802251716738523e+04 +3.1858809769152827e+05 -1.9534561488699093e+08 
-9.4047983665135302e+00 -1.0333566856766476e+00 +2.2865350833515050e+00 +1.9760186434313887e+01 +1.6055221328127953e+01 +2.8871819837616844e+04 +3.3272532526264398e+05 -1.9620503163515115e+08 
-9.5048494129658003e+00 -1.0333524446443079e+00 +2.2864697132899003e+00 +1.9742544360276803e+01 +1.6674266738497817e+01 +2.8834112489593663e+04 +3.4677156110775069e+05 -1.9654057235936734e+08 
-9.6049004594180705e+00 -1.0333482857501535e+00 +2.2864026719033959e+00 +1.9730385488844931e+01 +1.7364354622505395e+01 +2.8683856476070669e+04 +3.6065998124364269e+05 -1.9632896747259337e+08 
-9.7049515058703406e+00 -1.0333442042342329e+00 +2.2863333893078579e+00 +1.9723415793092929e+01 +1.8126378728487111e+01 +2.8425864628766569e+04 +3.7440951115306257e+05 -1.9558964364076653e+08 
-9.8050025523226108e+00 -1.0333401934647914e+00 +2.2862613553084246e+00 +1.9721213167202279e+01 +1.8957197102900839e+01 +2.8067202967890913e+04 +3.8805872992029553e+05 -1.9435164558010182e+08 
-9.9050535987748898e+00 -1.0333362468099372e+00 +2.2861860599672532e+00 +1.9723355517109532e+01 +1.9853659988467189e+01 +2.7614937257186368e+04 +4.0164625824422855e+05 -1.9264401695880350e+08 
-1.0005104645227201e+01 -1.0333323576374660e+00 +2.2861069936039029e+00 +1.9729420742399235e+01 +2.0812609728422650e+01 +2.7076133358072260e+04 +4.1521076094607118e+05 -1.9049580228511602e+08 
-1.0105155691679400e+01 -1.0333285193149808e+00 +2.2860236468050470e+00 +1.9738986749157970e+01 +2.1830880440144117e+01 +2.6457856981810830e+04 +4.2879094889868994e+05 -1.8793604572975466e+08 
