# multipoles
# s[mm] polynom_b[n=0][T/m^n] polynom_b[n=1][T/m^n] polynom_b[n=2][T/m^n] polynom_b[n=3][T/m^n] polynom_b[n=4][T/m^n] polynom_b[n=5][T/m^n] polynom_b[n=6][T/m^n] 
+0.0000000000000000e+00 -1.0320146600226461e+00 +2.2799843828181645e+00 +2.0961621294278967e+01 +2.2273630301237094e+02 -3.9577012148531569e+04 -8.8512896673781297e+05 +2.6214979958106127e+08 
+1.0000000000000001e-01 -1.0320148670753841e+00 +2.2797214111361725e+00 +2.0979066769090274e+01 +2.3144221268779282e+02 -4.0652256756469324e+04 -9.2681646401581995e+05 +2.6877530503104842e+08 
+2.0000000000000001e-01 -1.0320150861996389e+00 +2.2794748345646565e+00 +2.0996614986039692e+01 +2.3981789457435286e+02 -4.1730525764210252e+04 -9.6703403130284604e+05 +2.7545239536013949e+08 
+3.0000000000000004e-01 -1.0320153200189897e+00 +2.2792451722513754e+00 +2.1014171241147320e+01 +2.4785227214295614e+02 -4.2809501495016928e+04 -1.0057172254485025e+06 +2.8217156615219676e+08 
+4.0000000000000002e-01 -1.0320155711571350e+00 +2.2790329433736920e+00 +2.1031640838329949e+01 +2.5553426763936352e+02 -4.3886866345611357e+04 -1.0428015956596147e+06 +2.8892331309434098e+08 
+5.0000000000000000e-01 -1.0320158422378569e+00 +2.2788386671506737e+00 +2.1048929084532819e+01 +2.6285280166484540e+02 -4.4960302692244630e+04 -1.0782226808162015e+06 +2.9569813152650821e+08 
+5.9999999999999998e-01 -1.0320161354807786e+00 +2.2786624893902125e+00 +2.1065914588724521e+01 +2.6980329016968489e+02 -4.6026919425198001e+04 -1.1119422404864449e+06 +3.0248300564506453e+08 
+6.9999999999999996e-01 -1.0320164514889860e+00 +2.2785030653791023e+00 +2.1082371526506673e+01 +2.7640695049632677e+02 -4.7081572885442663e+04 -1.1440252956257912e+06 +3.0925104363036174e+08 
+7.9999999999999993e-01 -1.0320167904618538e+00 +2.2783586785680821e+00 +2.1098048597001551e+01 +2.8269140386777070e+02 -4.8118567316092005e+04 -1.1745622659652487e+06 +3.1597192956203312e+08 
+8.9999999999999991e-01 -1.0320171525987625e+00 +2.2782276124438869e+00 +2.1112694499331113e+01 +2.8868426998950315e+02 -4.9132206947152124e+04 -1.2036435613944365e+06 +3.2261534738293236e+08 
+9.9999999999999989e-01 -1.0320175380991954e+00 +2.2781081505121037e+00 +2.1126057946263337e+01 +2.9441316758302793e+02 -5.0116796274881577e+04 -1.2313595851259439e+06 +3.2915098228827691e+08 
+1.0999999999999999e+00 -1.0320179471626509e+00 +2.2779985763137289e+00 +2.1137887655100148e+01 +2.9990571388347763e+02 -5.1066639904118703e+04 -1.2578007306870057e+06 +3.3554852001648498e+08 
+1.2000000000000000e+00 -1.0320183799886355e+00 +2.2778971734021121e+00 +2.1147932348502781e+01 +3.0518952530910747e+02 -5.1976042582410206e+04 -1.2830573857663013e+06 +3.4177764706258416e+08 
+1.3000000000000000e+00 -1.0320188367767111e+00 +2.2778022253622092e+00 +2.1155940761064421e+01 +3.1029221691127299e+02 -5.2839309333920435e+04 -1.3072199290248540e+06 +3.4780805134149498e+08 
+1.4000000000000001e+00 -1.0320193177263925e+00 +2.2777120157879915e+00 +2.1161661629940603e+01 +3.1524140300342998e+02 -5.3650745310312283e+04 -1.3303787336160187e+06 +3.5360942155534339e+08 
+1.5000000000000002e+00 -1.0320198230372002e+00 +2.2776248283006950e+00 +2.1164843701249701e+01 +3.2006469666092534e+02 -5.4404655918319011e+04 -1.3526241643555195e+06 +3.5915144782119071e+08 
+1.6000000000000003e+00 -1.0320203529086522e+00 +2.2775389465301377e+00 +2.1165235731915178e+01 +3.2478971023337164e+02 -5.5095346878496493e+04 -1.3740465805567831e+06 +3.6440382201354682e+08 
+1.7000000000000004e+00 -1.0320209075401987e+00 +2.2774526541194939e+00 +2.1162586482877934e+01 +3.2944405522952360e+02 -5.5717124110108372e+04 -1.3947363354126143e+06 +3.6933623725489092e+08 
+1.8000000000000005e+00 -1.0320214871312345e+00 +2.2773642347277909e+00 +2.1156644721220250e+01 +3.3405534222085890e+02 -5.6264293782853536e+04 -1.4147837753165106e+06 +3.7391838819448692e+08 
+1.9000000000000006e+00 -1.0320220918811147e+00 +2.2772719720202597e+00 +2.1147159225864979e+01 +3.3865118112955861e+02 -5.6731162454461199e+04 -1.4342792415357989e+06 +3.7811997174274188e+08 
+2.0000000000000004e+00 -1.0320227219891003e+00 +2.2771741496703002e+00 +2.1133878780383341e+01 +3.4325918117353643e+02 -5.7112036938786776e+04 -1.4533130698557554e+06 +3.8191068645813608e+08 
+2.1000000000000005e+00 -1.0320233776543641e+00 +2.2770690513553289e+00 +2.1116552176598884e+01 +3.4790695097482973e+02 -5.7401224397552913e+04 -1.4719755911480724e+06 +3.8526023304780090e+08 
+2.2000000000000006e+00 -1.0320240590759764e+00 +2.2769549607589887e+00 +2.1094928213861671e+01 +3.5262209850166562e+02 -5.7593032339961814e+04 -1.4903571310151382e+06 +3.8813831440123427e+08 
+2.3000000000000007e+00 -1.0320247664528912e+00 +2.2768301615639066e+00 +2.1068755699294666e+01 +3.5743223127242771e+02 -5.7681768646116943e+04 -1.5085480109142070e+06 +3.9051463575478631e+08 
+2.4000000000000008e+00 -1.0320254999839333e+00 +2.2766929374537175e+00 +2.1037783447395341e+01 +3.6236495630448280e+02 -5.7661741574845713e+04 -1.5266385478658860e+06 +3.9235890477270240e+08 
+2.5000000000000009e+00 -1.0320262598678080e+00 +2.2765415721122548e+00 +2.1001760284135287e+01 +3.6744788013740930e+02 -5.7527259861038154e+04 -1.5447190545912723e+06 +3.9364083205214202e+08 
+2.6000000000000010e+00 -1.0320270461235135e+00 +2.2763747234194769e+00 +2.0960580848668254e+01 +3.7270464223633451e+02 -5.7275594760741427e+04 -1.5628796031186101e+06 +3.9434410502304214e+08 
+2.7000000000000011e+00 -1.0320278579013789e+00 +2.2761924277869521e+00 +2.0914690583159462e+01 +3.7814545376196435e+02 -5.6915321416764353e+04 -1.5812212359119446e+06 +3.9450621224441737e+08 
+2.8000000000000012e+00 -1.0320286940973133e+00 +2.2759950373720477e+00 +2.0864664791779003e+01 +3.8377777911615300e+02 -5.6457710248812196e+04 -1.5998508206004866e+06 +3.9417759548879713e+08 
+2.9000000000000012e+00 -1.0320295536070796e+00 +2.2757829042227051e+00 +2.0811078754941533e+01 +3.8960908660347945e+02 -5.5914031162422558e+04 -1.6188752498071094e+06 +3.9340869390296394e+08 
+3.0000000000000013e+00 -1.0320304353262404e+00 +2.2755563802716456e+00 +2.0754507721830119e+01 +3.9564684866593836e+02 -5.5295553393274189e+04 -1.6384014426177670e+06 +3.9224994321986157e+08 
+3.1000000000000014e+00 -1.0320313381502186e+00 +2.2753158173250907e+00 +2.0695526915483722e+01 +4.0189854233634009e+02 -5.4613545581656486e+04 -1.6585363475966642e+06 +3.9075177605368966e+08 
+3.2000000000000015e+00 -1.0320322609742154e+00 +2.2750615670543235e+00 +2.0634711521260808e+01 +4.0837164954479294e+02 -5.3879275541101757e+04 -1.6793869447402621e+06 +3.8896462076761383e+08 
+3.3000000000000016e+00 -1.0320332026932348e+00 +2.2747939809870208e+00 +2.0572636689072194e+01 +4.1507365749149386e+02 -5.3104010286286000e+04 -1.7010602480017534e+06 +3.8693890156742090e+08 
+3.4000000000000017e+00 -1.0320341622020823e+00 +2.2745134104920899e+00 +2.0509877531191858e+01 +4.2201205917503324e+02 -5.2299015974764370e+04 -1.7236633086288318e+06 +3.8472503818003374e+08 
+3.5000000000000018e+00 -1.0320351383953226e+00 +2.2742202067752384e+00 +2.0447009115312706e+01 +4.2919435362776881e+02 -5.1475557756590955e+04 -1.7473032168282040e+06 +3.8237344508798540e+08 
+3.6000000000000019e+00 -1.0320361301673238e+00 +2.2739147208687296e+00 +2.0384606469490986e+01 +4.3662804630018161e+02 -5.0644899859493271e+04 -1.7720871042763093e+06 +3.7993453191263092e+08 
+3.7000000000000020e+00 -1.0320371364121741e+00 +2.2735973036159556e+00 +2.0323244569253067e+01 +4.4432064960891688e+02 -4.9818305322616769e+04 -1.7981221475793826e+06 +3.7745870209177655e+08 
+3.8000000000000020e+00 -1.0320381560237188e+00 +2.2732683056677763e+00 +2.0263498341140757e+01 +4.5227968314114383e+02 -4.9007036048050126e+04 -1.8255155697636434e+06 +3.7499635307923651e+08 
+3.9000000000000021e+00 -1.0320391878955621e+00 +2.2729280774708336e+00 +2.0205942661767970e+01 +4.6051267409317029e+02 -4.8222352772721126e+04 -1.8543746431108178e+06 +3.7259787618722773e+08 
+4.0000000000000018e+00 -1.0320402309210073e+00 +2.2725769692544699e+00 +2.0151152348513875e+01 +4.6902715774502849e+02 -4.7475514872083782e+04 -1.8848066921952947e+06 +3.7031365559932125e+08 
+4.1000000000000014e+00 -1.0320412839931050e+00 +2.2722153310259032e+00 +2.0099702164222098e+01 +4.7783067769827210e+02 -4.6777780433691420e+04 -1.9169190955473287e+06 +3.6819406867821383e+08 
+4.2000000000000011e+00 -1.0320423460045784e+00 +2.2718435125547853e+00 +2.0052166805727897e+01 +4.8693078642275862e+02 -4.6140406022155650e+04 -1.9508192891357841e+06 +3.6628948480401218e+08 
+4.3000000000000007e+00 -1.0320434158478944e+00 +2.2714618633701198e+00 +2.0009120913176471e+01 +4.9633504543683227e+02 -4.5574646849725301e+04 -1.9866147676677587e+06 +3.6465026616559047e+08 
+4.4000000000000004e+00 -1.0320444924151382e+00 +2.2710707327433748e+00 +1.9971139049885029e+01 +5.0605102591219810e+02 -4.5091756361850581e+04 -2.0244130884436348e+06 +3.6332676570721841e+08 
+4.5000000000000000e+00 -1.0320455745981341e+00 +2.2706704696764461e+00 +1.9938795717697058e+01 +5.1608630890507345e+02 -4.4702986544129417e+04 -2.0643218720764262e+06 +3.6236932867643511e+08 
+4.5999999999999996e+00 -1.0320466611575911e+00 +2.2702615544292186e+00 +1.9912498878843387e+01 +5.2644132000700904e+02 -4.4416511715165107e+04 -2.1063974594731890e+06 +3.6181491725608921e+08 
+4.6999999999999993e+00 -1.0320477506399033e+00 +2.2698451821502323e+00 +1.9892025708310989e+01 +5.3708503805554665e+02 -4.4228669595430627e+04 -2.1504832131133308e+06 +3.6164847050549382e+08 
+4.7999999999999989e+00 -1.0320488416087112e+00 +2.2694227738901365e+00 +1.9877002903172496e+01 +5.4797783966014481e+02 -4.4132927329377024e+04 -2.1963669374921951e+06 +3.6184216970456469e+08 
+4.8999999999999986e+00 -1.0320499326279171e+00 +2.2689957507709821e+00 +1.9867057183149338e+01 +5.5908009907719247e+02 -4.4122752327392234e+04 -2.2438364222171870e+06 +3.6236819686802918e+08 
+4.9999999999999982e+00 -1.0320510222617751e+00 +2.2685655339713464e+00 +1.9861815302688175e+01 +5.7035218859594931e+02 -4.4191612495099733e+04 -2.2926794440301964e+06 +3.6319873582597470e+08 
+5.0999999999999979e+00 -1.0320521090748194e+00 +2.2681335447404880e+00 +1.9860904041365625e+01 +5.8175447809132788e+02 -4.4332976044924013e+04 -2.3426837640579813e+06 +3.6430597130653089e+08 
+5.1999999999999975e+00 -1.0320531916319555e+00 +2.2677012044059093e+00 +1.9863950215961417e+01 +5.9324733474363495e+02 -4.4540311727339598e+04 -2.3936371259946730e+06 +3.6566209003868967e+08 
+5.2999999999999972e+00 -1.0320542684984111e+00 +2.2672699343835849e+00 +1.9870580673036471e+01 +6.0479112268644803e+02 -4.4807088674011015e+04 -2.4453272538457536e+06 +3.6723927995802480e+08 
+5.3999999999999968e+00 -1.0320553382398838e+00 +2.2668411561787236e+00 +1.9880422307840149e+01 +6.1634620295829393e+02 -4.5126776761610796e+04 -2.4975418515619431e+06 +3.6900973194814038e+08 
+5.4999999999999964e+00 -1.0320563994223808e+00 +2.2664162914039347e+00 +1.9893102044352677e+01 +6.2787293290691957e+02 -4.5492846224075976e+04 -2.5500685993336728e+06 +3.7094563796662951e+08 
+5.5999999999999961e+00 -1.0320574506124141e+00 +2.2659967617784900e+00 +1.9908246858784995e+01 +6.3933166616486449e+02 -4.5898768096751861e+04 -2.6026951532957051e+06 +3.7301919315180135e+08 
+5.6999999999999957e+00 -1.0320584903769121e+00 +2.2655839891400729e+00 +1.9925483768562426e+01 +6.5068275226579146e+02 -4.6338013994124340e+04 -2.6552091431392343e+06 +3.7520259472096574e+08 
+5.7999999999999954e+00 -1.0320595172832887e+00 +2.2651793954546271e+00 +1.9944439841377857e+01 +6.6188653631234990e+02 -4.6804056291803288e+04 -2.7073981700179446e+06 +3.7746804286679357e+08 
+5.8999999999999950e+00 -1.0320605298994616e+00 +2.2647844028194717e+00 +1.9964742196441595e+01 +6.7290335881396788e+02 -4.7290368131829542e+04 -2.7590498053737702e+06 +3.7978774072270268e+08 
+5.9999999999999947e+00 -1.0320615267938822e+00 +2.2644004334748775e+00 +1.9986018008374138e+01 +6.8369355533654743e+02 -4.7790423497310512e+04 -2.8099515888214121e+06 +3.8213389471925104e+08 
+6.0999999999999943e+00 -1.0320625065354843e+00 +2.2640289098124238e+00 +2.0007894500532810e+01 +6.9421745618001910e+02 -4.8297697079499965e+04 -2.8598910260169441e+06 +3.8447871393006581e+08 
+6.1999999999999940e+00 -1.0320634676938225e+00 +2.2636712543765216e+00 +2.0029998962542230e+01 +7.0443538630569606e+02 -4.8805664610761072e+04 -2.9086555881265919e+06 +3.8679441165406680e+08 
+6.2999999999999936e+00 -1.0320644088390278e+00 +2.2633288898855985e+00 +2.0051958743788692e+01 +7.1430766466159537e+02 -4.9307802729693176e+04 -2.9560327076960756e+06 +3.8905320473795706e+08 
+6.3999999999999932e+00 -1.0320653285418189e+00 +2.2630032392249828e+00 +2.0073401255446743e+01 +7.2379460433796191e+02 -4.9797589018450526e+04 -3.0018097793818419e+06 +3.9122731374488711e+08 
+6.4999999999999929e+00 -1.0320662253736028e+00 +2.2626957254717159e+00 +2.0093953983345340e+01 +7.3285651203863779e+02 -5.0268502226150646e+04 -3.0457741577075194e+06 +3.9328896391220748e+08 
+6.5999999999999925e+00 -1.0320670982970488e+00 +2.2624074375016421e+00 +2.0113333916858657e+01 +7.4146250957572568e+02 -5.0715559414430165e+04 -3.0877616029104949e+06 +3.9521678708760011e+08 
+6.6999999999999922e+00 -1.0320679475844250e+00 +2.2621380187358096e+00 +2.0131607916868187e+01 +7.4961822226792856e+02 -5.1139921491642192e+04 -3.1278019515502560e+06 +3.9701532258892465e+08 
+6.7999999999999918e+00 -1.0320687737794156e+00 +2.2618867222399519e+00 +2.0148929929859275e+01 +7.5733877533846987e+02 -5.1544311730702400e+04 -3.1659740289675137e+06 +3.9869577088917977e+08 
+6.8999999999999915e+00 -1.0320695774254536e+00 +2.2616528009313668e+00 +2.0165453872550941e+01 +7.6463929928142056e+02 -5.1931452736506362e+04 -3.2023566936572059e+06 +4.0026932882512838e+08 
+6.9999999999999911e+00 -1.0320703590657785e+00 +2.2614355075943133e+00 +2.0181333638519526e+01 +7.7153492954846001e+02 -5.2304066579723760e+04 -3.2370288364838311e+06 +4.0174719032443321e+08 
+7.0999999999999908e+00 -1.0320711192433716e+00 +2.2612340948704848e+00 +2.0196723089374942e+01 +7.7804080688252384e+02 -5.2664874625289063e+04 -3.2700693828007155e+06 +4.0314054557748359e+08 
+7.1999999999999904e+00 -1.0320718585009689e+00 +2.2610478152526849e+00 +2.0211776057318218e+01 +7.8417207751190847e+02 -5.3016597583883173e+04 -3.3015572936252970e+06 +4.0446058128859484e+08 
+7.2999999999999901e+00 -1.0320725773810513e+00 +2.2608759210832723e+00 +2.0226646343722635e+01 +7.8994389326179828e+02 -5.3361955483623671e+04 -3.3315715665142480e+06 +4.0571848053507072e+08 
+7.3999999999999897e+00 -1.0320732764257645e+00 +2.2607176645520259e+00 +2.0241487709762733e+01 +7.9537141161378429e+02 -5.3703667495756825e+04 -3.3601912359107998e+06 +4.0692542194881403e+08 
+7.4999999999999893e+00 -1.0320739561770083e+00 +2.2605722976843512e+00 +2.0256453887769801e+01 +8.0046979611340191e+02 -5.4044452150446057e+04 -3.3874953757263715e+06 +4.0809258073864073e+08 
+7.5999999999999890e+00 -1.0320746171763833e+00 +2.2604390723470464e+00 +2.0271698574381485e+01 +8.0525421621134876e+02 -5.4387027203060490e+04 -3.4135630984697151e+06 +4.0923112804431409e+08 
+7.6999999999999886e+00 -1.0320752599651553e+00 +2.2603172402331446e+00 +2.0287375426985424e+01 +8.0973984776388636e+02 -5.4734109573678841e+04 -3.4384735583395804e+06 +4.1035223066750276e+08 
+7.7999999999999883e+00 -1.0320758850842575e+00 +2.2602060528669434e+00 +2.0303638064358303e+01 +8.1394187289371484e+02 -5.5088415360050858e+04 -3.4623059504637620e+06 +4.1146705113143885e+08 
+7.8999999999999879e+00 -1.0320764930743347e+00 +2.2601047615919994e+00 +2.0320640071617845e+01 +8.1787548039397518e+02 -5.5452659924814237e+04 -3.4851395134341079e+06 +4.1258674807778627e+08 
+7.9999999999999876e+00 -1.0320770844755927e+00 +2.2600126175693283e+00 +2.0338534982577645e+01 +8.2155586580536840e+02 -5.5829557570861100e+04 -3.5070535298300567e+06 +4.1372247474977869e+08 
+8.0999999999999872e+00 -1.0320776598279893e+00 +2.2599288717811636e+00 +2.0357476303474972e+01 +8.2499823134386838e+02 -5.6221821986776944e+04 -3.5281273259478253e+06 +4.1488538109297490e+08 
+8.1999999999999869e+00 -1.0320782196710026e+00 +2.2598527750098558e+00 +2.0377617484121028e+01 +8.2821778654180002e+02 -5.6632165699725469e+04 -3.5484402756132558e+06 +4.1608661115493834e+08 
+8.2999999999999865e+00 -1.0320787645437939e+00 +2.2597835778495869e+00 +2.0399111938974791e+01 +8.3122974794914205e+02 -5.7063300480532613e+04 -3.5680717985936808e+06 +4.1733730502465576e+08 
+8.3999999999999861e+00 -1.0320792949851163e+00 +2.2597205306889800e+00 +2.0422113035860708e+01 +8.3404933967147861e+02 -5.7517937128627105e+04 -3.5871013638402261e+06 +4.1864859780431926e+08 
+8.4999999999999858e+00 -1.0320798115332173e+00 +2.2596628837084745e+00 +2.0446774081471425e+01 +8.3669179319281932e+02 -5.7998785186494657e+04 -3.6056084828313971e+06 +4.2003161867944854e+08 
+8.5999999999999854e+00 -1.0320803144112203e+00 +2.2596100467449851e+00 +2.0473191335362159e+01 +8.3916958880802486e+02 -5.8507459893670472e+04 -3.6236547866998231e+06 +4.2149303995164400e+08 
+8.6999999999999851e+00 -1.0320808027758610e+00 +2.2595621589502675e+00 +2.0501242321088043e+01 +8.4148270419433425e+02 -5.9041445968316199e+04 -3.6412327028131103e+06 +4.2302261826682943e+08 
+8.7999999999999847e+00 -1.0320812755632447e+00 +2.2595195642531407e+00 +2.0530751300031987e+01 +8.4362765690847380e+02 -5.9597240633116198e+04 -3.6583179022323955e+06 +4.2460608499826932e+08 
+8.8999999999999844e+00 -1.0320817317098649e+00 +2.2594826066755895e+00 +2.0561542578301921e+01 +8.4560096092042284e+02 -6.0171342096495551e+04 -3.6748860349142672e+06 +4.2622917693026841e+08 
+8.9999999999999840e+00 -1.0320821701524823e+00 +2.2594516303484484e+00 +2.0593440490961370e+01 +8.4739912569051603e+02 -6.0760249205161330e+04 -3.6909127221324169e+06 +4.2787763435632581e+08 
+9.0999999999999837e+00 -1.0320825898282087e+00 +2.2594269795204758e+00 +2.0626269413222097e+01 +8.4901865583626522e+02 -6.1360461668766024e+04 -3.7063735543850651e+06 +4.2953720218966496e+08 
+9.1999999999999833e+00 -1.0320829896744850e+00 +2.2594089985546191e+00 +2.0659853757211113e+01 +8.5045605121027597e+02 -6.1968479998747884e+04 -3.7212440917943558e+06 +4.3119362968147254e+08 
+9.2999999999999829e+00 -1.0320833686290907e+00 +2.2593980319397242e+00 +2.0694017973063822e+01 +8.5170780650774566e+02 -6.2580805534657055e+04 -3.7354998617179501e+06 +4.3283267056867349e+08 
+9.3999999999999826e+00 -1.0320837256301680e+00 +2.2593944242913007e+00 +2.0728586553104236e+01 +8.5277041117756880e+02 -6.3193940537084680e+04 -3.7491163580708597e+06 +4.3444008356198233e+08 
+9.4999999999999822e+00 -1.0320840596162577e+00 +2.2593985203589386e+00 +2.0763384034900003e+01 +8.5364034917769334e+02 -6.3804388243124908e+04 -3.7620690398650123e+06 +4.3600163261152458e+08 
+9.5999999999999819e+00 -1.0320843695262134e+00 +2.2594106650246686e+00 +2.0798234991183531e+01 +8.5431409896133266e+02 -6.4408652678729086e+04 -3.7743333309825552e+06 +4.3750308603099138e+08 
+9.6999999999999815e+00 -1.0320846542993187e+00 +2.2594312033186696e+00 +2.0832964044821829e+01 +8.5478813297217584e+02 -6.5003238958511261e+04 -3.7858846171534839e+06 +4.3893021797688204e+08 
+9.7999999999999812e+00 -1.0320849128752276e+00 +2.2594604804123186e+00 +2.0867395860424413e+01 +8.5505891778982061e+02 -6.5584653119557639e+04 -3.7966982466557026e+06 +4.4026880764543760e+08 
+9.8999999999999808e+00 -1.0320851441940218e+00 +2.2594988416311255e+00 +2.0901355152879351e+01 +8.5512291370610228e+02 -6.6149402300201677e+04 -3.8067495277751805e+06 +4.4150464017832267e+08 
+9.9999999999999805e+00 -1.0320853471961857e+00 +2.2595466324542577e+00 +2.0934666682898111e+01 +8.5497657470522802e+02 -6.6693994652197332e+04 -3.8160137286189082e+06 +4.4262350624308908e+08 
+1.0099999999999980e+01 -1.0320855208226030e+00 +2.2596041985240243e+00 +2.0967155257055044e+01 +8.5461634810573150e+02 -6.7214939349642824e+04 -3.8244660748345759e+06 +4.4361120210762024e+08 
