# field on trajectory
# s[mm] rx[mm] ry[mm] rz[mm] bx[T] by[T] bz[T]
0.0000000000000000e+00 +9.0449999999999999e+00 +0.0000000000000000e+00 +0.0000000000000000e+00 +1.0715174094999547e-02 -1.0343947894337067e+00 -5.8789674028618302e-02
1.0000000000000001e-01 +9.0449994831601987e+00 +0.0000000000000000e+00 +9.9999999998219166e-02 +1.0714888356318659e-02 -1.0343959213401639e+00 -5.8789011696676476e-02
2.0000000000000001e-01 +9.0449979326400562e+00 +0.0000000000000000e+00 +1.9999999998575341e-01 +1.0714609858815049e-02 -1.0343969677656695e+00 -5.8788350472610162e-02
3.0000000000000004e-01 +9.0449953484385262e+00 +0.0000000000000000e+00 +2.9999999995191773e-01 +1.0714339750547369e-02 -1.0343979175578473e+00 -5.8787689713000135e-02
4.0000000000000002e-01 +9.0449917305546617e+00 +0.0000000000000000e+00 +3.9999999988602708e-01 +1.0714079179474019e-02 -1.0343987595642343e+00 -5.8787028774453201e-02
5.0000000000000000e-01 +9.0449870789876226e+00 +0.0000000000000000e+00 +4.9999999977739651e-01 +1.0713829293443371e-02 -1.0343994826322171e+00 -5.8786367013613748e-02
5.9999999999999998e-01 +9.0449813937366876e+00 +0.0000000000000000e+00 +5.9999999961534090e-01 +1.0713590849794201e-02 -1.0344000783390206e+00 -5.8785704103159871e-02
6.9999999999999996e-01 +9.0449746748012618e+00 +0.0000000000000000e+00 +6.9999999938917523e-01 +1.0713363044201382e-02 -1.0344005491818746e+00 -5.8785040979749507e-02
7.9999999999999993e-01 +9.0449669221808744e+00 +0.0000000000000000e+00 +7.9999999908821440e-01 +1.0713144681891818e-02 -1.0344009003879044e+00 -5.8784378896033142e-02
8.9999999999999991e-01 +9.0449581358751754e+00 +0.0000000000000000e+00 +8.9999999870177338e-01 +1.0712934568057837e-02 -1.0344011371840833e+00 -5.8783719104653881e-02
9.9999999999999989e-01 +9.0449483158839286e+00 +0.0000000000000000e+00 +9.9999999821916707e-01 +1.0712731507876085e-02 -1.0344012647972325e+00 -5.8783062858236354e-02
1.0999999999999999e+00 +9.0449374622070060e+00 +0.0000000000000000e+00 +1.0999999976297103e+00 +1.0712534306526385e-02 -1.0344012884540206e+00 -5.8782411409375394e-02
1.2000000000000000e+00 +9.0449255748443864e+00 +0.0000000000000000e+00 +1.1999999969227182e+00 +1.0712341769210598e-02 -1.0344012133809639e+00 -5.8781766010624993e-02
1.3000000000000000e+00 +9.0449126537961444e+00 +0.0000000000000000e+00 +1.2999999960875055e+00 +1.0712152701171518e-02 -1.0344010448044281e+00 -5.8781127914486933e-02
1.4000000000000001e+00 +9.0448986990624487e+00 +0.0000000000000000e+00 +1.3999999951133872e+00 +1.0711965907711705e-02 -1.0344007879506254e+00 -5.8780498373399673e-02
1.5000000000000002e+00 +9.0448837106435587e+00 +0.0000000000000000e+00 +1.4999999939896784e+00 +1.0711780194212399e-02 -1.0344004480456173e+00 -5.8779878639727175e-02
1.6000000000000003e+00 +9.0448676885398154e+00 +0.0000000000000000e+00 +1.5999999927056943e+00 +1.0711594366152346e-02 -1.0344000303153142e+00 -5.8779269965747602e-02
1.7000000000000004e+00 +9.0448506327516363e+00 +0.0000000000000000e+00 +1.6999999912507495e+00 +1.0711407229126705e-02 -1.0343995399854733e+00 -5.8778673603642195e-02
1.8000000000000005e+00 +9.0448325432795134e+00 +0.0000000000000000e+00 +1.7999999896141592e+00 +1.0711217588865906e-02 -1.0343989822817019e+00 -5.8778090805484073e-02
1.9000000000000006e+00 +9.0448134201240062e+00 +0.0000000000000000e+00 +1.8999999877852385e+00 +1.0711024251254518e-02 -1.0343983624294544e+00 -5.8777522823227006e-02
2.0000000000000004e+00 +9.0447932632857349e+00 +0.0000000000000000e+00 +1.9999999857533026e+00 +1.0710826022350142e-02 -1.0343976856540351e+00 -5.8776970908694194e-02
2.1000000000000005e+00 +9.0447720727653760e+00 +0.0000000000000000e+00 +2.0999999835076668e+00 +1.0710621708402266e-02 -1.0343969571805969e+00 -5.8776436313567111e-02
2.2000000000000006e+00 +9.0447498485636615e+00 +0.0000000000000000e+00 +2.1999999810376458e+00 +1.0710410115871141e-02 -1.0343961822341419e+00 -5.8775920289374305e-02
2.3000000000000007e+00 +9.0447265906813676e+00 +0.0000000000000000e+00 +2.2999999783325551e+00 +1.0710190051446685e-02 -1.0343953660395193e+00 -5.8775424087480134e-02
2.4000000000000008e+00 +9.0447022991193116e+00 +0.0000000000000000e+00 +2.3999999753817098e+00 +1.0709960322067327e-02 -1.0343945138214283e+00 -5.8774948959073654e-02
2.5000000000000009e+00 +9.0446769738783459e+00 +0.0000000000000000e+00 +2.4999999721744253e+00 +1.0709719734938906e-02 -1.0343936308044177e+00 -5.8774496155157396e-02
2.6000000000000010e+00 +9.0446506149593571e+00 +0.0000000000000000e+00 +2.5999999687000170e+00 +1.0709467470241756e-02 -1.0343927215269859e+00 -5.8774066472271853e-02
2.7000000000000011e+00 +9.0446232223632563e+00 +0.0000000000000000e+00 +2.6999999649478004e+00 +1.0709204199125516e-02 -1.0343917877839257e+00 -5.8773658889755859e-02
2.8000000000000012e+00 +9.0445947960909798e+00 +0.0000000000000000e+00 +2.7999999609070905e+00 +1.0708930965493945e-02 -1.0343908306841092e+00 -5.8773271932652991e-02
2.9000000000000012e+00 +9.0445653361434850e+00 +0.0000000000000000e+00 +2.8999999565672026e+00 +1.0708648813288256e-02 -1.0343898513364089e+00 -5.8772904125999469e-02
3.0000000000000013e+00 +9.0445348425217560e+00 +0.0000000000000000e+00 +2.9999999519174523e+00 +1.0708358786480566e-02 -1.0343888508497121e+00 -5.8772553994831792e-02
3.1000000000000014e+00 +9.0445033152267946e+00 +0.0000000000000000e+00 +3.0999999469471553e+00 +1.0708061929067311e-02 -1.0343878303329312e+00 -5.8772220064194101e-02
3.2000000000000015e+00 +9.0444707542596241e+00 +0.0000000000000000e+00 +3.1999999416456273e+00 +1.0707759285062677e-02 -1.0343867908950197e+00 -5.8771900859145729e-02
3.3000000000000016e+00 +9.0444371596212854e+00 +0.0000000000000000e+00 +3.2999999360021834e+00 +1.0707451898491973e-02 -1.0343857336449820e+00 -5.8771594904768541e-02
3.4000000000000017e+00 +9.0444025313128407e+00 +0.0000000000000000e+00 +3.3999999300061394e+00 +1.0707140813385110e-02 -1.0343846596918882e+00 -5.8771300726174598e-02
3.5000000000000018e+00 +9.0443668693353647e+00 +0.0000000000000000e+00 +3.4999999236468109e+00 +1.0706827073769982e-02 -1.0343835701448854e+00 -5.8771016848513484e-02
3.6000000000000019e+00 +9.0443301736899517e+00 +0.0000000000000000e+00 +3.5999999169135135e+00 +1.0706511723665867e-02 -1.0343824661132104e+00 -5.8770741796979734e-02
3.7000000000000020e+00 +9.0442924443777066e+00 +0.0000000000000000e+00 +3.6999999097955629e+00 +1.0706195807076886e-02 -1.0343813487062052e+00 -5.8770474096820499e-02
3.8000000000000020e+00 +9.0442536813997521e+00 +0.0000000000000000e+00 +3.7999999022822752e+00 +1.0705880367985376e-02 -1.0343802190333247e+00 -5.8770212273342816e-02
3.9000000000000021e+00 +9.0442138847572195e+00 +0.0000000000000000e+00 +3.8999998943629661e+00 +1.0705566450345318e-02 -1.0343790782041531e+00 -5.8769954851921165e-02
4.0000000000000018e+00 +9.0441730544512549e+00 +0.0000000000000000e+00 +3.9999998860269512e+00 +1.0705255098075742e-02 -1.0343779273284173e+00 -5.8769700358004932e-02
4.1000000000000014e+00 +9.0441311904830108e+00 +0.0000000000000000e+00 +4.0999998772635466e+00 +1.0704947355054143e-02 -1.0343767675159947e+00 -5.8769447317125842e-02
4.2000000000000011e+00 +9.0440882928536528e+00 +0.0000000000000000e+00 +4.1999998680620685e+00 +1.0704644265109881e-02 -1.0343755998769324e+00 -5.8769194254905482e-02
4.3000000000000007e+00 +9.0440443615643495e+00 +0.0000000000000000e+00 +4.2999998584118320e+00 +1.0704346872017594e-02 -1.0343744255214546e+00 -5.8768939697062712e-02
4.4000000000000004e+00 +9.0439993966162806e+00 +0.0000000000000000e+00 +4.3999998483021532e+00 +1.0704056219490577e-02 -1.0343732455599779e+00 -5.8768682169421139e-02
4.5000000000000000e+00 +9.0439533980106308e+00 +0.0000000000000000e+00 +4.4999998377223491e+00 +1.0703773351174232e-02 -1.0343720611031231e+00 -5.8768420197916567e-02
4.5999999999999996e+00 +9.0439063657485868e+00 +0.0000000000000000e+00 +4.5999998266617350e+00 +1.0703499219716698e-02 -1.0343708728519614e+00 -5.8768152711944209e-02
4.6999999999999993e+00 +9.0438582998313422e+00 +0.0000000000000000e+00 +4.6999998151096269e+00 +1.0703234413934018e-02 -1.0343696798683939e+00 -5.8767880254388595e-02
4.7999999999999989e+00 +9.0438092002600943e+00 +0.0000000000000000e+00 +4.7999998030553419e+00 +1.0702979431466123e-02 -1.0343684808038742e+00 -5.8767603771600244e-02
4.8999999999999986e+00 +9.0437590670360457e+00 +0.0000000000000000e+00 +4.8999997904881951e+00 +1.0702734769670305e-02 -1.0343672743090686e+00 -5.8767324210057773e-02
4.9999999999999982e+00 +9.0437079001604079e+00 +0.0000000000000000e+00 +4.9999997773975036e+00 +1.0702500925605216e-02 -1.0343660590338100e+00 -5.8767042516374643e-02
5.0999999999999979e+00 +9.0436556996344013e+00 +0.0000000000000000e+00 +5.0999997637725833e+00 +1.0702278396014807e-02 -1.0343648336270619e+00 -5.8766759637305918e-02
5.1999999999999975e+00 +9.0436024654592568e+00 +0.0000000000000000e+00 +5.1999997496027506e+00 +1.0702067677312337e-02 -1.0343635967368783e+00 -5.8766476519755098e-02
5.2999999999999972e+00 +9.0435481976362162e+00 +0.0000000000000000e+00 +5.2999997348773213e+00 +1.0701869265564346e-02 -1.0343623470103620e+00 -5.8766194110780767e-02
5.3999999999999968e+00 +9.0434928961665335e+00 +0.0000000000000000e+00 +5.3999997195856126e+00 +1.0701683656474607e-02 -1.0343610830936292e+00 -5.8765913357603505e-02
5.4999999999999964e+00 +9.0434365610514771e+00 +0.0000000000000000e+00 +5.4999997037169406e+00 +1.0701511345368120e-02 -1.0343598036317636e+00 -5.8765635207612452e-02
5.5999999999999961e+00 +9.0433791922923330e+00 +0.0000000000000000e+00 +5.5999996872606213e+00 +1.0701352827175051e-02 -1.0343585072687826e+00 -5.8765360608372279e-02
5.6999999999999957e+00 +9.0433207898904033e+00 +0.0000000000000000e+00 +5.6999996702059716e+00 +1.0701208596414755e-02 -1.0343571926475961e+00 -5.8765090507629847e-02
5.7999999999999954e+00 +9.0432613538470061e+00 +0.0000000000000000e+00 +5.7999996525423088e+00 +1.0701079147179665e-02 -1.0343558584099635e+00 -5.8764825853320907e-02
5.8999999999999950e+00 +9.0432008841634826e+00 +0.0000000000000000e+00 +5.8999996342589487e+00 +1.0700964973119325e-02 -1.0343545031964592e+00 -5.8764567593577018e-02
5.9999999999999947e+00 +9.0431393808411933e+00 +0.0000000000000000e+00 +5.9999996153452084e+00 +1.0700866567424309e-02 -1.0343531256464285e+00 -5.8764316676732153e-02
6.0999999999999943e+00 +9.0430768438815221e+00 +0.0000000000000000e+00 +6.0999995957904050e+00 +1.0700784422810186e-02 -1.0343517243979514e+00 -5.8764074051329558e-02
6.1999999999999940e+00 +9.0430132732858759e+00 +0.0000000000000000e+00 +6.1999995755838544e+00 +1.0700719031501486e-02 -1.0343502980878010e+00 -5.8763840666128477e-02
6.2999999999999936e+00 +9.0429486690556864e+00 +0.0000000000000000e+00 +6.2999995547148746e+00 +1.0700670885215650e-02 -1.0343488453514029e+00 -5.8763617470110885e-02
6.3999999999999932e+00 +9.0428830311924120e+00 +0.0000000000000000e+00 +6.3999995331727817e+00 +1.0700640475146976e-02 -1.0343473648227997e+00 -5.8763405412488326e-02
6.4999999999999929e+00 +9.0428163596975395e+00 +0.0000000000000000e+00 +6.4999995109468927e+00 +1.0700628291950572e-02 -1.0343458551346054e+00 -5.8763205442708542e-02
6.5999999999999925e+00 +9.0427486545725859e+00 +0.0000000000000000e+00 +6.5999994880265254e+00 +1.0700634375115241e-02 -1.0343443156452443e+00 -5.8763018469302264e-02
6.6999999999999922e+00 +9.0426799158190949e+00 +0.0000000000000000e+00 +6.6999994644009959e+00 +1.0700656961369227e-02 -1.0343427486216876e+00 -5.8762845236350003e-02
6.7999999999999918e+00 +9.0426101434386403e+00 +0.0000000000000000e+00 +6.7999994400596222e+00 +1.0700693837017399e-02 -1.0343411570592338e+00 -5.8762686446866975e-02
6.8999999999999915e+00 +9.0425393374328209e+00 +0.0000000000000000e+00 +6.8999994149917221e+00 +1.0700742788650061e-02 -1.0343395439545049e+00 -5.8762542803950817e-02
6.9999999999999911e+00 +9.0424674978032549e+00 +0.0000000000000000e+00 +6.9999993891866117e+00 +1.0700801603158746e-02 -1.0343379123055072e+00 -5.8762415010781825e-02
7.0999999999999908e+00 +9.0423946245515801e+00 +0.0000000000000000e+00 +7.0999993626336089e+00 +1.0700868067752009e-02 -1.0343362651116985e+00 -5.8762303770623213e-02
7.1999999999999904e+00 +9.0423207176794502e+00 +0.0000000000000000e+00 +7.1999993353220315e+00 +1.0700939969971200e-02 -1.0343346053740528e+00 -5.8762209786821569e-02
7.2999999999999901e+00 +9.0422457771885316e+00 +0.0000000000000000e+00 +7.2999993072411966e+00 +1.0701015097706273e-02 -1.0343329360951208e+00 -5.8762133762806923e-02
7.3999999999999897e+00 +9.0421698030804993e+00 +0.0000000000000000e+00 +7.3999992783804220e+00 +1.0701091239211574e-02 -1.0343312602790984e+00 -5.8762076402093265e-02
7.4999999999999893e+00 +9.0420927953570374e+00 +0.0000000000000000e+00 +7.4999992487290248e+00 +1.0701166183121679e-02 -1.0343295809318869e+00 -5.8762038408278726e-02
7.5999999999999890e+00 +9.0420147540198315e+00 +0.0000000000000000e+00 +7.5999992182763236e+00 +1.0701237718467193e-02 -1.0343279010611612e+00 -5.8762020485045897e-02
7.6999999999999886e+00 +9.0419356790705674e+00 +0.0000000000000000e+00 +7.6999991870116355e+00 +1.0701303634690566e-02 -1.0343262236764303e+00 -5.8762023336162192e-02
7.7999999999999883e+00 +9.0418555705109309e+00 +0.0000000000000000e+00 +7.7999991549242784e+00 +1.0701361721661943e-02 -1.0343245517891040e+00 -5.8762047665480023e-02
7.8999999999999879e+00 +9.0417744283426007e+00 +0.0000000000000000e+00 +7.8999991220035701e+00 +1.0701409769694976e-02 -1.0343228884125553e+00 -5.8762094176937209e-02
7.9999999999999876e+00 +9.0416922525672465e+00 +0.0000000000000000e+00 +7.9999990882388294e+00 +1.0701445569562703e-02 -1.0343212365621874e+00 -5.8762163574557276e-02
8.0999999999999872e+00 +9.0416090431865292e+00 +0.0000000000000000e+00 +8.0999990536193724e+00 +1.0701466912513367e-02 -1.0343195992554941e+00 -5.8762256562449683e-02
8.1999999999999869e+00 +9.0415248002020920e+00 +0.0000000000000000e+00 +8.1999990181345197e+00 +1.0701471590286293e-02 -1.0343179795121265e+00 -5.8762373844810194e-02
8.2999999999999865e+00 +9.0414395236155638e+00 +0.0000000000000000e+00 +8.2999989817735873e+00 +1.0701457395127753e-02 -1.0343163803539577e+00 -5.8762516125921122e-02
8.3999999999999861e+00 +9.0413532134285504e+00 +0.0000000000000000e+00 +8.3999989445258940e+00 +1.0701422119806835e-02 -1.0343148048051443e+00 -5.8762684110151675e-02
8.4999999999999858e+00 +9.0412658696426345e+00 +0.0000000000000000e+00 +8.4999989063807568e+00 +1.0701363557631334e-02 -1.0343132558921937e+00 -5.8762878501958257e-02
8.5999999999999854e+00 +9.0411774922593739e+00 +0.0000000000000000e+00 +8.5999988673274945e+00 +1.0701280190025220e-02 -1.0343117355680587e+00 -5.8763099729485006e-02
8.6999999999999851e+00 +9.0410880812802983e+00 +0.0000000000000000e+00 +8.6999988273554258e+00 +1.0701173249153437e-02 -1.0343102414827641e+00 -5.8763347115166564e-02
8.7999999999999847e+00 +9.0409976367069103e+00 +0.0000000000000000e+00 +8.7999987864538678e+00 +1.0701044654910724e-02 -1.0343087702089571e+00 -5.8763619704656475e-02
8.8999999999999844e+00 +9.0409061585406896e+00 +0.0000000000000000e+00 +8.8999987446121391e+00 +1.0700896327275404e-02 -1.0343073183175460e+00 -5.8763916543191311e-02
8.9999999999999840e+00 +9.0408136467830982e+00 +0.0000000000000000e+00 +8.9999987018195586e+00 +1.0700730186310698e-02 -1.0343058823776436e+00 -5.8764236675577029e-02
9.0999999999999837e+00 +9.0407201014355802e+00 +0.0000000000000000e+00 +9.0999986580654433e+00 +1.0700548152166027e-02 -1.0343044589565107e+00 -5.8764579146175298e-02
9.1999999999999833e+00 +9.0406255224995675e+00 +0.0000000000000000e+00 +9.1999986133391118e+00 +1.0700352145078302e-02 -1.0343030446194996e+00 -5.8764942998889715e-02
9.2999999999999829e+00 +9.0405299099764846e+00 +0.0000000000000000e+00 +9.2999985676298831e+00 +1.0700144085373195e-02 -1.0343016359299988e+00 -5.8765327277152037e-02
9.3999999999999826e+00 +9.0404332638677509e+00 +0.0000000000000000e+00 +9.3999985209270758e+00 +1.0699925893466453e-02 -1.0343002294493755e+00 -5.8765731023908620e-02
9.4999999999999822e+00 +9.0403355841747803e+00 +0.0000000000000000e+00 +9.4999984732200069e+00 +1.0699699489865133e-02 -1.0342988217369198e+00 -5.8766153281606469e-02
9.5999999999999819e+00 +9.0402368708989922e+00 +0.0000000000000000e+00 +9.5999984244979952e+00 +1.0699466795168906e-02 -1.0342974093497874e+00 -5.8766593092179721e-02
9.6999999999999815e+00 +9.0401371240418076e+00 +0.0000000000000000e+00 +9.6999983747503595e+00 +1.0699229730071284e-02 -1.0342959888429446e+00 -5.8767049497035748e-02
9.7999999999999812e+00 +9.0400363436046582e+00 +0.0000000000000000e+00 +9.7999983239664186e+00 +1.0698990215360912e-02 -1.0342945567691100e+00 -5.8767521537041581e-02
9.8999999999999808e+00 +9.0399345295889848e+00 +0.0000000000000000e+00 +9.8999982721354911e+00 +1.0698750171922797e-02 -1.0342931096787003e+00 -5.8768008252510051e-02
9.9999999999999805e+00 +9.0398316819962456e+00 +0.0000000000000000e+00 +9.9999982192468959e+00 +1.0698511520739550e-02 -1.0342916441197725e+00 -5.8768508683186220e-02
1.0099999999999980e+01 +9.0397278008279169e+00 +0.0000000000000000e+00 +1.0099998165289950e+01 +1.0698276182892638e-02 -1.0342901566379679e+00 -5.8769021868233469e-02
1.0199999999999980e+01 +9.0396228860854961e+00 +0.0000000000000000e+00 +1.0199998110253974e+01 +1.0698046079563595e-02 -1.0342886437764556e+00 -5.8769546846219968e-02
1.0299999999999979e+01 +9.0395169377705056e+00 +0.0000000000000000e+00 +1.0299998054128286e+01 +1.0697823132035258e-02 -1.0342871020758770e+00 -5.8770082655104819e-02
1.0399999999999979e+01 +9.0394099558844978e+00 +0.0000000000000000e+00 +1.0399997996902206e+01 +1.0697609261692977e-02 -1.0342855280742882e+00 -5.8770628332224434e-02
1.0499999999999979e+01 +9.0393019404290573e+00 +0.0000000000000000e+00 +1.0499997938565050e+01 +1.0697406390025829e-02 -1.0342839183071044e+00 -5.8771182914278686e-02
1.0599999999999978e+01 +9.0391928914058060e+00 +0.0000000000000000e+00 +1.0599997879106141e+01 +1.0697215958483386e-02 -1.0342822705492611e+00 -5.8771745429715257e-02
1.0699999999999978e+01 +9.0390828088164010e+00 +0.0000000000000000e+00 +1.0699997818514795e+01 +1.0697037487871637e-02 -1.0342805875436794e+00 -5.8772314876225071e-02
1.0799999999999978e+01 +9.0389716926625354e+00 +0.0000000000000000e+00 +1.0799997756780332e+01 +1.0696870018752139e-02 -1.0342788732771890e+00 -5.8772890244102712e-02
1.0899999999999977e+01 +9.0388595429459340e+00 +0.0000000000000000e+00 +1.0899997693892072e+01 +1.0696712591630320e-02 -1.0342771317385957e+00 -5.8773470523936326e-02
1.0999999999999977e+01 +9.0387463596683482e+00 +0.0000000000000000e+00 +1.0999997629839335e+01 +1.0696564246953127e-02 -1.0342753669187352e+00 -5.8774054706616452e-02
1.1099999999999977e+01 +9.0386321428315544e+00 +0.0000000000000000e+00 +1.1099997564611440e+01 +1.0696424025106616e-02 -1.0342735828105227e+00 -5.8774641783344593e-02
1.1199999999999976e+01 +9.0385168924373467e+00 +0.0000000000000000e+00 +1.1199997498197707e+01 +1.0696290966413648e-02 -1.0342717834090125e+00 -5.8775230745642032e-02
1.1299999999999976e+01 +9.0384006084875352e+00 +0.0000000000000000e+00 +1.1299997430587455e+01 +1.0696164111131473e-02 -1.0342699727114466e+00 -5.8775820585358490e-02
1.1399999999999975e+01 +9.0382832909839408e+00 +0.0000000000000000e+00 +1.1399997361770003e+01 +1.0696042499449374e-02 -1.0342681547173089e+00 -5.8776410294680705e-02
1.1499999999999975e+01 +9.0381649399283930e+00 +0.0000000000000000e+00 +1.1499997291734672e+01 +1.0695925171486350e-02 -1.0342663334283813e+00 -5.8776998866141350e-02
1.1599999999999975e+01 +9.0380455553227250e+00 +0.0000000000000000e+00 +1.1599997220470781e+01 +1.0695811167288719e-02 -1.0342645128487917e+00 -5.8777585292627520e-02
1.1699999999999974e+01 +9.0379251371687666e+00 +0.0000000000000000e+00 +1.1699997147967650e+01 +1.0695699526827782e-02 -1.0342626969850723e+00 -5.8778168567389565e-02
1.1799999999999974e+01 +9.0378036854683472e+00 +0.0000000000000000e+00 +1.1799997074214600e+01 +1.0695589289997486e-02 -1.0342608898462105e+00 -5.8778747684049754e-02
