# field on trajectory
# s[mm] rx[mm] ry[mm] rz[mm] bx[T] by[T] bz[T]
0.0000000000000000e+00 +9.1013000000000002e+00 +0.0000000000000000e+00 +0.0000000000000000e+00 +3.9639288385698787e-02 -7.4244855342443461e-01 +4.1235829930665515e-03
1.0000000000000001e-01 +9.1012994846869724e+00 +0.0000000000000000e+00 +9.9999999998229686e-02 +3.9638671313193617e-02 -7.4244816913230960e-01 +4.1236384109404984e-03
2.0000000000000001e-01 +9.1012979387482407e+00 +0.0000000000000000e+00 +1.9999999998583745e-01 +3.9638067863634191e-02 -7.4244780074161498e-01 +4.1236978036987707e-03
3.0000000000000004e-01 +9.1012953621843167e+00 +0.0000000000000000e+00 +2.9999999995220150e-01 +3.9637478104741650e-02 -7.4244744812302710e-01 +4.1237609198040096e-03
4.0000000000000002e-01 +9.1012917549956907e+00 +0.0000000000000000e+00 +3.9999999988669988e-01 +3.9636902104232367e-02 -7.4244711114725781e-01 +4.1238275077226487e-03
5.0000000000000000e-01 +9.1012871171828298e+00 +0.0000000000000000e+00 +4.9999999977871079e-01 +3.9636339929819124e-02 -7.4244678968505184e-01 +4.1238973159226115e-03
5.9999999999999998e-01 +9.1012814487461817e+00 +0.0000000000000000e+00 +5.9999999961761230e-01 +3.9635791649212306e-02 -7.4244648360718957e-01 +4.1239700928710470e-03
6.9999999999999996e-01 +9.1012747496861710e+00 +0.0000000000000000e+00 +6.9999999939278268e-01 +3.9635257330121132e-02 -7.4244619278448121e-01 +4.1240455870320217e-03
7.9999999999999993e-01 +9.1012670200032026e+00 +0.0000000000000000e+00 +7.9999999909360009e-01 +3.9634737040254886e-02 -7.4244591708776997e-01 +4.1241235468642582e-03
8.9999999999999991e-01 +9.1012582596976603e+00 +0.0000000000000000e+00 +8.9999999870944269e-01 +3.9634230847324037e-02 -7.4244565638792837e-01 +4.1242037208188212e-03
9.9999999999999989e-01 +9.1012484687699065e+00 +0.0000000000000000e+00 +9.9999999822968877e-01 +3.9633738819041579e-02 -7.4244541055585844e-01 +4.1242858573368544e-03
1.0999999999999999e+00 +9.1012376472202838e+00 +0.0000000000000000e+00 +1.0999999976437165e+00 +3.9633261023124144e-02 -7.4244517946249011e-01 +4.1243697048472874e-03
1.2000000000000000e+00 +9.1012257950491140e+00 +0.0000000000000000e+00 +1.1999999969409041e+00 +3.9632797527293206e-02 -7.4244496297878126e-01 +4.1244550117645416e-03
1.3000000000000000e+00 +9.1012129122567007e+00 +0.0000000000000000e+00 +1.2999999961106299e+00 +3.9632348399276346e-02 -7.4244476097571521e-01 +4.1245415264862563e-03
1.4000000000000001e+00 +9.1011989988433228e+00 +0.0000000000000000e+00 +1.3999999951422719e+00 +3.9631913706808394e-02 -7.4244457332430014e-01 +4.1246289973909892e-03
1.5000000000000002e+00 +9.1011840548092433e+00 +0.0000000000000000e+00 +1.4999999940252084e+00 +3.9631493517632767e-02 -7.4244439989556954e-01 +4.1247171728359452e-03
1.6000000000000003e+00 +9.1011680801547055e+00 +0.0000000000000000e+00 +1.5999999927488180e+00 +3.9631087899502496e-02 -7.4244424056057956e-01 +4.1248058011546778e-03
1.7000000000000004e+00 +9.1011510748799314e+00 +0.0000000000000000e+00 +1.6999999913024786e+00 +3.9630696920181570e-02 -7.4244409519040733e-01 +4.1248946306548014e-03
1.8000000000000005e+00 +9.1011330389851253e+00 +0.0000000000000000e+00 +1.7999999896755685e+00 +3.9630320647446086e-02 -7.4244396365615306e-01 +4.1249834096157194e-03
1.9000000000000006e+00 +9.1011139724704702e+00 +0.0000000000000000e+00 +1.8999999878574660e+00 +3.9629959149085507e-02 -7.4244384582893597e-01 +4.1250718862863205e-03
2.0000000000000004e+00 +9.1010938753361330e+00 +0.0000000000000000e+00 +1.9999999858375495e+00 +3.9629612492903782e-02 -7.4244374157989401e-01 +4.1251598088827019e-03
2.1000000000000005e+00 +9.1010727475822595e+00 +0.0000000000000000e+00 +2.0999999836051968e+00 +3.9629280738836613e-02 -7.4244365080179353e-01 +4.1252469598131152e-03
2.2000000000000006e+00 +9.1010505892089792e+00 +0.0000000000000000e+00 +2.1999999811497868e+00 +3.9628963915296328e-02 -7.4244357347385359e-01 +4.1253332583701188e-03
2.3000000000000007e+00 +9.1010274002164007e+00 +0.0000000000000000e+00 +2.2999999784606975e+00 +3.9628662042817751e-02 -7.4244350959691485e-01 +4.1254186580706731e-03
2.4000000000000008e+00 +9.1010031806046161e+00 +0.0000000000000000e+00 +2.3999999755273067e+00 +3.9628375141941001e-02 -7.4244345917182908e-01 +4.1255031124339397e-03
2.5000000000000009e+00 +9.1009779303736984e+00 +0.0000000000000000e+00 +2.4999999723389932e+00 +3.9628103233211406e-02 -7.4244342219945614e-01 +4.1255865749834086e-03
2.6000000000000010e+00 +9.1009516495237008e+00 +0.0000000000000000e+00 +2.5999999688851352e+00 +3.9627846337179216e-02 -7.4244339868066445e-01 +4.1256689992490306e-03
2.7000000000000011e+00 +9.1009243380546589e+00 +0.0000000000000000e+00 +2.6999999651551110e+00 +3.9627604474399516e-02 -7.4244338861632830e-01 +4.1257503387693382e-03
2.8000000000000012e+00 +9.1008959959665887e+00 +0.0000000000000000e+00 +2.7999999611382984e+00 +3.9627377665431923e-02 -7.4244339200732601e-01 +4.1258305470935827e-03
2.9000000000000012e+00 +9.1008666232594901e+00 +0.0000000000000000e+00 +2.8999999568240762e+00 +3.9627165930840466e-02 -7.4244340885453985e-01 +4.1259095777838621e-03
3.0000000000000013e+00 +9.1008362199333419e+00 +0.0000000000000000e+00 +2.9999999522018221e+00 +3.9626969291193352e-02 -7.4244343915885314e-01 +4.1259873844172361e-03
3.1000000000000014e+00 +9.1008047859881049e+00 +0.0000000000000000e+00 +3.0999999472609150e+00 +3.9626787767062827e-02 -7.4244348292115037e-01 +4.1260639205878830e-03
3.2000000000000015e+00 +9.1007723214237224e+00 +0.0000000000000000e+00 +3.1999999419907326e+00 +3.9626621379024896e-02 -7.4244354014231395e-01 +4.1261391399091962e-03
3.3000000000000016e+00 +9.1007388262401179e+00 +0.0000000000000000e+00 +3.2999999363806531e+00 +3.9626470147659201e-02 -7.4244361082322385e-01 +4.1262129960159448e-03
3.4000000000000017e+00 +9.1007043004371972e+00 +0.0000000000000000e+00 +3.3999999304200550e+00 +3.9626334093548807e-02 -7.4244369496475593e-01 +4.1262854425663780e-03
3.5000000000000018e+00 +9.1006687440148468e+00 +0.0000000000000000e+00 +3.4999999240983164e+00 +3.9626213237279932e-02 -7.4244379256778059e-01 +4.1263564332443721e-03
3.6000000000000019e+00 +9.1006321569729351e+00 +0.0000000000000000e+00 +3.5999999174048156e+00 +3.9626107599441962e-02 -7.4244390363316137e-01 +4.1264259217615529e-03
3.7000000000000020e+00 +9.1005945393113112e+00 +0.0000000000000000e+00 +3.6999999103289305e+00 +3.9626017200626959e-02 -7.4244402816175259e-01 +4.1264938618594330e-03
3.8000000000000020e+00 +9.1005558910298081e+00 +0.0000000000000000e+00 +3.7999999028600393e+00 +3.9625942061429720e-02 -7.4244416615439945e-01 +4.1265602073115339e-03
3.9000000000000021e+00 +9.1005162121282357e+00 +0.0000000000000000e+00 +3.8999998949875203e+00 +3.9625882202447442e-02 -7.4244431761193486e-01 +4.1266249119255210e-03
4.0000000000000018e+00 +9.1004755026063897e+00 +0.0000000000000000e+00 +3.9999998867007514e+00 +3.9625837644279571e-02 -7.4244448253517903e-01 +4.1266879295453404e-03
4.1000000000000014e+00 +9.1004337624640463e+00 +0.0000000000000000e+00 +4.0999998779891111e+00 +3.9625808369347496e-02 -7.4244466092877148e-01 +4.1267492702857346e-03
4.2000000000000011e+00 +9.1003909917009604e+00 +0.0000000000000000e+00 +4.1999998688419771e+00 +3.9625794207348845e-02 -7.4244485281261741e-01 +4.1268091692126365e-03
4.3000000000000007e+00 +9.1003471903168709e+00 +0.0000000000000000e+00 +4.2999998592487279e+00 +3.9625794949789350e-02 -7.4244505821028961e-01 +4.1268679176117463e-03
4.4000000000000004e+00 +9.1003023583114970e+00 +0.0000000000000000e+00 +4.3999998491987409e+00 +3.9625810388160966e-02 -7.4244527714517239e-01 +4.1269258067495951e-03
4.5000000000000000e+00 +9.1002564956845404e+00 +0.0000000000000000e+00 +4.4999998386813953e+00 +3.9625840313940897e-02 -7.4244550964045164e-01 +4.1269831278721225e-03
4.5999999999999996e+00 +9.1002096024356831e+00 +0.0000000000000000e+00 +4.5999998276860685e+00 +3.9625884518590553e-02 -7.4244575571910154e-01 +4.1270401722032467e-03
4.6999999999999993e+00 +9.1001616785645876e+00 +0.0000000000000000e+00 +4.6999998162021379e+00 +3.9625942793554483e-02 -7.4244601540387611e-01 +4.1270972309434455e-03
4.7999999999999989e+00 +9.1001127240709003e+00 +0.0000000000000000e+00 +4.7999998042189826e+00 +3.9626014930259357e-02 -7.4244628871729623e-01 +4.1271545952683234e-03
4.8999999999999986e+00 +9.1000627389542448e+00 +0.0000000000000000e+00 +4.8999997917259801e+00 +3.9626100720112939e-02 -7.4244657568164063e-01 +4.1272125563271925e-03
4.9999999999999982e+00 +9.1000117232142301e+00 +0.0000000000000000e+00 +4.9999997787125077e+00 +3.9626199954503012e-02 -7.4244687631893380e-01 +4.1272714052416415e-03
5.0999999999999979e+00 +9.0999596768504425e+00 +0.0000000000000000e+00 +5.0999997651679445e+00 +3.9626312424796382e-02 -7.4244719065093490e-01 +4.1273314331041122e-03
5.1999999999999975e+00 +9.0999065998624520e+00 +0.0000000000000000e+00 +5.1999997510816680e+00 +3.9626437922337818e-02 -7.4244751869912773e-01 +4.1273929309764684e-03
5.2999999999999972e+00 +9.0998524922498092e+00 +0.0000000000000000e+00 +5.2999997364430556e+00 +3.9626576238448979e-02 -7.4244786048470945e-01 +4.1274561898885752e-03
5.3999999999999968e+00 +9.0997973540120451e+00 +0.0000000000000000e+00 +5.3999997212414854e+00 +3.9626727164427472e-02 -7.4244821602857924e-01 +4.1275215008368688e-03
5.4999999999999964e+00 +9.0997411851486714e+00 +0.0000000000000000e+00 +5.4999997054663359e+00 +3.9626890491545746e-02 -7.4244858535132863e-01 +4.1275891547829218e-03
5.5999999999999961e+00 +9.0996839856591816e+00 +0.0000000000000000e+00 +5.5999996891069843e+00 +3.9627066011050031e-02 -7.4244896847322916e-01 +4.1276594426520319e-03
5.6999999999999957e+00 +9.0996257555430518e+00 +0.0000000000000000e+00 +5.6999996721528081e+00 +3.9627253514159383e-02 -7.4244936541422202e-01 +4.1277326553317761e-03
5.7999999999999954e+00 +9.0995664947997348e+00 +0.0000000000000000e+00 +5.7999996545931856e+00 +3.9627452792064595e-02 -7.4244977619390773e-01 +4.1278090836705961e-03
5.8999999999999950e+00 +9.0995062034286676e+00 +0.0000000000000000e+00 +5.8999996364174940e+00 +3.9627663635927131e-02 -7.4245020083153401e-01 +4.1278890184763568e-03
5.9999999999999947e+00 +9.0994448814292674e+00 +0.0000000000000000e+00 +5.9999996176151118e+00 +3.9627885836878152e-02 -7.4245063934598599e-01 +4.1279727505149312e-03
6.0999999999999943e+00 +9.0993825288009305e+00 +0.0000000000000000e+00 +6.0999995981754163e+00 +3.9628119141483786e-02 -7.4245109157119449e-01 +4.1280604566388043e-03
6.1999999999999940e+00 +9.0993191455430384e+00 +0.0000000000000000e+00 +6.1999995780877848e+00 +3.9628363118148421e-02 -7.4245155660259510e-01 +4.1281518582043826e-03
6.2999999999999936e+00 +9.0992547316549501e+00 +0.0000000000000000e+00 +6.2999995573415948e+00 +3.9628617290728640e-02 -7.4245203335126142e-01 +4.1282465627439828e-03
6.3999999999999932e+00 +9.0991892871360118e+00 +0.0000000000000000e+00 +6.3999995359262245e+00 +3.9628881183069592e-02 -7.4245252072855883e-01 +4.1283441778493446e-03
6.4999999999999929e+00 +9.0991228119855538e+00 +0.0000000000000000e+00 +6.4999995138310513e+00 +3.9629154319004802e-02 -7.4245301764616067e-01 +4.1284443111743261e-03
6.5999999999999925e+00 +9.0990553062028940e+00 +0.0000000000000000e+00 +6.5999994910454527e+00 +3.9629436222355978e-02 -7.4245352301606449e-01 +4.1285465704375864e-03
6.6999999999999922e+00 +9.0989867697873379e+00 +0.0000000000000000e+00 +6.6999994675588059e+00 +3.9629726416932930e-02 -7.4245403575060798e-01 +4.1286505634252988e-03
6.7999999999999918e+00 +9.0989172027381802e+00 +0.0000000000000000e+00 +6.7999994433604884e+00 +3.9630024426533454e-02 -7.4245455476248479e-01 +4.1287558979938369e-03
6.8999999999999915e+00 +9.0988466050547103e+00 +0.0000000000000000e+00 +6.8999994184398785e+00 +3.9630329774942998e-02 -7.4245507896476004e-01 +4.1288621820724722e-03
6.9999999999999911e+00 +9.0987749767362054e+00 +0.0000000000000000e+00 +6.9999993927863526e+00 +3.9630641985934668e-02 -7.4245560727088822e-01 +4.1289690236660749e-03
7.0999999999999908e+00 +9.0987023177819424e+00 +0.0000000000000000e+00 +7.0999993663892882e+00 +3.9630960583269016e-02 -7.4245613859472603e-01 +4.1290760308578074e-03
7.1999999999999904e+00 +9.0986286281911894e+00 +0.0000000000000000e+00 +7.1999993392380626e+00 +3.9631285090693941e-02 -7.4245667185055175e-01 +4.1291828118118264e-03
7.2999999999999901e+00 +9.0985539079632147e+00 +0.0000000000000000e+00 +7.2999993113220540e+00 +3.9631615031944380e-02 -7.4245720595307840e-01 +4.1292889747759692e-03
7.3999999999999897e+00 +9.0984781570972864e+00 +0.0000000000000000e+00 +7.3999992826306391e+00 +3.9631949930742323e-02 -7.4245773981747176e-01 +4.1293941280844647e-03
7.4999999999999893e+00 +9.0984013755926707e+00 +0.0000000000000000e+00 +7.4999992531531952e+00 +3.9632289310796626e-02 -7.4245827235936501e-01 +4.1294978801606225e-03
7.5999999999999890e+00 +9.0983235634486359e+00 +0.0000000000000000e+00 +7.5999992228790996e+00 +3.9632632695802736e-02 -7.4245880249487617e-01 +4.1295998395195375e-03
7.6999999999999886e+00 +9.0982447206644554e+00 +0.0000000000000000e+00 +7.6999991917977288e+00 +3.9632979609442696e-02 -7.4245932914062218e-01 +4.1296996147707852e-03
7.7999999999999883e+00 +9.0981648472394063e+00 +0.0000000000000000e+00 +7.7999991598984613e+00 +3.9633329575384853e-02 -7.4245985121373625e-01 +4.1297968146211143e-03
7.8999999999999879e+00 +9.0980839431727727e+00 +0.0000000000000000e+00 +7.8999991271706733e+00 +3.9633682117283783e-02 -7.4246036763188417e-01 +4.1298910478771581e-03
7.9999999999999876e+00 +9.0980020084638458e+00 +0.0000000000000000e+00 +7.9999990936037424e+00 +3.9634036758780140e-02 -7.4246087731327903e-01 +4.1299819234481283e-03
8.0999999999999872e+00 +9.0979190431119275e+00 +0.0000000000000000e+00 +8.0999990591870450e+00 +3.9634393081742478e-02 -7.4246137941095069e-01 +4.1300691678966073e-03
8.1999999999999869e+00 +9.0978350471163285e+00 +0.0000000000000000e+00 +8.1999990239099603e+00 +3.9634750901020102e-02 -7.4246187401535013e-01 +4.1301529780359307e-03
8.2999999999999865e+00 +9.0977500204763722e+00 +0.0000000000000000e+00 +8.2999989877618638e+00 +3.9635110089750375e-02 -7.4246236145125000e-01 +4.1302336681704171e-03
8.3999999999999861e+00 +9.0976639631913905e+00 +0.0000000000000000e+00 +8.3999989507321331e+00 +3.9635470521120326e-02 -7.4246284204343072e-01 +4.1303115525225297e-03
8.4999999999999858e+00 +9.0975768752607262e+00 +0.0000000000000000e+00 +8.4999989128101454e+00 +3.9635832068368272e-02 -7.4246331611667638e-01 +4.1303869452298256e-03
8.5999999999999854e+00 +9.0974887566837292e+00 +0.0000000000000000e+00 +8.5999988739852764e+00 +3.9636194604785693e-02 -7.4246378399577506e-01 +4.1304601603419202e-03
8.6999999999999851e+00 +9.0973996074597601e+00 +0.0000000000000000e+00 +8.6999988342469052e+00 +3.9636558003718875e-02 -7.4246424600551664e-01 +4.1305315118174302e-03
8.7999999999999847e+00 +9.0973094275881881e+00 +0.0000000000000000e+00 +8.7999987935844075e+00 +3.9636922138570702e-02 -7.4246470247069007e-01 +4.1306013135209525e-03
8.8999999999999844e+00 +9.0972182170683880e+00 +0.0000000000000000e+00 +8.8999987519871624e+00 +3.9637286882802394e-02 -7.4246515371608213e-01 +4.1306698792200032e-03
8.9999999999999840e+00 +9.0971259758997416e+00 +0.0000000000000000e+00 +8.9999987094445455e+00 +3.9637652109935285e-02 -7.4246560006647633e-01 +4.1307375225819887e-03
9.0999999999999837e+00 +9.0970327040816414e+00 +0.0000000000000000e+00 +9.0999986659459324e+00 +3.9638017693552463e-02 -7.4246604184664911e-01 +4.1308045571711522e-03
9.1999999999999833e+00 +9.0969384016134835e+00 +0.0000000000000000e+00 +9.1999986214807024e+00 +3.9638383507300631e-02 -7.4246647938137023e-01 +4.1308712964455412e-03
9.2999999999999829e+00 +9.0968430684946693e+00 +0.0000000000000000e+00 +9.2999985760382309e+00 +3.9638749424891789e-02 -7.4246691299539946e-01 +4.1309380537539594e-03
9.3999999999999826e+00 +9.0967467047246071e+00 +0.0000000000000000e+00 +9.3999985296078972e+00 +3.9639115320105008e-02 -7.4246734301348505e-01 +4.1310051423329329e-03
9.4999999999999822e+00 +9.0966493103027108e+00 +0.0000000000000000e+00 +9.4999984821790768e+00 +3.9639481066788114e-02 -7.4246776976036177e-01 +4.1310728753036572e-03
9.5999999999999819e+00 +9.0965508852283996e+00 +0.0000000000000000e+00 +9.5999984337411455e+00 +3.9639846538859595e-02 -7.4246819356075011e-01 +4.1311415656689740e-03
9.6999999999999815e+00 +9.0964514295010943e+00 +0.0000000000000000e+00 +9.6999983842834823e+00 +3.9640211610310117e-02 -7.4246861473935299e-01 +4.1312115263103097e-03
9.7999999999999812e+00 +9.0963509431202212e+00 +0.0000000000000000e+00 +9.7999983337954628e+00 +3.9640576155204478e-02 -7.4246903362085415e-01 +4.1312830699846547e-03
9.8999999999999808e+00 +9.0962494260852083e+00 +0.0000000000000000e+00 +9.8999982822664645e+00 +3.9640940047683274e-02 -7.4246945052991797e-01 +4.1313565093215061e-03
9.9999999999999805e+00 +9.0961468783954889e+00 +0.0000000000000000e+00 +9.9999982296858647e+00 +3.9641303161964604e-02 -7.4246986579118479e-01 +4.1314321568198418e-03
1.0099999999999980e+01 +9.0960433000504963e+00 +0.0000000000000000e+00 +1.0099998176043041e+01 +3.9641665370095273e-02 -7.4247027961653633e-01 +4.1315102410700820e-03
1.0199999999999980e+01 +9.0959386910496676e+00 +0.0000000000000000e+00 +1.0199998121327368e+01 +3.9642026535157894e-02 -7.4247069176680347e-01 +4.1315906554653435e-03
1.0299999999999979e+01 +9.0958330513924412e+00 +0.0000000000000000e+00 +1.0299998065528225e+01 +3.9642386517949706e-02 -7.4247110188987386e-01 +4.1316732096339679e-03
1.0399999999999979e+01 +9.0957263810782614e+00 +0.0000000000000000e+00 +1.0399998008634986e+01 +3.9642745179221651e-02 -7.4247150963341835e-01 +4.1317577132386476e-03
1.0499999999999979e+01 +9.0956186801065719e+00 +0.0000000000000000e+00 +1.0499997950637031e+01 +3.9643102379677046e-02 -7.4247191464488382e-01 +4.1318439759775597e-03
1.0599999999999978e+01 +9.0955099484768223e+00 +0.0000000000000000e+00 +1.0599997891523735e+01 +3.9643457979970195e-02 -7.4247231657148671e-01 +4.1319318075855377e-03
1.0699999999999978e+01 +9.0954001861884652e+00 +0.0000000000000000e+00 +1.0699997831284474e+01 +3.9643811840704972e-02 -7.4247271506020884e-01 +4.1320210178352277e-03
1.0799999999999978e+01 +9.0952893932409591e+00 +0.0000000000000000e+00 +1.0799997769908627e+01 +3.9644163822433437e-02 -7.4247310975778880e-01 +4.1321114165382405e-03
1.0899999999999977e+01 +9.0951775696337691e+00 +0.0000000000000000e+00 +1.0899997707385570e+01 +3.9644513785654548e-02 -7.4247350031071591e-01 +4.1322028135463065e-03
1.0999999999999977e+01 +9.0950647153663642e+00 +0.0000000000000000e+00 +1.0999997643704678e+01 +3.9644861590812673e-02 -7.4247388636522638e-01 +4.1322950187524434e-03
1.1099999999999977e+01 +9.0949508304382221e+00 +0.0000000000000000e+00 +1.1099997578855330e+01 +3.9645207098296199e-02 -7.4247426756729329e-01 +4.1323878420920883e-03
1.1199999999999976e+01 +9.0948359148488240e+00 +0.0000000000000000e+00 +1.1199997512826902e+01 +3.9645550168436267e-02 -7.4247464356262283e-01 +4.1324810935442725e-03
1.1299999999999976e+01 +9.0947199685976621e+00 +0.0000000000000000e+00 +1.1299997445608771e+01 +3.9645890661505277e-02 -7.4247501399664850e-01 +4.1325745831327608e-03
1.1399999999999975e+01 +9.0946029916842317e+00 +0.0000000000000000e+00 +1.1399997377190314e+01 +3.9646228437715522e-02 -7.4247537851452206e-01 +4.1326681209272074e-03
1.1499999999999975e+01 +9.0944849841080408e+00 +0.0000000000000000e+00 +1.1499997307560907e+01 +3.9646563357217869e-02 -7.4247573676111034e-01 +4.1327615170443088e-03
1.1599999999999975e+01 +9.0943659458686064e+00 +0.0000000000000000e+00 +1.1599997236709926e+01 +3.9646895280100306e-02 -7.4247608838098644e-01 +4.1328545816489478e-03
1.1699999999999974e+01 +9.0942458769654504e+00 +0.0000000000000000e+00 +1.1699997164626751e+01 +3.9647224066386551e-02 -7.4247643301842581e-01 +4.1329471249553478e-03
1.1799999999999974e+01 +9.0941247773981075e+00 +0.0000000000000000e+00 +1.1799997091300755e+01 +3.9647549576034773e-02 -7.4247677031739812e-01 +4.1330389572282224e-03
