# multipoles
# s[mm] polynom_b[n=0][T/m^n] polynom_b[n=1][T/m^n] polynom_b[n=2][T/m^n] polynom_b[n=3][T/m^n] polynom_b[n=4][T/m^n] polynom_b[n=5][T/m^n] polynom_b[n=6][T/m^n] 
+0.0000000000000000e+00 -7.4245494390156663e-01 +1.6461558192436838e+00 +1.3137311311086858e+01 +1.1520764961925642e+02 +2.5022380187233426e+04 -8.7281885863408956e+04 -8.9619899978514493e+07 
+1.0000000000000001e-01 -7.4245455422933571e-01 +1.6461390728460157e+00 +1.3134965655267164e+01 +1.1544784297633123e+02 +2.5080182342199496e+04 -8.8888769367367582e+04 -8.9892551528227970e+07 
+2.0000000000000001e-01 -7.4245418115248685e-01 +1.6461209958360266e+00 +1.3133006798052156e+01 +1.1573854709130087e+02 +2.5132393140340140e+04 -9.0750464320553190e+04 -9.0143651691818178e+07 
+3.0000000000000004e-01 -7.4245382454022824e-01 +1.6461017669039477e+00 +1.3131414726271418e+01 +1.1607483273785208e+02 +2.5179280500820998e+04 -9.2840574267341392e+04 -9.0374384722812429e+07 
+4.0000000000000002e-01 -7.4245348426181224e-01 +1.6460815647414606e+00 +1.3130169432572744e+01 +1.1645177061460917e+02 +2.5221112222179345e+04 -9.5132702183249887e+04 -9.0585934262891814e+07 
+5.0000000000000000e-01 -7.4245316018645613e-01 +1.6460605680288249e+00 +1.3129250905687071e+01 +1.1686443177179882e+02 +2.5258156164915450e+04 -9.7600453112334391e+04 -9.0779484204133004e+07 
+5.9999999999999998e-01 -7.4245285218339596e-01 +1.6460389554473012e+00 +1.3128639136003573e+01 +1.1730788723090083e+02 +2.5290680154105219e+04 -1.0021743189001414e+05 -9.0956218247980163e+07 
+6.9999999999999996e-01 -7.4245256012186467e-01 +1.6460169056740133e+00 +1.3128314114086097e+01 +1.1777720812908262e+02 +2.5318951999147535e+04 -1.0295724397273423e+05 -9.1117319979081839e+07 
+7.9999999999999993e-01 -7.4245228387111273e-01 +1.6459945973851282e+00 +1.3128255832538228e+01 +1.1826746566454857e+02 +2.5343239465460159e+04 -1.0579349522420047e+05 -9.1263972749096423e+07 
+8.9999999999999991e-01 -7.4245202330037685e-01 +1.6459722092477838e+00 +1.3128444281752905e+01 +1.1877373129921379e+02 +2.5363810355796417e+04 -1.0869979300806423e+05 -9.1397360066341057e+07 
+9.9999999999999989e-01 -7.4245177827894049e-01 +1.6459499199304670e+00 +1.3128859458330142e+01 +1.1929107648021539e+02 +2.5380932346935144e+04 -1.1164974461934090e+05 -9.1518664809855983e+07 
+1.0999999999999999e+00 -7.4245154867607432e-01 +1.6459279080998441e+00 +1.3129481357040849e+01 +1.1981457274012594e+02 +2.5394873144275571e+04 -1.1461695790289096e+05 -9.1629069970404223e+07 
+1.2000000000000000e+00 -7.4245133436106847e-01 +1.6459063524151443e+00 +1.3130289974755906e+01 +1.2033929185698945e+02 +2.5405900411235973e+04 -1.1757504217009064e+05 -9.1729758326855496e+07 
+1.3000000000000000e+00 -7.4245113520326667e-01 +1.6458854315360423e+00 +1.3131265315218210e+01 +1.2086030563031231e+02 +2.5414281673359983e+04 -1.2049760690124339e+05 -9.1821911975476429e+07 
+1.4000000000000001e+00 -7.4245095107199299e-01 +1.6458653241168824e+00 +1.3132387379028224e+01 +1.2137268605711715e+02 +2.5420284517111882e+04 -1.2335826280614540e+05 -9.1906713300939575e+07 
+1.5000000000000002e+00 -7.4245078183662749e-01 +1.6458462088126093e+00 +1.3133636173914510e+01 +1.2187150515819781e+02 +2.5424176386387921e+04 -1.2613062079130521e+05 -9.1985343982985109e+07 
+1.6000000000000003e+00 -7.4245062736654888e-01 +1.6458282642741020e+00 +1.3134991706941864e+01 +1.2235183512498263e+02 +2.5426224738934794e+04 -1.2878829286188392e+05 -9.2058985767930686e+07 
+1.7000000000000004e+00 -7.4245048753120613e-01 +1.6458116691477689e+00 +1.3136433993855148e+01 +1.2280874833615292e+02 +2.5426696863250978e+04 -1.3130489221732540e+05 -9.2128819579606608e+07 
+1.8000000000000005e+00 -7.4245036220005078e-01 +1.6457966020813632e+00 +1.3137943050117464e+01 +1.2323731718394096e+02 +2.5425860056076875e+04 -1.3365403223426448e+05 -9.2196026386047706e+07 
+1.9000000000000006e+00 -7.4245025124258268e-01 +1.6457832417161835e+00 +1.3139498896922063e+01 +1.2363261431944323e+02 +2.5423981503575589e+04 -1.3580932794439702e+05 -9.2261786621318310e+07 
+2.0000000000000004e+00 -7.4245015452833474e-01 +1.6457717666963425e+00 +1.3141081559614964e+01 +1.2398971237095708e+02 +2.5421328311043708e+04 -1.3774439434738114e+05 -9.2327280325968444e+07 
+2.1000000000000005e+00 -7.4245007192001744e-01 +1.6457623210898278e+00 +1.3142672327422018e+01 +1.2430433678251130e+02 +2.5418138828260522e+04 -1.3943632527963704e+05 -9.2393405851271778e+07 
+2.2000000000000006e+00 -7.4245000324320076e-01 +1.6457549087101038e+00 +1.3144257016848211e+01 +1.2457490241053557e+02 +2.5414548083296140e+04 -1.4087707278431643e+05 -9.2459984653904289e+07 
+2.3000000000000007e+00 -7.4244994831169786e-01 +1.6457494978044755e+00 +1.3145822443784336e+01 +1.2480051625556383e+02 +2.5410668170962970e+04 -1.4206254329443426e+05 -9.2526580512867630e+07 
+2.4000000000000008e+00 -7.4244990693931601e-01 +1.6457460566339797e+00 +1.3147355422820464e+01 +1.2498028488857381e+02 +2.5406611224130142e+04 -1.4298864078735563e+05 -9.2592757441181794e+07 
+2.5000000000000009e+00 -7.4244987893988756e-01 +1.6457445534690820e+00 +1.3148842772030273e+01 +1.2511331458629509e+02 +2.5402489319369091e+04 -1.4365126759952310e+05 -9.2658079231876820e+07 
+2.6000000000000010e+00 -7.4244986412723024e-01 +1.6457449565902744e+00 +1.3150271306998782e+01 +1.2519871128091492e+02 +2.5398414598267005e+04 -1.4404632406188449e+05 -9.2722110058649272e+07 
+2.7000000000000011e+00 -7.4244986231518029e-01 +1.6457472342929871e+00 +1.3151627845753479e+01 +1.2523558043716402e+02 +2.5394499168975533e+04 -1.4416970785871087e+05 -9.2784413996314809e+07 
+2.8000000000000012e+00 -7.4244987331756462e-01 +1.6457513548814413e+00 +1.3152899205065829e+01 +1.2522302720284463e+02 +2.5390855180871404e+04 -1.4401731483584404e+05 -9.2844555391281351e+07 
+2.9000000000000012e+00 -7.4244989694823738e-01 +1.6457572866748034e+00 +1.3154072204762905e+01 +1.2516015624225278e+02 +2.5387594745219722e+04 -1.4358503808312170e+05 -9.2902098492897466e+07 
+3.0000000000000013e+00 -7.4244993302103712e-01 +1.6457649980085955e+00 +1.3155133662977610e+01 +1.2504607167456544e+02 +2.5384830022676448e+04 -1.4286876753745970e+05 -9.2956607864843130e+07 
+3.1000000000000014e+00 -7.4244998134978457e-01 +1.6457744572379391e+00 +1.3156070395177091e+01 +1.2487987697872752e+02 +2.5382673248719799e+04 -1.4186438943975573e+05 -9.3007648528415114e+07 
+3.2000000000000015e+00 -7.4245004174833407e-01 +1.6457856327300675e+00 +1.3156869220852883e+01 +1.2466067519929814e+02 +2.5381236604312686e+04 -1.4056778751608444e+05 -9.3054785340669289e+07 
+3.3000000000000016e+00 -7.4245011403049810e-01 +1.6457984928750207e+00 +1.3157516954544317e+01 +1.2438756863943706e+02 +2.5380632388094429e+04 -1.3897484122228762e+05 -9.3097583824891701e+07 
+3.4000000000000017e+00 -7.4245019801011936e-01 +1.6458130060800802e+00 +1.3158000414112131e+01 +1.2405965900700099e+02 +2.5380972862540402e+04 -1.3708142656041493e+05 -9.3135609446687207e+07 
+3.5000000000000018e+00 -7.4245029350101188e-01 +1.6458291407743237e+00 +1.3158306414031891e+01 +1.2367604728263774e+02 +2.5382370380006072e+04 -1.3488341533331183e+05 -9.3168428213132262e+07 
+3.6000000000000019e+00 -7.4245040031699361e-01 +1.6458468654115854e+00 +1.3158421768895254e+01 +1.2323583361248600e+02 +2.5384937320999372e+04 -1.3237667447511575e+05 -9.3195606395464838e+07 
+3.7000000000000020e+00 -7.4245051827185415e-01 +1.6458661484663648e+00 +1.3158333290050576e+01 +1.2273811744207551e+02 +2.5388786155969963e+04 -1.2955706688537898e+05 -9.3216710819382936e+07 
+3.8000000000000020e+00 -7.4245064717940912e-01 +1.6458869584359270e+00 +1.3158027791610012e+01 +1.2218199743322518e+02 +2.5394029336403953e+04 -1.2642045090934365e+05 -9.3231308362865865e+07 
+3.9000000000000021e+00 -7.4245078685341925e-01 +1.6459092638480883e+00 +1.3157492080852894e+01 +1.2156657123320146e+02 +2.5400779477306471e+04 -1.2296267898603971e+05 -9.3238966828726187e+07 
+4.0000000000000018e+00 -7.4245093710765842e-01 +1.6459330332508750e+00 +1.3156712966881312e+01 +1.2089093580179274e+02 +2.5409149193630787e+04 -1.1917959965866683e+05 -9.3239254173425704e+07 
+4.1000000000000014e+00 -7.4245109781908758e-01 +1.6459582016071501e+00 +1.3155682166142290e+01 +1.2015571588011616e+02 +2.5419247960476976e+04 -1.1507571044690651e+05 -9.3232142408344120e+07 
+4.2000000000000011e+00 -7.4245126912087711e-01 +1.6459845770695585e+00 +1.3154413127273903e+01 +1.1936712091189929e+02 +2.5431090489159124e+04 -1.1068536208997056e+05 -9.3218772319885671e+07 
+4.3000000000000007e+00 -7.4245145121167855e-01 +1.6460119376617639e+00 +1.3152925317895994e+01 +1.1853263853473767e+02 +2.5444647121375521e+04 -1.0604924358036947e+05 -9.3200470916598886e+07 
+4.4000000000000004e+00 -7.4245164429011890e-01 +1.6460400613911974e+00 +1.3151238202983194e+01 +1.1765975682365044e+02 +2.5459888230035096e+04 -1.0120804587882725e+05 -9.3178565291699901e+07 
+4.5000000000000000e+00 -7.4245184855477064e-01 +1.6460687262459401e+00 +1.3149371241289893e+01 +1.1675596441255465e+02 +2.5476784285356691e+04 -9.6202462867054637e+04 -9.3154382916106537e+07 
+4.5999999999999996e+00 -7.4245206420417054e-01 +1.6460977101975771e+00 +1.3147343887156174e+01 +1.1582875040794892e+02 +2.5495305819391539e+04 -9.1073190799442920e+04 -9.3129251460236982e+07 
+4.6999999999999993e+00 -7.4245229143678637e-01 +1.6461267911983535e+00 +1.3145175586819574e+01 +1.1488560447769268e+02 +2.5515423496881063e+04 -8.5860928818844361e+04 -9.3104499135886088e+07 
+4.7999999999999989e+00 -7.4245253045104032e-01 +1.6461557471800279e+00 +1.3142885781499459e+01 +1.1393401687193141e+02 +2.5537108047831985e+04 -8.0606379012593534e+04 -9.3081454342843518e+07 
+4.8999999999999986e+00 -7.4245278144531024e-01 +1.6461843560490597e+00 +1.3140493907249851e+01 +1.1298147858199725e+02 +2.5560330274086253e+04 -7.5350247366052965e+04 -9.3061445711166501e+07 
+4.9999999999999982e+00 -7.4245304461788564e-01 +1.6462123956896204e+00 +1.3138019389541356e+01 +1.1203548124744553e+02 +2.5585061150856374e+04 -7.0133243191245652e+04 -9.3045802577300996e+07 
+5.0999999999999979e+00 -7.4245332016702448e-01 +1.6462396439619396e+00 +1.3135481650676621e+01 +1.1110351720156977e+02 +2.5611271679161702e+04 -6.4996079342843914e+04 -9.3035854260047957e+07 
+5.1999999999999975e+00 -7.4245360829089035e-01 +1.6462658786985216e+00 +1.3132900101430016e+01 +1.1019307958192890e+02 +2.5638933049081912e+04 -5.9979472850647828e+04 -9.3032930847525418e+07 
+5.2999999999999972e+00 -7.4245390918761001e-01 +1.6462908776983785e+00 +1.3130294148781525e+01 +1.0931166252113351e+02 +2.5668016485377553e+04 -5.5124146070028837e+04 -9.3038362438034311e+07 
+5.3999999999999968e+00 -7.4245422305520037e-01 +1.6463144187410725e+00 +1.3127683186863052e+01 +1.0846676070349551e+02 +2.5698493419501981e+04 -5.0470823967034557e+04 -9.3053479958319798e+07 
+5.4999999999999964e+00 -7.4245455009165851e-01 +1.6463362795652112e+00 +1.3125086607404013e+01 +1.0766587002626400e+02 +2.5730335292852738e+04 -4.6060238054576177e+04 -9.3079614226364031e+07 
+5.5999999999999961e+00 -7.4245489049484559e-01 +1.6463562378808871e+00 +1.3122523786332181e+01 +1.0691648721567259e+02 +2.5763513803701491e+04 -4.1933124064184733e+04 -9.3118097104516968e+07 
+5.6999999999999957e+00 -7.4245524446258859e-01 +1.6463740713640198e+00 +1.3120014096174460e+01 +1.0622611000741382e+02 +2.5798000672404556e+04 -3.8130223018376433e+04 -9.3170260382374793e+07 
+5.7999999999999954e+00 -7.4245561219261325e-01 +1.6463895576557741e+00 +1.3117576896815223e+01 +1.0560223716507006e+02 +2.5833767819011340e+04 -3.4692281317618421e+04 -9.3237436622294843e+07 
+5.8999999999999950e+00 -7.4245599388255989e-01 +1.6464024743566701e+00 +1.3115231538995113e+01 +1.0505236863350325e+02 +2.5870787286694387e+04 -3.1660051553430170e+04 -9.3320958766408697e+07 
+5.9999999999999947e+00 -7.4245638973000294e-01 +1.6464125990353411e+00 +1.3112997366208443e+01 +1.0458400525150081e+02 +2.5909031200119785e+04 -2.9074290605260860e+04 -9.3422159902553171e+07 
+6.0999999999999943e+00 -7.4245679974995571e-01 +1.6464197827828617e+00 +1.3110892321795170e+01 +1.0420239486469855e+02 +2.5948396111997175e+04 -2.6962950075746765e+04 -9.3541662932791665e+07 
+6.1999999999999940e+00 -7.4245722326799113e-01 +1.6464241446507710e+00 +1.3108929323150518e+01 +1.0390466542947777e+02 +2.5988517953194551e+04 -2.5309404191179117e+04 -9.3677558069918945e+07 
+6.2999999999999936e+00 -7.4245765944687836e-01 +1.6464258646187155e+00 +1.3107120200212524e+01 +1.0368611667179096e+02 +2.6028975823886798e+04 -2.4087429823649189e+04 -9.3827358942750961e+07 
+6.3999999999999932e+00 -7.4245810744947771e-01 +1.6464251226614239e+00 +1.3105476794936397e+01 +1.0354204865383301e+02 +2.6069348580182199e+04 -2.3270806927017369e+04 -9.3988577919983938e+07 
+6.4999999999999929e+00 -7.4245856643870212e-01 +1.6464220987448521e+00 +1.3104010955730818e+01 +1.0346776185079551e+02 +2.6109214945160536e+04 -2.2833318533249047e+04 -9.4158726684479177e+07 
+6.5999999999999925e+00 -7.4245903557754678e-01 +1.6464169728314997e+00 +1.3102734541695678e+01 +1.0345855702332311e+02 +2.6148153425669003e+04 -2.2748750102799913e+04 -9.4335315830574676e+07 
+6.6999999999999922e+00 -7.4245951402905719e-01 +1.6464099248793855e+00 +1.3101659418435837e+01 +1.0350973523812409e+02 +2.6185742391896187e+04 -2.2990889634611322e+04 -9.4515855241981551e+07 
+6.7999999999999918e+00 -7.4246000095635545e-01 +1.6464011348399095e+00 +1.3100797461036874e+01 +1.0361659794480344e+02 +2.6221560022861300e+04 -2.3533528168312769e+04 -9.4697853836614639e+07 
+6.8999999999999915e+00 -7.4246049552265259e-01 +1.6463907826572743e+00 +1.3100160556110758e+01 +1.0377444700546104e+02 +2.6255184264646457e+04 -2.4350460005374578e+04 -9.4878819360770330e+07 
+6.9999999999999911e+00 -7.4246099689124923e-01 +1.6463790482750307e+00 +1.3099760601710496e+01 +1.0397858449723665e+02 +2.6286192831914981e+04 -2.5415481554276299e+04 -9.5056258394246116e+07 
+7.0999999999999908e+00 -7.4246150422549839e-01 +1.6463661116277830e+00 +1.3099609502522872e+01 +1.0422431296574045e+02 +2.6314163302688008e+04 -2.6702392859562733e+04 -9.5227676812587991e+07 
+7.1999999999999904e+00 -7.4246201668886413e-01 +1.6463521526470966e+00 +1.3099719177225657e+01 +1.0450693526773055e+02 +2.6338672974300294e+04 -2.8184996729847771e+04 -9.5390579085441127e+07 
+7.2999999999999901e+00 -7.4246253344488700e-01 +1.6463373512585342e+00 +1.3100101554327122e+01 +1.0482175465988296e+02 +2.6359298944337505e+04 -2.9837099290484490e+04 -9.5542468670361236e+07 
+7.3999999999999897e+00 -7.4246305365722964e-01 +1.6463218873827898e+00 +1.3100768577664700e+01 +1.0516407476715501e+02 +2.6375618006152301e+04 -3.1632509806717666e+04 -9.5680847512765825e+07 
+7.4999999999999893e+00 -7.4246357648961503e-01 +1.6463059409349701e+00 +1.3101732199346507e+01 +1.0552919961564078e+02 +2.6387206778462380e+04 -3.3545040925267385e+04 -9.5803216651235744e+07 
+7.5999999999999890e+00 -7.4246410110589778e-01 +1.6462896918258014e+00 +1.3103004387236723e+01 +1.0591243360762284e+02 +2.6393641573444344e+04 -3.5548508576476866e+04 -9.5907075616362944e+07 
+7.6999999999999886e+00 -7.4246462667002089e-01 +1.6462733199618682e+00 +1.3104597121034381e+01 +1.0630908151463156e+02 +2.6394498458250713e+04 -3.7616731944238578e+04 -9.5989922687009096e+07 
+7.7999999999999883e+00 -7.4246515234602761e-01 +1.6462570052422127e+00 +1.3106522393219496e+01 +1.0671444858925786e+02 +2.6389353244717906e+04 -3.9723534166858153e+04 -9.6049254863976404e+07 
+7.8999999999999879e+00 -7.4246567729809998e-01 +1.6462409275645153e+00 +1.3108792213273063e+01 +1.0712384038695109e+02 +2.6377781409144671e+04 -4.1842741324496994e+04 -9.6082567485552654e+07 
+7.9999999999999876e+00 -7.4246620069050362e-01 +1.6462252668178314e+00 +1.3111418601523374e+01 +1.0753256294971794e+02 +2.6359358200068596e+04 -4.3948183856204276e+04 -9.6087354748282447e+07 
+8.0999999999999872e+00 -7.4246672181059836e-01 +1.6462101679284962e+00 +1.3114405418185189e+01 +1.0793660346395443e+02 +2.6333827689170554e+04 -4.6017753549562483e+04 -9.6061895462185532e+07 
+8.1999999999999869e+00 -7.4246724039028977e-01 +1.6461956690605781e+00 +1.3117720146291120e+01 +1.0833421688847791e+02 +2.6301684803049306e+04 -4.8043764527879866e+04 -9.6007907698847607e+07 
+8.2999999999999865e+00 -7.4246775625946693e-01 +1.6461817902394145e+00 +1.3121319863770323e+01 +1.0872410298491035e+02 +2.6263637500551951e+04 -5.0021694848501815e+04 -9.5928073207658842e+07 
+8.3999999999999861e+00 -7.4246826924794029e-01 +1.6461685515221320e+00 +1.3125161635952990e+01 +1.0910496050175279e+02 +2.6220394037418810e+04 -5.1947016827509018e+04 -9.5825075353378281e+07 
+8.4999999999999858e+00 -7.4246877918553122e-01 +1.6461559730027795e+00 +1.3129202527185624e+01 +1.0947548695082190e+02 +2.6172662748827071e+04 -5.3815195318632155e+04 -9.5701598116134897e+07 
+8.5999999999999854e+00 -7.4246928590200068e-01 +1.6461440748108453e+00 +1.3133399592702901e+01 +1.0983437863839154e+02 +2.6121152202496232e+04 -5.5621687873388270e+04 -9.5560326819945469e+07 
+8.6999999999999851e+00 -7.4246978922710138e-01 +1.6461328771120181e+00 +1.3137709884130285e+01 +1.1018033065102979e+02 +2.6066571099355413e+04 -5.7361944677768341e+04 -9.5403947675238267e+07 
+8.7999999999999847e+00 -7.4247028899052836e-01 +1.6461224001108270e+00 +1.3142090443528312e+01 +1.1051203676509215e+02 +2.6009628389195554e+04 -5.9031407998824616e+04 -9.5235148339963630e+07 
+8.8999999999999844e+00 -7.4247078502197872e-01 +1.6461126640445074e+00 +1.3146498311354792e+01 +1.1082818961917469e+02 +2.5951033116291677e+04 -6.0625513173658182e+04 -9.5056617178244889e+07 
+8.9999999999999840e+00 -7.4247127715108918e-01 +1.6461036891984819e+00 +1.3150890517676384e+01 +1.1112748024625016e+02 +2.5891494595617758e+04 -6.2139685836919060e+04 -9.4871044127347484e+07 
+9.0999999999999837e+00 -7.4247176520748093e-01 +1.6460954958940084e+00 +1.3155224088013185e+01 +1.1140859845667715e+02 +2.5831722300333822e+04 -6.3569344231802264e+04 -9.4681120159446448e+07 
+9.1999999999999833e+00 -7.4247224902071918e-01 +1.6460881044934654e+00 +1.3159456039033842e+01 +1.1167023263943585e+02 +2.5772425941859947e+04 -6.4909897920409167e+04 -9.4489537662954405e+07 
+9.2999999999999829e+00 -7.4247272842034129e-01 +1.6460815354066967e+00 +1.3163543380772159e+01 +1.1191106959886157e+02 +2.5714315436231696e+04 -6.6156746906132714e+04 -9.4298990305052206e+07 
+9.3999999999999826e+00 -7.4247320323584642e-01 +1.6460758090830923e+00 +1.3167443116068752e+01 +1.1212979476888489e+02 +2.5658100912814425e+04 -6.7305282835871680e+04 -9.4112173073602661e+07 
+9.4999999999999822e+00 -7.4247367329670422e-01 +1.6460709460231910e+00 +1.3171112241281325e+01 +1.1232509186945600e+02 +2.5604492703406075e+04 -6.8350886988219456e+04 -9.3931782231792212e+07 
+9.5999999999999819e+00 -7.4247413843232868e-01 +1.6460669667670302e+00 +1.3174507743099284e+01 +1.1249564323859173e+02 +2.5554201405917524e+04 -6.9288932194249996e+04 -9.3760515636092931e+07 
+9.6999999999999815e+00 -7.4247459847208064e-01 +1.6460638919102115e+00 +1.3177586598676825e+01 +1.1264012935871112e+02 +2.5507937882016075e+04 -7.0114780062653386e+04 -9.3601072723715797e+07 
+9.7999999999999812e+00 -7.4247505324532670e-01 +1.6460617420927457e+00 +1.3180305782751836e+01 +1.1275722917135370e+02 +2.5466413127457115e+04 -7.0823782793561302e+04 -9.3456153917297363e+07 
+9.8999999999999808e+00 -7.4247550258133943e-01 +1.6460605380031224e+00 +1.3182622255885372e+01 +1.1284561996241366e+02 +2.5430338489980815e+04 -7.1411282521932779e+04 -9.3328461646739408e+07 
+9.9999999999999805e+00 -7.4247594630936220e-01 +1.6460603003853278e+00 +1.3184492971529234e+01 +1.1290397738679584e+02 +2.5400425579102059e+04 -7.1872611539896578e+04 -9.3220700021523774e+07 
+1.0099999999999980e+01 -7.4247638426933860e-01 +1.6460610551044743e+00 +1.3185889436185958e+01 +1.1293127331980097e+02 +2.5377172077713491e+04 -7.2204906796463678e+04 -9.3134808414441735e+07 
