# field on trajectory
# s[mm] rx[mm] ry[mm] rz[mm] bx[T] by[T] bz[T]
0.0000000000000000e+00 +9.1762999999999995e+00 +0.0000000000000000e+00 +0.0000000000000000e+00 +1.1253941134515369e-02 -1.0311175702652216e+00 -5.8813197509667361e-02
-1.0000000000000001e-01 +9.1762994847970507e+00 +0.0000000000000000e+00 -9.9999999998230449e-02 +1.1254050194519997e-02 -1.0311224674749475e+00 -5.8813862934257534e-02
-2.0000000000000001e-01 +9.1762979391849413e+00 +0.0000000000000000e+00 -1.9999999998584350e-01 +1.1254156927275829e-02 -1.0311273742329754e+00 -5.8814534333413201e-02
-3.0000000000000004e-01 +9.1762953631587685e+00 +0.0000000000000000e+00 -2.9999999995222154e-01 +1.1254261010655959e-02 -1.0311322846724369e+00 -5.8815211835042548e-02
-4.0000000000000002e-01 +9.1762917567136260e+00 +0.0000000000000000e+00 -3.9999999988674689e-01 +1.1254362122542081e-02 -1.0311371929272899e+00 -5.8815895567061870e-02
-5.0000000000000000e-01 +9.1762871198446110e+00 +0.0000000000000000e+00 -4.9999999977880172e-01 +1.1254459940823974e-02 -1.0311420931320490e+00 -5.8816585657390702e-02
-5.9999999999999998e-01 +9.1762814525468261e+00 +0.0000000000000000e+00 -5.9999999961776795e-01 +1.1254554143398997e-02 -1.0311469794215176e+00 -5.8817282233947249e-02
-6.9999999999999996e-01 +9.1762747548153900e+00 +0.0000000000000000e+00 -6.9999999939302748e-01 +1.1254644408171527e-02 -1.0311518459305238e+00 -5.8817985424643601e-02
-7.9999999999999993e-01 +9.1762670266454407e+00 +0.0000000000000000e+00 -7.9999999909396202e-01 +1.1254730413052466e-02 -1.0311566867936515e+00 -5.8818695357381101e-02
-8.9999999999999991e-01 +9.1762582680321412e+00 +0.0000000000000000e+00 -8.9999999870995306e-01 +1.1254811835958721e-02 -1.0311614961449731e+00 -5.8819412160045520e-02
-9.9999999999999989e-01 +9.1762484789706882e+00 +0.0000000000000000e+00 -9.9999999823038199e-01 +1.1254888354812653e-02 -1.0311662681177820e+00 -5.8820135960502444e-02
-1.0999999999999999e+00 +9.1762376594563140e+00 +0.0000000000000000e+00 -1.0999999976446302e+00 +1.1254959647541578e-02 -1.0311709968443261e+00 -5.8820866886592500e-02
-1.2000000000000000e+00 +9.1762258094842934e+00 +0.0000000000000000e+00 -1.1999999969420785e+00 +1.1255025392077249e-02 -1.0311756764555422e+00 -5.8821605066126721e-02
-1.3000000000000000e+00 +9.1762129290499548e+00 +0.0000000000000000e+00 -1.2999999961121080e+00 +1.1255085266355297e-02 -1.0311803010807845e+00 -5.8822350626881778e-02
-1.4000000000000001e+00 +9.1761990181486759e+00 +0.0000000000000000e+00 -1.3999999951440998e+00 +1.1255138948314760e-02 -1.0311848648475619e+00 -5.8823103696595290e-02
-1.5000000000000002e+00 +9.1761840767758986e+00 +0.0000000000000000e+00 -1.4999999940274342e+00 +1.1255186115897511e-02 -1.0311893618812682e+00 -5.8823864402961085e-02
-1.6000000000000003e+00 +9.1761681049271324e+00 +0.0000000000000000e+00 -1.5999999927514921e+00 +1.1255226597749891e-02 -1.0311937879390132e+00 -5.8824632766011076e-02
-1.7000000000000004e+00 +9.1761511025979541e+00 +0.0000000000000000e+00 -1.6999999913056536e+00 +1.1255260825324173e-02 -1.0311981453124550e+00 -5.8825408375276431e-02
-1.8000000000000005e+00 +9.1761330697840116e+00 +0.0000000000000000e+00 -1.7999999896792993e+00 +1.1255289380762942e-02 -1.0312024379268208e+00 -5.8826190712635965e-02
-1.9000000000000006e+00 +9.1761140064810167e+00 +0.0000000000000000e+00 -1.8999999878618092e+00 +1.1255312846193313e-02 -1.0312066697070923e+00 -5.8826979259929364e-02
-2.0000000000000004e+00 +9.1760939126847436e+00 +0.0000000000000000e+00 -1.9999999858425634e+00 +1.1255331803724388e-02 -1.0312108445781074e+00 -5.8827773498955280e-02
-2.1000000000000005e+00 +9.1760727883910196e+00 +0.0000000000000000e+00 -2.0999999836109420e+00 +1.1255346835444739e-02 -1.0312149664646588e+00 -5.8828572911469729e-02
-2.2000000000000006e+00 +9.1760506335957288e+00 +0.0000000000000000e+00 -2.1999999811563247e+00 +1.1255358523419835e-02 -1.0312190392915961e+00 -5.8829376979184181e-02
-2.3000000000000007e+00 +9.1760274482948034e+00 +0.0000000000000000e+00 -2.2999999784680911e+00 +1.1255367449689470e-02 -1.0312230669839233e+00 -5.8830185183763831e-02
-2.4000000000000008e+00 +9.1760032324842218e+00 +0.0000000000000000e+00 -2.3999999755356214e+00 +1.1255374196265270e-02 -1.0312270534669012e+00 -5.8830997006825828e-02
-2.5000000000000009e+00 +9.1759779861600013e+00 +0.0000000000000000e+00 -2.4999999723482946e+00 +1.1255379345128094e-02 -1.0312310026661462e+00 -5.8831811929937500e-02
-2.6000000000000010e+00 +9.1759517093181966e+00 +0.0000000000000000e+00 -2.5999999688954900e+00 +1.1255383478225507e-02 -1.0312349185077310e+00 -5.8832629434614488e-02
-2.7000000000000011e+00 +9.1759244019548980e+00 +0.0000000000000000e+00 -2.6999999651665871e+00 +1.1255387177469241e-02 -1.0312388049182857e+00 -5.8833449002319176e-02
-2.8000000000000012e+00 +9.1758960640662242e+00 +0.0000000000000000e+00 -2.7999999611509647e+00 +1.1255391024732638e-02 -1.0312426658250959e+00 -5.8834270114458700e-02
-2.9000000000000012e+00 +9.1758666956483204e+00 +0.0000000000000000e+00 -2.8999999568380024e+00 +1.1255395601848092e-02 -1.0312465051562050e+00 -5.8835092252383342e-02
-3.0000000000000013e+00 +9.1758362966973532e+00 +0.0000000000000000e+00 -2.9999999522170788e+00 +1.1255401490604519e-02 -1.0312503268405129e+00 -5.8835914897384566e-02
-3.1000000000000014e+00 +9.1758048672095054e+00 +0.0000000000000000e+00 -3.0999999472775728e+00 +1.1255409272744816e-02 -1.0312541348078772e+00 -5.8836737530693531e-02
-3.2000000000000015e+00 +9.1757724071809736e+00 +0.0000000000000000e+00 -3.1999999420088630e+00 +1.1255419529963279e-02 -1.0312579329892126e+00 -5.8837559633479031e-02
-3.3000000000000016e+00 +9.1757389166079673e+00 +0.0000000000000000e+00 -3.2999999364003281e+00 +1.1255432843903119e-02 -1.0312617253165923e+00 -5.8838380686845944e-02
-3.4000000000000017e+00 +9.1757043954866990e+00 +0.0000000000000000e+00 -3.3999999304413464e+00 +1.1255449796153848e-02 -1.0312655157233472e+00 -5.8839200171833313e-02
-3.5000000000000018e+00 +9.1756688438133853e+00 +0.0000000000000000e+00 -3.4999999241212962e+00 +1.1255470968248790e-02 -1.0312693081441662e+00 -5.8840017569412657e-02
-3.6000000000000019e+00 +9.1756322615842389e+00 +0.0000000000000000e+00 -3.5999999174295558e+00 +1.1255496753934658e-02 -1.0312731053541477e+00 -5.8840832458811776e-02
-3.7000000000000020e+00 +9.1755946487954692e+00 +0.0000000000000000e+00 -3.6999999103555035e+00 +1.1255526796012926e-02 -1.0312769054851514e+00 -5.8841644812520966e-02
-3.8000000000000020e+00 +9.1755560054432834e+00 +0.0000000000000000e+00 -3.7999999028885174e+00 +1.1255560549575425e-02 -1.0312807055079676e+00 -5.8842454701370235e-02
-3.9000000000000021e+00 +9.1755163315238875e+00 +0.0000000000000000e+00 -3.8999998950179751e+00 +1.1255597469743472e-02 -1.0312845023932078e+00 -5.8843262196215176e-02
-4.0000000000000018e+00 +9.1754756270334923e+00 +0.0000000000000000e+00 -3.9999998867332547e+00 +1.1255637011671312e-02 -1.0312882931112843e+00 -5.8844067367941268e-02
-4.1000000000000014e+00 +9.1754338919683160e+00 +0.0000000000000000e+00 -4.0999998780237332e+00 +1.1255678630549555e-02 -1.0312920746323908e+00 -5.8844870287468508e-02
-4.2000000000000011e+00 +9.1753911263245822e+00 +0.0000000000000000e+00 -4.1999998688787885e+00 +1.1255721781608651e-02 -1.0312958439264801e+00 -5.8845671025755893e-02
-4.3000000000000007e+00 +9.1753473300985302e+00 +0.0000000000000000e+00 -4.2999998592877988e+00 +1.1255765920122266e-02 -1.0312995979632431e+00 -5.8846469653805765e-02
-4.4000000000000004e+00 +9.1753025032864119e+00 +0.0000000000000000e+00 -4.3999998492401406e+00 +1.1255810501410795e-02 -1.0313033337120876e+00 -5.8847266242668450e-02
-4.5000000000000000e+00 +9.1752566458845006e+00 +0.0000000000000000e+00 -4.4999998387251914e+00 +1.1255854980844738e-02 -1.0313070481421194e+00 -5.8848060863446634e-02
-4.5999999999999996e+00 +9.1752097578890890e+00 +0.0000000000000000e+00 -4.5999998277323275e+00 +1.1255898813848194e-02 -1.0313107382221196e+00 -5.8848853587299910e-02
-4.6999999999999993e+00 +9.1751618392964964e+00 +0.0000000000000000e+00 -4.6999998162509264e+00 +1.1255941455902247e-02 -1.0313144009205231e+00 -5.8849644485449180e-02
-4.7999999999999989e+00 +9.1751128901030654e+00 +0.0000000000000000e+00 -4.7999998042703655e+00 +1.1255982362548442e-02 -1.0313180332053995e+00 -5.8850433629181208e-02
-4.8999999999999986e+00 +9.1750629103051740e+00 +0.0000000000000000e+00 -4.8999997917800213e+00 +1.1256020989392209e-02 -1.0313216320444312e+00 -5.8851221089853044e-02
-4.9999999999999982e+00 +9.1750118998992303e+00 +0.0000000000000000e+00 -4.9999997787692703e+00 +1.1256056792106285e-02 -1.0313251944048920e+00 -5.8852006938896535e-02
-5.0999999999999979e+00 +9.1749598588816799e+00 +0.0000000000000000e+00 -5.0999997652274889e+00 +1.1256089226434183e-02 -1.0313287172536267e+00 -5.8852791247822757e-02
-5.1999999999999975e+00 +9.1749067872490073e+00 +0.0000000000000000e+00 -5.1999997511440545e+00 +1.1256117748193585e-02 -1.0313321975570309e+00 -5.8853574088226529e-02
-5.2999999999999972e+00 +9.1748526849977416e+00 +0.0000000000000000e+00 -5.2999997365083429e+00 +1.1256141813279791e-02 -1.0313356322810274e+00 -5.8854355531790893e-02
-5.3999999999999968e+00 +9.1747975521244562e+00 +0.0000000000000000e+00 -5.3999997213097304e+00 +1.1256160877669190e-02 -1.0313390183910489e+00 -5.8855135650291532e-02
-5.4999999999999964e+00 +9.1747413886257743e+00 +0.0000000000000000e+00 -5.4999997055375935e+00 +1.1256174397422616e-02 -1.0313423528520134e+00 -5.8855914515601251e-02
-5.5999999999999961e+00 +9.1746841944983686e+00 +0.0000000000000000e+00 -5.5999996891813089e+00 +1.1256182040677571e-02 -1.0313456337791180e+00 -5.8856692213233322e-02
-5.6999999999999957e+00 +9.1746259697389672e+00 +0.0000000000000000e+00 -5.6999996722302519e+00 +1.1256184323574368e-02 -1.0313488638899437e+00 -5.8857468882913370e-02
-5.7999999999999954e+00 +9.1745667143443477e+00 +0.0000000000000000e+00 -5.7999996546737984e+00 +1.1256181974197664e-02 -1.0313520470513475e+00 -5.8858244677878334e-02
-5.8999999999999950e+00 +9.1745064283113358e+00 +0.0000000000000000e+00 -5.8999996365013256e+00 +1.1256175720568248e-02 -1.0313551871284778e+00 -5.8859019751323363e-02
-5.9999999999999947e+00 +9.1744451116367980e+00 +0.0000000000000000e+00 -5.9999996177022084e+00 +1.1256166290639753e-02 -1.0313582879847090e+00 -5.8859794256399686e-02
-6.0999999999999943e+00 +9.1743827643176434e+00 +0.0000000000000000e+00 -6.0999995982658231e+00 +1.1256154412295362e-02 -1.0313613534815718e+00 -5.8860568346212727e-02
-6.1999999999999940e+00 +9.1743193863508150e+00 +0.0000000000000000e+00 -6.1999995781815453e+00 +1.1256140813344489e-02 -1.0313643874786873e+00 -5.8861342173819872e-02
-6.2999999999999936e+00 +9.1742549777332858e+00 +0.0000000000000000e+00 -6.2999995574387508e+00 +1.1256126221519461e-02 -1.0313673938336991e+00 -5.8862115892228561e-02
-6.3999999999999932e+00 +9.1741895384620591e+00 +0.0000000000000000e+00 -6.3999995360268152e+00 +1.1256111364472217e-02 -1.0313703764022060e+00 -5.8862889654394068e-02
-6.4999999999999929e+00 +9.1741230685341613e+00 +0.0000000000000000e+00 -6.4999995139351139e+00 +1.1256096969771026e-02 -1.0313733390376962e+00 -5.8863663613217640e-02
-6.5999999999999925e+00 +9.1740555679466382e+00 +0.0000000000000000e+00 -6.5999994911530218e+00 +1.1256083764897146e-02 -1.0313762855914768e+00 -5.8864437921544277e-02
-6.6999999999999922e+00 +9.1739870366965519e+00 +0.0000000000000000e+00 -6.6999994676699153e+00 +1.1256072477241532e-02 -1.0313792199126102e+00 -5.8865212732160721e-02
-6.7999999999999918e+00 +9.1739174747809766e+00 +0.0000000000000000e+00 -6.7999994434751692e+00 +1.1256063834101545e-02 -1.0313821458478434e+00 -5.8865988197793498e-02
-6.8999999999999915e+00 +9.1738468821969956e+00 +0.0000000000000000e+00 -6.8999994185581590e+00 +1.1256058562677638e-02 -1.0313850672415434e+00 -5.8866764471106753e-02
-6.9999999999999911e+00 +9.1737752589416974e+00 +0.0000000000000000e+00 -6.9999993929082596e+00 +1.1256057390070049e-02 -1.0313879879356287e+00 -5.8867541704700189e-02
-7.0999999999999908e+00 +9.1737026050121706e+00 +0.0000000000000000e+00 -7.0999993665148464e+00 +1.1256061043275511e-02 -1.0313909117695013e+00 -5.8868320051107099e-02
-7.1999999999999904e+00 +9.1736289204055002e+00 +0.0000000000000000e+00 -7.1999993393672934e+00 +1.1256070249183937e-02 -1.0313938425799807e+00 -5.8869099662792239e-02
-7.2999999999999901e+00 +9.1735542051187657e+00 +0.0000000000000000e+00 -7.2999993114549762e+00 +1.1256085734575125e-02 -1.0313967842012350e+00 -5.8869880692149761e-02
-7.3999999999999897e+00 +9.1734784591490346e+00 +0.0000000000000000e+00 -7.3999992827672694e+00 +1.1256108226115474e-02 -1.0313997404647153e+00 -5.8870663291501243e-02
-7.4999999999999893e+00 +9.1734016824933597e+00 +0.0000000000000000e+00 -7.4999992532935478e+00 +1.1256138450354653e-02 -1.0314027151990866e+00 -5.8871447613093583e-02
-7.5999999999999890e+00 +9.1733238751487782e+00 +0.0000000000000000e+00 -7.5999992230231861e+00 +1.1256176912953884e-02 -1.0314057110450805e+00 -5.8872233677783728e-02
-7.6999999999999886e+00 +9.1732450371123040e+00 +0.0000000000000000e+00 -7.6999991919455582e+00 +1.1256223236465381e-02 -1.0314087259017646e+00 -5.8873020981141243e-02
-7.7999999999999883e+00 +9.1731651683809314e+00 +0.0000000000000000e+00 -7.7999991600500396e+00 +1.1256276822837892e-02 -1.0314117564848078e+00 -5.8873808887491608e-02
-7.8999999999999879e+00 +9.1730842689516425e+00 +0.0000000000000000e+00 -7.8999991273260033e+00 +1.1256337074228774e-02 -1.0314147995121257e+00 -5.8874596761252312e-02
-7.9999999999999876e+00 +9.1730023388214050e+00 +0.0000000000000000e+00 -7.9999990937628240e+00 +1.1256403393011236e-02 -1.0314178517039805e+00 -5.8875383966936444e-02
-8.0999999999999872e+00 +9.1729193779871778e+00 +0.0000000000000000e+00 -8.0999990593498747e+00 +1.1256475181781628e-02 -1.0314209097830787e+00 -5.8876169869155906e-02
-8.1999999999999869e+00 +9.1728353864459127e+00 +0.0000000000000000e+00 -8.1999990240765310e+00 +1.1256551843366705e-02 -1.0314239704746704e+00 -5.8876953832624972e-02
-8.2999999999999865e+00 +9.1727503641945614e+00 +0.0000000000000000e+00 -8.2999989879321650e+00 +1.1256632780830882e-02 -1.0314270305066469e+00 -5.8877735222163746e-02
-8.3999999999999861e+00 +9.1726643112300756e+00 +0.0000000000000000e+00 -8.3999989509061521e+00 +1.1256717397483514e-02 -1.0314300866096395e+00 -5.8878513402701532e-02
-8.4999999999999858e+00 +9.1725772275494108e+00 +0.0000000000000000e+00 -8.4999989129878646e+00 +1.1256805096886154e-02 -1.0314331355171185e+00 -5.8879287739280264e-02
-8.5999999999999854e+00 +9.1724891131495294e+00 +0.0000000000000000e+00 -8.5999988741666762e+00 +1.1256895282859824e-02 -1.0314361739654918e+00 -5.8880057597058021e-02
-8.6999999999999851e+00 +9.1723999680274044e+00 +0.0000000000000000e+00 -8.6999988344319608e+00 +1.1256987359492281e-02 -1.0314391986942015e+00 -5.8880822341312394e-02
-8.7999999999999847e+00 +9.1723097921800232e+00 +0.0000000000000000e+00 -8.7999987937730921e+00 +1.1257080731145281e-02 -1.0314422064458260e+00 -5.8881581337443950e-02
-8.8999999999999844e+00 +9.1722185856043890e+00 +0.0000000000000000e+00 -8.8999987521794441e+00 +1.1257174802461837e-02 -1.0314451939661746e+00 -5.8882333950979686e-02
-8.9999999999999840e+00 +9.1721263482975264e+00 +0.0000000000000000e+00 -8.9999987096403888e+00 +1.1257268978373496e-02 -1.0314481580043890e+00 -5.8883079547576482e-02
-9.0999999999999837e+00 +9.1720330802564849e+00 +0.0000000000000000e+00 -9.0999986661453001e+00 +1.1257362664107611e-02 -1.0314510953130407e+00 -5.8883817493024529e-02
-9.1999999999999833e+00 +9.1719387814783389e+00 +0.0000000000000000e+00 -9.1999986216835499e+00 +1.1257455265194574e-02 -1.0314540026482295e+00 -5.8884547153250734e-02
-9.2999999999999829e+00 +9.1718434519601928e+00 +0.0000000000000000e+00 -9.2999985762445121e+00 +1.1257546187475107e-02 -1.0314568767696832e+00 -5.8885267894322295e-02
-9.3999999999999826e+00 +9.1717470916991850e+00 +0.0000000000000000e+00 -9.3999985298175588e+00 +1.1257634837107525e-02 -1.0314597144408533e+00 -5.8885979082450031e-02
-9.4999999999999822e+00 +9.1716497006924911e+00 +0.0000000000000000e+00 -9.4999984823920638e+00 +1.1257720620574979e-02 -1.0314625124290171e+00 -5.8886680083991901e-02
-9.5999999999999819e+00 +9.1715512789373257e+00 +0.0000000000000000e+00 -9.5999984339573992e+00 +1.1257803111736018e-02 -1.0314652685175685e+00 -5.8887370432810067e-02
-9.6999999999999815e+00 +9.1714518264309444e+00 +0.0000000000000000e+00 -9.6999983845029387e+00 +1.1257882552773794e-02 -1.0314679845407868e+00 -5.8888050332343712e-02
-9.7999999999999812e+00 +9.1713513431706417e+00 +0.0000000000000000e+00 -9.7999983340180545e+00 +1.1257959352668675e-02 -1.0314706633435251e+00 -5.8888720153496832e-02
-9.8999999999999808e+00 +9.1712498291537532e+00 +0.0000000000000000e+00 -9.8999982824921204e+00 +1.1258033920076333e-02 -1.0314733077683478e+00 -5.8889380267265624e-02
-9.9999999999999805e+00 +9.1711472843776463e+00 +0.0000000000000000e+00 -9.9999982299145085e+00 +1.1258106663318045e-02 -1.0314759206554618e+00 -5.8890031044740242e-02
-1.0099999999999980e+01 +9.1710437088397203e+00 +0.0000000000000000e+00 -1.0099998176274591e+01 +1.1258177990371005e-02 -1.0314785048426549e+00 -5.8890672857106335e-02
-1.0199999999999980e+01 +9.1709391025374050e+00 +0.0000000000000000e+00 -1.0199998121561741e+01 +1.1258248308858628e-02 -1.0314810631652302e+00 -5.8891306075646896e-02
-1.0299999999999979e+01 +9.1708334654681529e+00 +0.0000000000000000e+00 -1.0299998065765331e+01 +1.1258318026040859e-02 -1.0314835984559414e+00 -5.8891931071743800e-02
-1.0399999999999979e+01 +9.1707267976294418e+00 +0.0000000000000000e+00 -1.0399998008874734e+01 +1.1258387548804465e-02 -1.0314861135449269e+00 -5.8892548216879559e-02
-1.0499999999999979e+01 +9.1706190990187704e+00 +0.0000000000000000e+00 -1.0499997950879321e+01 +1.1258457283653371e-02 -1.0314886112596469e+00 -5.8893157882639033e-02
-1.0599999999999978e+01 +9.1705103696336536e+00 +0.0000000000000000e+00 -1.0599997891768464e+01 +1.1258527636698931e-02 -1.0314910944248172e+00 -5.8893760440710978e-02
-1.0699999999999978e+01 +9.1704006094716206e+00 +0.0000000000000000e+00 -1.0699997831531537e+01 +1.1258599013650261e-02 -1.0314935658623470e+00 -5.8894356262889865e-02
-1.0799999999999978e+01 +9.1702898185302129e+00 +0.0000000000000000e+00 -1.0799997770157912e+01 +1.1258671819804533e-02 -1.0314960283912689e+00 -5.8894945721077473e-02
-1.0899999999999977e+01 +9.1701779968069825e+00 +0.0000000000000000e+00 -1.0899997707636961e+01 +1.1258746460037300e-02 -1.0314984848276794e+00 -5.8895529187284537e-02
-1.0999999999999977e+01 +9.1700651442994854e+00 +0.0000000000000000e+00 -1.0999997643958055e+01 +1.1258823338792771e-02 -1.0315009379846698e+00 -5.8896107033632475e-02
-1.1099999999999977e+01 +9.1699512610052825e+00 +0.0000000000000000e+00 -1.1099997579110568e+01 +1.1258902860074150e-02 -1.0315033906722662e+00 -5.8896679632355051e-02
-1.1199999999999976e+01 +9.1698363469219331e+00 +0.0000000000000000e+00 -1.1199997513083870e+01 +1.1258985427433936e-02 -1.0315058456973594e+00 -5.8897247355800028e-02
-1.1299999999999976e+01 +9.1697204020469965e+00 +0.0000000000000000e+00 -1.1299997445867335e+01 +1.1259071443964217e-02 -1.0315083058636421e+00 -5.8897810576430752e-02
-1.1399999999999975e+01 +9.1696034263780284e+00 +0.0000000000000000e+00 -1.1399997377450333e+01 +1.1259161312287009e-02 -1.0315107739715441e+00 -5.8898369666827925e-02
-1.1499999999999975e+01 +9.1694854199125722e+00 +0.0000000000000000e+00 -1.1499997307822238e+01 +1.1259255434544528e-02 -1.0315132528181683e+00 -5.8898924999691238e-02
-1.1599999999999975e+01 +9.1693663826481639e+00 +0.0000000000000000e+00 -1.1599997236972419e+01 +1.1259354060699217e-02 -1.0315157438363300e+00 -5.8899476855994393e-02
-1.1699999999999974e+01 +9.1692463145823275e+00 +0.0000000000000000e+00 -1.1699997164890247e+01 +1.1259456833696790e-02 -1.0315182430121506e+00 -5.8900025149424842e-02
