# field on trajectory
# s[mm] rx[mm] ry[mm] rz[mm] bx[T] by[T] bz[T]
-0.0000000000000000e+00 +9.1076201166355002e+00 +0.0000000000000000e+00 -0.0000000000000000e+00 +1.1256200928352231e-02 -1.0312652166478649e+00 -5.8821134262765279e-02
-1.0005104645227200e-01 +9.1076196006322601e+00 +0.0000000000000000e+00 -1.0005104645049701e-01 +1.1256310598689860e-02 -1.0312703744739373e+00 -5.8821801511454087e-02
-2.0010209290454301e-01 +9.1076180526189905e+00 +0.0000000000000000e+00 -2.0010209289035000e-01 +1.1256418045713465e-02 -1.0312755553075443e+00 -5.8822474901044364e-02
-3.0015313935681498e-01 +9.1076154725992300e+00 +0.0000000000000000e+00 -3.0015313930891202e-01 +1.1256522942791758e-02 -1.0312807514812050e+00 -5.8823154527464741e-02
-4.0020418580908601e-01 +9.1076118605712200e+00 +0.0000000000000000e+00 -4.0020418569554000e-01 +1.1256624963302504e-02 -1.0312859553282947e+00 -5.8823840486651735e-02
-5.0025523226135804e-01 +9.1076072165331805e+00 +0.0000000000000000e+00 -5.0025523203958799e-01 +1.1256723780631656e-02 -1.0312911591827629e+00 -5.8824532874544297e-02
-6.0030627871362996e-01 +9.1076015404886608e+00 +0.0000000000000000e+00 -6.0030627833041095e-01 +1.1256819068172511e-02 -1.0312963553788526e+00 -5.8825231787078013e-02
-7.0035732516590099e-01 +9.1075948324376501e+00 +0.0000000000000000e+00 -7.0035732455736299e-01 +1.1256910499325328e-02 -1.0313015362508495e+00 -5.8825937320181584e-02
-8.0040837161817302e-01 +9.1075870923766207e+00 +0.0000000000000000e+00 -8.0040837070980198e-01 +1.1256997747496627e-02 -1.0313066941328093e+00 -5.8826649569771482e-02
-9.0045941807044405e-01 +9.1075783203073204e+00 +0.0000000000000000e+00 -9.0045941677707997e-01 +1.1257080486098263e-02 -1.0313118213582737e+00 -5.8827368631746348e-02
-1.0005104645227201e+00 +9.1075685162297706e+00 +0.0000000000000000e+00 -1.0005104627485499e+00 +1.1257158388546903e-02 -1.0313169102600088e+00 -5.8828094601982503e-02
-1.1005615109749900e+00 +9.1075576801457405e+00 +0.0000000000000000e+00 -1.1005615086135800e+00 +1.1257231128263327e-02 -1.0313219531697340e+00 -5.8828827576328971e-02
-1.2006125574272599e+00 +9.1075458120516792e+00 +0.0000000000000000e+00 -1.2006125543615100e+00 +1.1257298378671905e-02 -1.0313269424178639e+00 -5.8829567650603112e-02
-1.3006636038795301e+00 +9.1075329119511395e+00 +0.0000000000000000e+00 -1.3006635999817000e+00 +1.1257359813199540e-02 -1.0313318703332095e+00 -5.8830314920584284e-02
-1.4007146503318000e+00 +9.1075189798405596e+00 +0.0000000000000000e+00 -1.4007146454635000e+00 +1.1257415105275453e-02 -1.0313367292427431e+00 -5.8831069482010660e-02
-1.5007656967840699e+00 +9.1075040157234994e+00 +0.0000000000000000e+00 -1.5007656907962801e+00 +1.1257463928330099e-02 -1.0313415114712960e+00 -5.8831831430572426e-02
-1.6008167432363500e+00 +9.1074880195981898e+00 +0.0000000000000000e+00 -1.6008167359693799e+00 +1.1257506108091302e-02 -1.0313462114364100e+00 -5.8832600755326078e-02
-1.7008677896886200e+00 +9.1074709914646199e+00 +0.0000000000000000e+00 -1.7008677809721600e+00 +1.1257542065642894e-02 -1.0313508317439699e+00 -5.8833377028624886e-02
-1.8009188361408901e+00 +9.1074529313228005e+00 +0.0000000000000000e+00 -1.8009188257939699e+00 +1.1257572367518393e-02 -1.0313553770004196e+00 -5.8834159720984221e-02
-1.9009698825931600e+00 +9.1074338391727103e+00 +0.0000000000000000e+00 -1.9009698704241800e+00 +1.1257597580236256e-02 -1.0313598518119802e+00 -5.8834948302881218e-02
-2.0010209290454299e+00 +9.1074137150161505e+00 +0.0000000000000000e+00 -2.0010209148521301e+00 +1.1257618270297335e-02 -1.0313642607847457e+00 -5.8835742244752957e-02
-2.1010719754977001e+00 +9.1073925588495506e+00 +0.0000000000000000e+00 -2.1010719590671898e+00 +1.1257635004182786e-02 -1.0313686085248024e+00 -5.8836541016996084e-02
-2.2011230219499698e+00 +9.1073703706746993e+00 +0.0000000000000000e+00 -2.2011230030586999e+00 +1.1257648348351272e-02 -1.0313728996383065e+00 -5.8837344089964036e-02
-2.3011740684022501e+00 +9.1073471504933696e+00 +0.0000000000000000e+00 -2.3011740468160200e+00 +1.1257658869236754e-02 -1.0313771387316000e+00 -5.8838150933966424e-02
-2.4012251148545198e+00 +9.1073228983037797e+00 +0.0000000000000000e+00 -2.4012250903285000e+00 +1.1257667133246205e-02 -1.0313813304113197e+00 -5.8838961019267950e-02
-2.5012761613067900e+00 +9.1072976141041497e+00 +0.0000000000000000e+00 -2.5012761335854998e+00 +1.1257673706757098e-02 -1.0313854792844943e+00 -5.8839773816086641e-02
-2.6013272077590601e+00 +9.1072712978980501e+00 +0.0000000000000000e+00 -2.6013271765763899e+00 +1.1257679156114824e-02 -1.0313895899586292e+00 -5.8840588794591878e-02
-2.7013782542113298e+00 +9.1072439496836903e+00 +0.0000000000000000e+00 -2.7013782192905000e+00 +1.1257684047630648e-02 -1.0313936670418407e+00 -5.8841405424904208e-02
-2.8014293006636000e+00 +9.1072155694610704e+00 +0.0000000000000000e+00 -2.8014292617172001e+00 +1.1257688947579074e-02 -1.0313977151429363e+00 -5.8842223177093166e-02
-2.9014803471158799e+00 +9.1071861572302009e+00 +0.0000000000000000e+00 -2.9014803038458301e+00 +1.1257694422195508e-02 -1.0314017388715233e+00 -5.8843041521176080e-02
-3.0015313935681500e+00 +9.1071557129910694e+00 +0.0000000000000000e+00 -3.0015313456657702e+00 +1.1257701037673857e-02 -1.0314057428381120e+00 -5.8843859927116729e-02
-3.1015824400204202e+00 +9.1071242367454595e+00 +0.0000000000000000e+00 -3.1015823871663502e+00 +1.1257709360164073e-02 -1.0314097316542132e+00 -5.8844677864823704e-02
-3.2016334864726899e+00 +9.1070917284915893e+00 +0.0000000000000000e+00 -3.2016334283369399e+00 +1.1257719955769947e-02 -1.0314137099324543e+00 -5.8845494804149696e-02
-3.3016845329249600e+00 +9.1070581882277004e+00 +0.0000000000000000e+00 -3.3016844691668901e+00 +1.1257733390546559e-02 -1.0314176822866705e+00 -5.8846310214889695e-02
-3.4017355793772301e+00 +9.1070236159573206e+00 +0.0000000000000000e+00 -3.4017355096455599e+00 +1.1257750230497748e-02 -1.0314216533319989e+00 -5.8847123566778958e-02
-3.5017866258295101e+00 +9.1069880116786806e+00 +0.0000000000000000e+00 -3.5017865497623002e+00 +1.1257771041573000e-02 -1.0314256276849962e+00 -5.8847934329493569e-02
-3.6018376722817802e+00 +9.1069513753917892e+00 +0.0000000000000000e+00 -3.6018375895064700e+00 +1.1257796198231180e-02 -1.0314296085931094e+00 -5.8848742083456786e-02
-3.7018887187340499e+00 +9.1069137070966395e+00 +0.0000000000000000e+00 -3.7018886288674100e+00 +1.1257825349088403e-02 -1.0314335941081545e+00 -5.8849546829183440e-02
-3.8019397651863200e+00 +9.1068750067950095e+00 +0.0000000000000000e+00 -3.8019396678344899e+00 +1.1257857970791931e-02 -1.0314375810505414e+00 -5.8850348666754024e-02
-3.9019908116385902e+00 +9.1068352744833394e+00 +0.0000000000000000e+00 -3.9019907063970600e+00 +1.1257893540016887e-02 -1.0314415662405112e+00 -5.8851147696273864e-02
-4.0020418580908599e+00 +9.1067945101634198e+00 +0.0000000000000000e+00 -4.0020417445444796e+00 +1.1257931533469179e-02 -1.0314455464980876e+00 -5.8851944017876086e-02
-4.1020929045431300e+00 +9.1067527138370199e+00 +0.0000000000000000e+00 -4.1020927822660997e+00 +1.1257971427888933e-02 -1.0314495186430659e+00 -5.8852737731726446e-02
-4.2021439509954099e+00 +9.1067098855023705e+00 +0.0000000000000000e+00 -4.2021438195512797e+00 +1.1258012700053886e-02 -1.0314534794950019e+00 -5.8853528938028095e-02
-4.3021949974476801e+00 +9.1066660251594502e+00 +0.0000000000000000e+00 -4.3021948563893604e+00 +1.1258054826782476e-02 -1.0314574258731715e+00 -5.8854317737025076e-02
-4.4022460438999502e+00 +9.1066211328065094e+00 +0.0000000000000000e+00 -4.4022458927697201e+00 +1.1258097284937202e-02 -1.0314613545965603e+00 -5.8855104229007055e-02
-4.5022970903522204e+00 +9.1065752084488594e+00 +0.0000000000000000e+00 -4.5022969286816901e+00 +1.1258139551427624e-02 -1.0314652624838185e+00 -5.8855888514312560e-02
-4.6023481368044896e+00 +9.1065282520811692e+00 +0.0000000000000000e+00 -4.6023479641146396e+00 +1.1258181103214200e-02 -1.0314691463532781e+00 -5.8856670693335202e-02
-4.7023991832567598e+00 +9.1064802637070095e+00 +0.0000000000000000e+00 -4.7023989990579196e+00 +1.1258221417310883e-02 -1.0314730030228865e+00 -5.8857450866525662e-02
-4.8024502297090397e+00 +9.1064312433245895e+00 +0.0000000000000000e+00 -4.8024500335008904e+00 +1.1258259970788885e-02 -1.0314768293102163e+00 -5.8858229134397720e-02
-4.9025012761613098e+00 +9.1063811909321402e+00 +0.0000000000000000e+00 -4.9025010674329002e+00 +1.1258296240779743e-02 -1.0314806220324289e+00 -5.8859005597531641e-02
-5.0025523226135800e+00 +9.1063301065332105e+00 +0.0000000000000000e+00 -5.0025521008432996e+00 +1.1258329704478395e-02 -1.0314843780062404e+00 -5.8859780356578031e-02
-5.1026033690658501e+00 +9.1062779901260207e+00 +0.0000000000000000e+00 -5.1026031337214599e+00 +1.1258359839146815e-02 -1.0314880940479230e+00 -5.8860553512263103e-02
-5.2026544155181202e+00 +9.1062248417123506e+00 +0.0000000000000000e+00 -5.2026541660567203e+00 +1.1258386122116959e-02 -1.0314917669732608e+00 -5.8861325165392074e-02
-5.3027054619703904e+00 +9.1061706612886404e+00 +0.0000000000000000e+00 -5.3027051978384501e+00 +1.1258408030794307e-02 -1.0314953935975490e+00 -5.8862095416854207e-02
-5.4027565084226703e+00 +9.1061154488584606e+00 +0.0000000000000000e+00 -5.4027562290559903e+00 +1.1258425042660737e-02 -1.0314989707355409e+00 -5.8862864367625931e-02
-5.5028075548749404e+00 +9.1060592044200206e+00 +0.0000000000000000e+00 -5.5028072596986997e+00 +1.1258436635282688e-02 -1.0315024952014784e+00 -5.8863632118776231e-02
-5.6028586013272097e+00 +9.1060019279733204e+00 +0.0000000000000000e+00 -5.6028582897559396e+00 +1.1258442509015932e-02 -1.0315059650059286e+00 -5.8864398778461023e-02
-5.7029096477794798e+00 +9.1059436195183707e+00 +0.0000000000000000e+00 -5.7029093192170599e+00 +1.1258443183223011e-02 -1.0315093825599426e+00 -5.8865164480594333e-02
-5.8029606942317500e+00 +9.1058842790551608e+00 +0.0000000000000000e+00 -5.8029603480714202e+00 +1.1258439365425300e-02 -1.0315127512844731e+00 -5.8865929364968511e-02
-5.9030117406840201e+00 +9.1058239065854707e+00 +0.0000000000000000e+00 -5.9030113763083696e+00 +1.1258431763082147e-02 -1.0315160745987373e+00 -5.8866693571333582e-02
-6.0030627871363000e+00 +9.1057625021075204e+00 +0.0000000000000000e+00 -6.0030624039172604e+00 +1.1258421083587886e-02 -1.0315193559201623e+00 -5.8867457239395848e-02
-6.1031138335885702e+00 +9.1057000656213205e+00 +0.0000000000000000e+00 -6.1031134308874604e+00 +1.1258408034268457e-02 -1.0315225986643017e+00 -5.8868220508815162e-02
-6.2031648800408403e+00 +9.1056365971268605e+00 +0.0000000000000000e+00 -6.2031644572083096e+00 +1.1258393322378305e-02 -1.0315258062447754e+00 -5.8868983519203139e-02
-6.3032159264931096e+00 +9.1055720966241402e+00 +0.0000000000000000e+00 -6.3032154828691800e+00 +1.1258377655097204e-02 -1.0315289820731954e+00 -5.8869746410121049e-02
-6.4032669729453797e+00 +9.1055065641149504e+00 +0.0000000000000000e+00 -6.4032665078594100e+00 +1.1258361739527023e-02 -1.0315321295591007e+00 -5.8870509321077645e-02
-6.5033180193976499e+00 +9.1054399995957205e+00 +0.0000000000000000e+00 -6.5033175321683601e+00 +1.1258346282688765e-02 -1.0315352521098977e+00 -5.8871272391527875e-02
-6.6033690658499298e+00 +9.1053724030699996e+00 +0.0000000000000000e+00 -6.6033685557853898e+00 +1.1258331991519025e-02 -1.0315383531307700e+00 -5.8872035760869426e-02
-6.7034201123021999e+00 +9.1053037745378091e+00 +0.0000000000000000e+00 -6.7034195786998501e+00 +1.1258319572867114e-02 -1.0315414360246296e+00 -5.8872799568441915e-02
-6.8034711587544701e+00 +9.1052341139955892e+00 +0.0000000000000000e+00 -6.8034706009011003e+00 +1.1258309733491925e-02 -1.0315445041920497e+00 -5.8873563953524742e-02
-6.9035222052067402e+00 +9.1051634214468908e+00 +0.0000000000000000e+00 -6.9035216223784897e+00 +1.1258303180058412e-02 -1.0315475610311751e+00 -5.8874329055333990e-02
-7.0035732516590103e+00 +9.1050916968899305e+00 +0.0000000000000000e+00 -7.0035726431213803e+00 +1.1258300619134796e-02 -1.0315506099376763e+00 -5.8875095013021642e-02
-7.1036242981112796e+00 +9.1050189403247099e+00 +0.0000000000000000e+00 -7.1036236631191203e+00 +1.1258302757189184e-02 -1.0315536543046713e+00 -5.8875861965672800e-02
-7.2036753445635497e+00 +9.1049451517530091e+00 +0.0000000000000000e+00 -7.2036746823610702e+00 +1.1258310300586412e-02 -1.0315566975226518e+00 -5.8876630052303654e-02
-7.3037263910158297e+00 +9.1048703311712806e+00 +0.0000000000000000e+00 -7.3037257008365799e+00 +1.1258323955585086e-02 -1.0315597429794348e+00 -5.8877399411860147e-02
-7.4037774374680998e+00 +9.1047944785830701e+00 +0.0000000000000000e+00 -7.4037767185350001e+00 +1.1258344428334011e-02 -1.0315627940600636e+00 -5.8878170183214652e-02
-7.5038284839203699e+00 +9.1047175939865994e+00 +0.0000000000000000e+00 -7.5038277354457001e+00 +1.1258372424857712e-02 -1.0315658541467121e+00 -5.8878942505158169e-02
-7.6038795303726401e+00 +9.1046396773836609e+00 +0.0000000000000000e+00 -7.6038787515580202e+00 +1.1258408416684901e-02 -1.0315689254977796e+00 -5.8879716376148396e-02
-7.7039305768249102e+00 +9.1045607287706805e+00 +0.0000000000000000e+00 -7.7039297668613296e+00 +1.1258452039320454e-02 -1.0315720063724427e+00 -5.8880491294341759e-02
-7.8039816232771804e+00 +9.1044807481512198e+00 +0.0000000000000000e+00 -7.8039807813449800e+00 +1.1258502742122797e-02 -1.0315750941406054e+00 -5.8881266646477158e-02
-7.9040326697294496e+00 +9.1043997355235007e+00 +0.0000000000000000e+00 -7.9040317949983097e+00 +1.1258559974658041e-02 -1.0315781861744546e+00 -5.8882041819391946e-02
-8.0040837161817304e+00 +9.1043176908892995e+00 +0.0000000000000000e+00 -8.0040828078106898e+00 +1.1258623186706946e-02 -1.0315812798485373e+00 -5.8882816200024578e-02
-8.1041347626340006e+00 +9.1042346142468507e+00 +0.0000000000000000e+00 -8.1041338197714801e+00 +1.1258691828272306e-02 -1.0315843725398768e+00 -5.8883589175418950e-02
-8.2041858090862707e+00 +9.1041505055961398e+00 +0.0000000000000000e+00 -8.2041848308700196e+00 +1.1258765349586039e-02 -1.0315874616280627e+00 -5.8884360132727596e-02
-8.3042368555385409e+00 +9.1040653649371706e+00 +0.0000000000000000e+00 -8.3042358410956805e+00 +1.1258843201116409e-02 -1.0315905444953477e+00 -5.8885128459215258e-02
-8.4042879019908092e+00 +9.1039791922699393e+00 +0.0000000000000000e+00 -8.4042868504377992e+00 +1.1258924833575264e-02 -1.0315936185267545e+00 -5.8885893542262743e-02
-8.5043389484430794e+00 +9.1038919875980202e+00 +0.0000000000000000e+00 -8.5043378588857408e+00 +1.1259009697925110e-02 -1.0315966811101611e+00 -5.8886654769369995e-02
-8.6043899948953602e+00 +9.1038037509160592e+00 +0.0000000000000000e+00 -8.6043888664288701e+00 +1.1259097245386719e-02 -1.0315997296364312e+00 -5.8887411528161127e-02
-8.7044410413476303e+00 +9.1037144822276108e+00 +0.0000000000000000e+00 -8.7044398730565202e+00 +1.1259186927445783e-02 -1.0316027614994734e+00 -5.8888163206386200e-02
-8.8044920877999004e+00 +9.1036241815309200e+00 +0.0000000000000000e+00 -8.8044908787580596e+00 +1.1259278195860546e-02 -1.0316057740963718e+00 -5.8888909191926228e-02
-8.9045431342521706e+00 +9.1035328488259601e+00 +0.0000000000000000e+00 -8.9045418835228496e+00 +1.1259370502668793e-02 -1.0316087648274674e+00 -5.8889648872796130e-02
-9.0045941807044407e+00 +9.1034404841127508e+00 +0.0000000000000000e+00 -9.0045928873402303e+00 +1.1259463300195120e-02 -1.0316117310964663e+00 -5.8890381637148555e-02
-9.1046452271567109e+00 +9.1033470873930593e+00 +0.0000000000000000e+00 -9.1046438901995597e+00 +1.1259556041058050e-02 -1.0316146703105298e+00 -5.8891106873277338e-02
-9.2046962736089899e+00 +9.1032526586651095e+00 +0.0000000000000000e+00 -9.2046948920902096e+00 +1.1259648178177446e-02 -1.0316175798803893e+00 -5.8891823969621622e-02
-9.3047473200612600e+00 +9.1031571979306793e+00 +0.0000000000000000e+00 -9.3047458930015097e+00 +1.1259739164781433e-02 -1.0316204572204268e+00 -5.8892532314768771e-02
-9.4047983665135302e+00 +9.1030607051879997e+00 +0.0000000000000000e+00 -9.4047968929228301e+00 +1.1259828454413871e-02 -1.0316232997487933e+00 -5.8893231297458840e-02
-9.5048494129658003e+00 +9.1029631804370599e+00 +0.0000000000000000e+00 -9.5048478918435304e+00 +1.1259915500958253e-02 -1.0316261048875883e+00 -5.8893920306606305e-02
-9.6049004594180705e+00 +9.1028646236796291e+00 +0.0000000000000000e+00 -9.6048988897529508e+00 +1.1259999929708496e-02 -1.0316288710203370e+00 -5.8894598921947781e-02
-9.7049515058703406e+00 +9.1027650349139595e+00 +0.0000000000000000e+00 -9.7049498866404598e+00 +1.1260081958017356e-02 -1.0316315998452839e+00 -5.8895267383065462e-02
-9.8050025523226108e+00 +9.1026644141418007e+00 +0.0000000000000000e+00 -9.8050008824953991e+00 +1.1260161930911118e-02 -1.0316342937748393e+00 -5.8895926072218246e-02
-9.9050535987748898e+00 +9.1025627613596107e+00 +0.0000000000000000e+00 -9.9050518773071392e+00 +1.1260240193092245e-02 -1.0316369552190401e+00 -5.8896575371751900e-02
-1.0005104645227201e+01 +9.1024600765709298e+00 +0.0000000000000000e+00 -1.0005102871065001e+01 +1.1260317088929384e-02 -1.0316395865854513e+00 -5.8897215664099348e-02
-1.0105155691679400e+01 +9.1023563597757793e+00 +0.0000000000000000e+00 -1.0105153863758400e+01 +1.1260392962448013e-02 -1.0316421902791262e+00 -5.8897847331783257e-02
-1.0205206738131700e+01 +9.1022516109723703e+00 +0.0000000000000000e+00 -1.0205204855376600e+01 +1.1260468157320775e-02 -1.0316447687025347e+00 -5.8898470757417366e-02
-1.0305257784584001e+01 +9.1021458301607101e+00 +0.0000000000000000e+00 -1.0305255845909100e+01 +1.1260543016857668e-02 -1.0316473242554871e+00 -5.8899086323707522e-02
-1.0405308831036200e+01 +9.1020390173425607e+00 +0.0000000000000000e+00 -1.0405306835345099e+01 +1.1260617883996444e-02 -1.0316498593350694e+00 -5.8899694413453295e-02
-1.0505359877488500e+01 +9.1019311725161600e+00 +0.0000000000000000e+00 -1.0505357823674100e+01 +1.1260693101293089e-02 -1.0316523763355849e+00 -5.8900295409549851e-02
-1.0605410923940800e+01 +9.1018222956832808e+00 +0.0000000000000000e+00 -1.0605408810885301e+01 +1.1260769010911978e-02 -1.0316548776484755e+00 -5.8900889694988842e-02
-1.0705461970393101e+01 +9.1017123868421397e+00 +0.0000000000000000e+00 -1.0705459796968199e+01 +1.1260845954616438e-02 -1.0316573656622667e+00 -5.8901477652860586e-02
-1.0805513016845300e+01 +9.1016014459927401e+00 +0.0000000000000000e+00 -1.0805510781912000e+01 +1.1260924273758943e-02 -1.0316598427624915e+00 -5.8902059666354874e-02
-1.0905564063297600e+01 +9.1014894731368603e+00 +0.0000000000000000e+00 -1.0905561765706199e+01 +1.1261004309271459e-02 -1.0316623113316206e+00 -5.8902636118762682e-02
-1.1005615109749900e+01 +9.1013764682745109e+00 +0.0000000000000000e+00 -1.1005612748340100e+01 +1.1261086401655929e-02 -1.0316647737490043e+00 -5.8903207393477770e-02
-1.1105666156202100e+01 +9.1012624314038906e+00 +0.0000000000000000e+00 -1.1105663729803000e+01 +1.1261170890974621e-02 -1.0316672323908096e+00 -5.8903773873998318e-02
-1.1205717202654400e+01 +9.1011473625250208e+00 +0.0000000000000000e+00 -1.1205714710084401e+01 +1.1261258116840369e-02 -1.0316696896299369e+00 -5.8904335943927945e-02
-1.1305768249106700e+01 +9.1010312616396707e+00 +0.0000000000000000e+00 -1.1305765689173500e+01 +1.1261348418406935e-02 -1.0316721478359596e+00 -5.8904893986977222e-02
-1.1405819295559001e+01 +9.1009141287460693e+00 +0.0000000000000000e+00 -1.1405816667059700e+01 +1.1261442134359551e-02 -1.0316746093750662e+00 -5.8905448386965653e-02
-1.1505870342011200e+01 +9.1007959638459806e+00 +0.0000000000000000e+00 -1.1505867643732399e+01 +1.1261539602878606e-02 -1.0316770766097134e+00 -5.8905999527804030e-02
-1.1605921388463500e+01 +9.1006767669376405e+00 +0.0000000000000000e+00 -1.1605918619181001e+01 +1.1261641006346162e-02 -1.0316795503532652e+00 -5.8906547685267041e-02
-1.1705972434915800e+01 +9.1005565380228095e+00 +0.0000000000000000e+00 -1.1705969593394700e+01 +1.1261746005623208e-02 -1.0316820262282971e+00 -5.8907092771890622e-02
