# multipoles
# s[mm] polynom_b[n=0][T/m^n] polynom_b[n=1][T/m^n] polynom_b[n=2][T/m^n] polynom_b[n=3][T/m^n] polynom_b[n=4][T/m^n] polynom_b[n=5][T/m^n] polynom_b[n=6][T/m^n] 
-0.0000000000000000e+00 -1.0312415071511560e+00 +2.2840463017635741e+00 +2.1589673339080793e+01 +1.7543306898186239e+02 -3.4245220309733908e+04 -3.9393906441018643e+05 +2.1139651375762221e+08 
-1.0005104645227200e-01 -1.0312448868113413e+00 +2.2841632629549817e+00 +2.1727037158640957e+01 +1.7309967239946084e+02 -3.5995904083579568e+04 -3.7963037870583910e+05 +2.1721695904018378e+08 
-2.0010209290454301e-01 -1.0312483046502816e+00 +2.2842807329064998e+00 +2.1863471947008069e+01 +1.7071778635518237e+02 -3.7712586333067760e+04 -3.6500661774897162e+05 +2.2282057618949738e+08 
-3.0015313935681498e-01 -1.0312517512791772e+00 +2.2843978944550383e+00 +2.1998373985364903e+01 +1.6829875220136174e+02 -3.9385965530324138e+04 -3.5011999779129599e+05 +2.2816867439447972e+08 
-4.0020418580908601e-01 -1.0312552173092233e+00 +2.2845139304315225e+00 +2.2131139557872157e+01 +1.6585391133658163e+02 -4.1006740268999798e+04 -3.3502273433827877e+05 +2.3322256370317173e+08 
-5.0025523226135804e-01 -1.0312586933517125e+00 +2.2846280236681031e+00 +2.2261164966700139e+01 +1.6339460499858498e+02 -4.2565609550269619e+04 -3.1976704087625630e+05 +2.3794355638288724e+08 
-6.0030627871362996e-01 -1.0312621700179241e+00 +2.2847393570136592e+00 +2.2387846519901508e+01 +1.6093217379152898e+02 -4.4053272560294681e+04 -3.0440512597687932e+05 +2.4229296589867282e+08 
-7.0035732516590099e-01 -1.0312656379192389e+00 +2.2848471133488926e+00 +2.2510580545812218e+01 +1.5847795724285862e+02 -4.5460428955487288e+04 -2.8898919068501325e+05 +2.4623210829941010e+08 
-8.0040837161817302e-01 -1.0312690876670261e+00 +2.2849504755826380e+00 +2.2628763377026416e+01 +1.5604329390857961e+02 -4.6777778550168427e+04 -2.7357142906668782e+05 +2.4972230072528538e+08 
-9.0045941807044405e-01 -1.0312725098726678e+00 +2.2850486266825287e+00 +2.2741791359542486e+01 +1.5363952046862090e+02 -4.7996021516188201e+04 -2.5820402281955467e+05 +2.5272486243030936e+08 
-1.0005104645227201e+00 -1.0312758951475485e+00 +2.2851407496711285e+00 +2.2849060848206399e+01 +1.5127797183995258e+02 -4.9105858283607646e+04 -2.4293914189400739e+05 +2.5520111428146988e+08 
-1.1005615109749900e+00 -1.0312792341030901e+00 +2.2852260276454381e+00 +2.2949968214257577e+01 +1.4896998059283152e+02 -5.0097989705299857e+04 -2.2782894098970556e+05 +2.5711237960840303e+08 
-1.2006125574272599e+00 -1.0312825173507494e+00 +2.2853036437843541e+00 +2.3043909843405082e+01 +1.4672687672395347e+02 -5.0963117019354810e+04 -2.1292555816752851e+05 +2.5841998402725458e+08 
-1.3006636038795301e+00 -1.0312857355018876e+00 +2.2853727813631242e+00 +2.3130282123523575e+01 +1.4455998725878067e+02 -5.1691941623108716e+04 -1.9828111250288336e+05 +2.5908525439438045e+08 
-1.4007146503318000e+00 -1.0312888791679387e+00 +2.2854326237572495e+00 +2.3208481463192982e+01 +1.4248063608318714e+02 -5.2275165431612950e+04 -1.8394770293150094e+05 +2.5906952053288376e+08 
-1.5007656967840699e+00 -1.0312919389602635e+00 +2.2854823544671881e+00 +2.3277904277871176e+01 +1.4050014326017777e+02 -5.2703490624627062e+04 -1.6997740425645464e+05 +2.5833411406860429e+08 
-1.6008167432363500e+00 -1.0312949082795659e+00 +2.2855215131375699e+00 +2.3338126316616890e+01 +1.3862394744846560e+02 -5.2970677135614278e+04 -1.5639231866081076e+05 +2.5685429599168599e+08 
-1.7008677896886200e+00 -1.0312977914327033e+00 +2.2855510154580356e+00 +2.3389418215117047e+01 +1.3683531163222071e+02 -5.3082338404635244e+04 -1.4310234241926094e+05 +2.5465927097064254e+08 
-1.8009188361408901e+00 -1.0313005953922960e+00 +2.2855721096200181e+00 +2.3432218994740122e+01 +1.3511227473886143e+02 -5.3046962503223178e+04 -1.2999112596264540e+05 +2.5179131484394374e+08 
-1.9009698825931600e+00 -1.0313033271310239e+00 +2.2855860438574820e+00 +2.3466967684848232e+01 +1.3343287444182400e+02 -5.2873037659211186e+04 -1.1694231239938604e+05 +2.4829270418719408e+08 
-2.0010209290454299e+00 -1.0313059936216660e+00 +2.2855940664497809e+00 +2.3494103327170276e+01 +1.3177514708317949e+02 -5.2569052327364807e+04 -1.0383953721003378e+05 +2.4420571659423915e+08 
-2.1010719754977001e+00 -1.0313086018370419e+00 +2.2855974257188993e+00 +2.3514064965205296e+01 +1.3011712776898005e+02 -5.2143494975237896e+04 -9.0566429004186983e+04 +2.3957262960190785e+08 
-2.2011230219499698e+00 -1.0313111587501118e+00 +2.2855973700217671e+00 +2.3527291659120021e+01 +1.2843685062472520e+02 -5.1604854357368407e+04 -7.7006611199556559e+04 +2.3443572194956264e+08 
-2.3011740684022501e+00 -1.0313136713338817e+00 +2.2855951477483081e+00 +2.3534222469890150e+01 +1.2671234887294428e+02 -5.0961619193815321e+04 -6.3043702693715662e+04 +2.2883727197555602e+08 
-2.4012251148545198e+00 -1.0313161465615055e+00 +2.2855920073236189e+00 +2.3535296471177407e+01 +1.2492165476453488e+02 -5.0222278392159191e+04 -4.8561317586686178e+04 +2.2281955864145678e+08 
-2.5012761613067900e+00 -1.0313185914062277e+00 +2.2855891971976505e+00 +2.3530952741053245e+01 +1.2304279992827446e+02 -4.9395320870353884e+04 -3.3443067492890586e+04 +2.1642486061282390e+08 
-2.6013272077590601e+00 -1.0313210128414316e+00 +2.2855879658430682e+00 +2.3521630368607298e+01 +1.2105381543678079e+02 -4.8489235674951953e+04 -1.7572562039475022e+04 +2.0969545678531325e+08 
-2.7013782542113298e+00 -1.0313234178406065e+00 +2.2855895617586510e+00 +2.3507768445394731e+01 +1.1893273171818365e+02 -4.7512511801494788e+04 -8.3340857176139230e+02 +2.0267362535878515e+08 
-2.8014293006636000e+00 -1.0313258133773981e+00 +2.2855952334580301e+00 +2.3489806072690058e+01 +1.1665757891514993e+02 -4.6473638323771695e+04 +1.6890785570946136e+04 +1.9540164440988755e+08 
-2.9014803471158799e+00 -1.0313282064255920e+00 +2.2856062294742556e+00 +2.3468182357965464e+01 +1.1420638677004608e+02 -4.5381104313038733e+04 +3.5716413515962893e+04 +1.8792179144869399e+08 
-3.0015313935681500e+00 -1.0313306039591201e+00 +2.2856237983466037e+00 +2.3443336413470160e+01 +1.1155718503061622e+02 -4.4243398795987014e+04 +5.5759866308996818e+04 +1.8027634315777251e+08 
-3.1015824400204202e+00 -1.0313330129520486e+00 +2.2856491886276928e+00 +2.3415707355186051e+01 +1.0868800325034229e+02 -4.3069010727220775e+04 +7.7137533915388587e+04 +1.7250757522015026e+08 
-3.2016334864726899e+00 -1.0313354403786710e+00 +2.2856836488767924e+00 +2.3385734311036618e+01 +1.0557687099577232e+02 -4.1866429128424090e+04 +9.9965803831089550e+04 +1.6465776291087058e+08 
-3.3016845329249600e+00 -1.0313378932134156e+00 +2.2857284276523995e+00 +2.3353856408998908e+01 +1.0220181811278331e+02 -4.0644142852457000e+04 +1.2436105925676158e+05 +1.5676917993390679e+08 
-3.4017355793772301e+00 -1.0313403784308455e+00 +2.2857847735156356e+00 +2.3320512777686403e+01 +9.8540874613750631e+01 -3.9410640578038416e+04 +1.5043967968524146e+05 +1.4888409832344213e+08 
-3.5017866258295101e+00 -1.0313429030057981e+00 +2.2858539350023750e+00 +2.3286142557963103e+01 +9.4572071740349116e+01 -3.8174410984933522e+04 +1.7831803392253057e+05 +1.4104478912150019e+08 
-3.6018376722817802e+00 -1.0313454720266679e+00 +2.2859367812708751e+00 +2.3251098732285875e+01 +9.0281325492590668e+01 -3.6942210234837876e+04 +2.0807177204907461e+05 +1.3328461019645002e+08 
-3.7018887187340499e+00 -1.0313480835185924e+00 +2.2860327584437949e+00 +2.3215435760740338e+01 +8.5682208888883338e+01 -3.5714793485861570e+04 +2.3963782407279572e+05 +1.2560598087446494e+08 
-3.8019397651863200e+00 -1.0313507338546064e+00 +2.2861409775207857e+00 +2.3179144076229157e+01 +8.0794357117779143e+01 -3.4491624500974649e+04 +2.7292370766504266e+05 +1.1800463513846058e+08 
-3.9019908116385902e+00 -1.0313534194077423e+00 +2.2862605495218147e+00 +2.3142214115629777e+01 +7.5637404790689232e+01 -3.3272167212607659e+04 +3.0783694394222688e+05 +1.1047630807317516e+08 
-4.0020418580908599e+00 -1.0313561365510715e+00 +2.2863905854801923e+00 +2.3104636330199021e+01 +7.0230986165187375e+01 -3.2055885942421133e+04 +3.4428505622389680e+05 +1.0301673698038775e+08 
-4.1020929045431300e+00 -1.0313588816575681e+00 +2.2865301964372331e+00 +2.3066401166593572e+01 +6.4594735283575105e+01 -3.0842245043003553e+04 +3.8217556930523965e+05 +9.5621659688640833e+07 
-4.2021439509954099e+00 -1.0313616511001944e+00 +2.2866784934551880e+00 +2.3027499077749635e+01 +5.8748285604521925e+01 -2.9630709113533885e+04 +4.2141601160679979e+05 +8.8286815610648632e+07 
-4.3021949974476801e+00 -1.0313644412518717e+00 +2.2868345876025788e+00 +2.2987920520918479e+01 +5.2711270426215869e+01 -2.8420742973241220e+04 +4.6191391278597777e+05 +8.1007945658095032e+07 
-4.4022460438999502e+00 -1.0313672484854881e+00 +2.2869975899615387e+00 +2.2947655959006617e+01 +4.6503322672605442e+01 -2.7211811697080491e+04 +5.0357680501967820e+05 +7.3780792446512356e+07 
-4.5022970903522204e+00 -1.0313700691738708e+00 +2.2871666116210263e+00 +2.2906695859745284e+01 +4.0144075089789780e+01 -2.6003380607107298e+04 +5.4631222193711484e+05 +6.6601100281800799e+07 
-4.6023481368044896e+00 -1.0313728996897742e+00 +2.2873407636772018e+00 +2.2865030689905858e+01 +3.3653160228050304e+01 -2.4794915170365381e+04 +5.9002769873442675e+05 +5.9464614704477981e+07 
-4.7023991832567598e+00 -1.0313757364058940e+00 +2.2875191572360731e+00 +2.2822650923854304e+01 +2.7050210365296397e+01 -2.3585881176867966e+04 +6.3463077271809429e+05 +5.2367083389507875e+07 
-4.8024502297090397e+00 -1.0313785756948461e+00 +2.2877009034091480e+00 +2.2779547036536595e+01 +2.0354857651116262e+01 -2.2375744607472661e+04 +6.8002898243317846e+05 +4.5304255527294114e+07 
-4.9025012761613098e+00 -1.0313814139291688e+00 +2.2878851133121572e+00 +2.2735709506837242e+01 +1.3586734101655621e+01 -2.1163971712084131e+04 +7.2612986786509503e+05 +3.8271882244645409e+07 
-5.0025523226135800e+00 -1.0313842474813257e+00 +2.2880708980636832e+00 +2.2691128819682188e+01 +6.7654716875902157e+00 -1.9950029056519717e+04 +7.7284096985325066e+05 +3.1265716854268342e+07 
-5.1026033690658501e+00 -1.0313870727236454e+00 +2.2882573687847225e+00 +2.2645795456193234e+01 -8.9297688898664795e-02 -1.8733383345730756e+04 +8.2006983034585835e+05 +2.4281514052641772e+07 
-5.2026544155181202e+00 -1.0313898860283883e+00 +2.2884436365993701e+00 +2.2599699905231748e+01 -6.9579422092568235e+00 -1.7513501651012557e+04 +8.6772399254408746e+05 +1.7315031029906373e+07 
-5.3027054619703904e+00 -1.0313926837676932e+00 +2.2886288126297107e+00 +2.2552832655116863e+01 -1.3820829981067854e+01 -1.6289851262930222e+04 +9.1571099997271027e+05 +1.0362026805543046e+07 
-5.4027565084226703e+00 -1.0313954623135819e+00 +2.2888120080012819e+00 +2.2505184198130497e+01 -2.0658329200709108e+01 -1.5061899787163040e+04 +9.6393839753284678e+05 +3.4182627249832433e+06 
-5.5028075548749404e+00 -1.0313982180380634e+00 +2.2889923338472653e+00 +2.2456745039760271e+01 -2.7450808477534771e+01 -1.3829115364058447e+04 +1.0123137314210657e+06 -3.5204965620965376e+06 
-5.6028586013272097e+00 -1.0314009486750226e+00 +2.2891688462107522e+00 +2.2407569334397689e+01 -3.4177028203073576e+01 -1.2592020543517205e+04 +1.0607299152509221e+06 -1.0453782627259130e+07 
-5.7029096477794798e+00 -1.0314036567146450e+00 +2.2893404099947983e+00 +2.2357912878915865e+01 -4.0809180490896082e+01 -1.1354396769641571e+04 +1.1090217943974852e+06 -1.7366469794236824e+07 
-5.8029606942317500e+00 -1.0314063456816778e+00 +2.2895058503250243e+00 +2.2308070236742392e+01 -4.7317827426897253e+01 -1.0120633293416304e+04 +1.1570098934007711e+06 -2.4240659423541937e+07 
-5.9030117406840201e+00 -1.0314090191003400e+00 +2.2896639921794630e+00 +2.2258335906767869e+01 -5.3673526446488516e+01 -8.8951180839235476e+03 +1.2045147070893829e+06 -3.1058459205140512e+07 
-6.0030627871363000e+00 -1.0314116804942313e+00 +2.2898136603853310e+00 +2.2209004310488346e+01 -5.9846830242150503e+01 -7.6822375755449457e+03 +1.2513567000166471e+06 -3.7801984396536395e+07 
-6.1031138335885702e+00 -1.0314143333863037e+00 +2.2899536796134381e+00 +2.2160369790318924e+01 -6.5808286576633165e+01 -6.4863766370086278e+03 +1.2973563052537842e+06 -4.4453357965908431e+07 
-6.2031648800408403e+00 -1.0314169812988776e+00 +2.2900828743677408e+00 +2.2112726610058861e+01 -7.1528437975680561e+01 -5.3119185675256394e+03 +1.3423339225288278e+06 -5.0994710654032007e+07 
-6.3032159264931096e+00 -1.0314196277536036e+00 +2.2902000689806998e+00 +2.2066368950645355e+01 -7.6977821571216097e+01 -4.1632450162816049e+03 +1.3861099171775484e+06 -5.7408181355486698e+07 
-6.4032669729453797e+00 -1.0314222762714416e+00 +2.2903040876072120e+00 +2.2021590908160270e+01 -8.2126968925462620e+01 -3.0447359396043048e+03 +1.4285046190733502e+06 -6.3675917343574680e+07 
-6.5033180193976499e+00 -1.0314249303725931e+00 +2.2903937542150885e+00 +2.1978686482463836e+01 -8.6946405725946747e+01 -1.9607693767989554e+03 +1.4693383206744830e+06 -6.9780075361008078e+07 
-6.6033690658499298e+00 -1.0314275935765453e+00 +2.2904678925789104e+00 +2.1937949586946804e+01 -9.1406651599028308e+01 -9.1572163357970385e+02 +1.5084312758965478e+06 -7.5702820755422622e+07 
-6.7034201123021999e+00 -1.0314302694020008e+00 +2.2905253262747372e+00 +2.1899674035419711e+01 -9.5478219946901802e+01 +8.6032977195889842e+01 +1.5456036990460188e+06 -8.1426328745883718e+07 
-6.8034711587544701e+00 -1.0314329613668718e+00 +2.2905648786737651e+00 +2.1864153543165603e+01 -9.9131617756820489e+01 +1.0401221129005971e+03 +1.5806757636103397e+06 -8.6932784311135858e+07 
-6.9035222052067402e+00 -1.0314356729882221e+00 +2.2905853729329282e+00 +2.1831681720534363e+01 -1.0233734529213149e+02 +1.9421755336573149e+03 +1.6134676003497725e+06 -9.2204382850748911e+07 
-7.0035732516590103e+00 -1.0314384077823018e+00 +2.2905856319879518e+00 +2.1802552075033041e+01 -1.0506589590000517e+02 +2.7878250670350376e+03 +1.6437992960796121e+06 -9.7223330037676141e+07 
-7.1036242981112796e+00 -1.0314411692644587e+00 +2.2905644785490606e+00 +2.1777058001739142e+01 -1.0728775586583622e+02 +3.5727047914262134e+03 +1.6714908927422862e+06 -1.0197184269260547e+08 
-7.2036753445635497e+00 -1.0314439609491912e+00 +2.2905207350943169e+00 +2.1755492789749791e+01 -1.0897340419212001e+02 +4.2924509233583185e+03 +1.6963623859649284e+06 -1.0643214828232926e+08 
-7.3037263910158297e+00 -1.0314467863500199e+00 +2.2904532238587252e+00 +2.1738149603651646e+01 -1.1009331231029869e+02 +4.9427021745575485e+03 +1.7182337233834716e+06 -1.1058648663400652e+08 
-7.4037774374680998e+00 -1.0314496489795475e+00 +2.2903607668314563e+00 +2.1725321495408430e+01 -1.1061794393126938e+02 +5.5190995242591052e+03 +1.7369248035482361e+06 -1.1441710884867854e+08 
-7.5038284839203699e+00 -1.0314525523490918e+00 +2.2902421857964947e+00 +2.1717301368504504e+01 -1.1051775691425001e+02 +6.0172867656781746e+03 +1.7522554889724958e+06 -1.1790627946826287e+08 
-7.6038795303726401e+00 -1.0314554984457633e+00 +2.2900968892627893e+00 +2.1714241816419896e+01 -1.0977639427213667e+02 +6.4350207802855575e+03 +1.7641142396642223e+06 -1.2104485187159277e+08 
-7.7039305768249102e+00 -1.0314584840312020e+00 +2.2899264515593099e+00 +2.1715775717457248e+01 -1.0842465257976812e+02 +6.7780755399897398e+03 +1.7726312259538071e+06 -1.2385691866046818e+08 
-7.8039816232771804e+00 -1.0314615047400695e+00 +2.2897329508568944e+00 +2.1721413971363308e+01 -1.0650397943746800e+02 +7.0541504218205482e+03 +1.7779905300300042e+06 -1.2637470282726373e+08 
-7.9040326697294496e+00 -1.0314645562076097e+00 +2.2895184654946443e+00 +2.1730667515746145e+01 -1.0405582684468322e+02 +7.2709443914586118e+03 +1.7803762569281533e+06 -1.2863042611879036e+08 
-8.0040837161817304e+00 -1.0314676340696494e+00 +2.2892850739821222e+00 +2.1743047328428933e+01 -1.0112165123795251e+02 +7.4361559587331240e+03 +1.7799725345259681e+06 -1.3065630880021548e+08 
-8.1041347626340006e+00 -1.0314707339626241e+00 +2.2890348550081105e+00 +2.1758064427215235e+01 -9.7742913718776762e+01 +7.5574831973064902e+03 +1.7769635147451127e+06 -1.3248456978854595e+08 
-8.2041858090862707e+00 -1.0314738515236350e+00 +2.2887698874483720e+00 +2.1775229877170382e+01 -9.3961080282923476e+01 +7.6426236161484130e+03 +1.7715333748898038e+06 -1.3414742605869254e+08 
-8.3042368555385409e+00 -1.0314769823904562e+00 +2.2884922503718554e+00 +2.1794054790735963e+01 -8.9817621987283502e+01 +7.6992741590353717e+03 +1.7638663185572696e+06 -1.3567709263998675e+08 
-8.4042879019908092e+00 -1.0314801222015773e+00 +2.2882040230481553e+00 +2.1814050331073567e+01 -8.5354015154883328e+01 +7.7351311602800288e+03 +1.7541465767687969e+06 -1.3710578245469394e+08 
-8.5043389484430794e+00 -1.0314832665961635e+00 +2.2879072849547613e+00 +2.1834727707286827e+01 -8.0611741578739938e+01 +7.7578904413480614e+03 +1.7425584091296371e+06 -1.3846570678596202e+08 
-8.6043899948953602e+00 -1.0314864112141890e+00 +2.2876041157835418e+00 +2.1855598186750122e+01 -7.5632288704912895e+01 +7.7752470829939029e+03 +1.7292861048167052e+06 -1.3978907420433801e+08 
-8.7044410413476303e+00 -1.0314895516963714e+00 +2.2872965954449027e+00 +2.1876173090457069e+01 -7.0457149715680302e+01 +7.7948955278165522e+03 +1.7145139829865943e+06 -1.4110809109115618e+08 
-8.8044920877999004e+00 -1.0314926836842644e+00 +2.2869868040833143e+00 +2.1895963799365031e+01 -6.5127824016704025e+01 +7.8245294686321477e+03 +1.6984263956534998e+06 -1.4245496112344915e+08 
-8.9045431342521706e+00 -1.0314958028202252e+00 +2.2866768220747624e+00 +2.1914481751816499e+01 -5.9685817119958330e+01 +7.8718419063539068e+03 +1.6812077268738083e+06 -1.4386188557101777e+08 
-9.0045941807044407e+00 -1.0314989047474949e+00 +2.2863687300403264e+00 +2.1931238451637526e+01 -5.4172641037585620e+01 +7.9445250011857033e+03 +1.6630423950191718e+06 -1.4536106259170106e+08 
-9.1046452271567109e+00 -1.0315019851101941e+00 +2.2860646088484367e+00 +2.1945745466705009e+01 -4.8629814330268466e+01 +8.0502701173663881e+03 +1.6441148529878543e+06 -1.4698468748943627e+08 
-9.2046962736089899e+00 -1.0315050395533596e+00 +2.2857665396282498e+00 +2.1957514431261437e+01 -4.3098862506872571e+01 +8.1967677856529717e+03 +1.6246095905219337e+06 -1.4876495254845327e+08 
-9.3047473200612600e+00 -1.0315080637229410e+00 +2.2854766037668015e+00 +2.1966057046582005e+01 -3.7621317905915227e+01 +8.3917076959292590e+03 +1.6047111334148115e+06 -1.5073404700313434e+08 
-9.4047983665135302e+00 -1.0315110532658980e+00 +2.2851968829284153e+00 +2.1970885089460172e+01 -3.2238720271429870e+01 +8.6427785527337637e+03 +1.5846040468604660e+06 -1.5292415639340112e+08 
-9.5048494129658003e+00 -1.0315140038303501e+00 +2.2849294590231457e+00 +2.1971510422765061e+01 -2.6992615188087175e+01 +8.9576680483862037e+03 +1.5644729350630564e+06 -1.5536746204108122e+08 
-9.6049004594180705e+00 -1.0315169120415666e+00 +2.2846759815072728e+00 +2.1967593252368509e+01 -2.1916121228558239e+01 +9.3416482689719851e+03 +1.5444669945797462e+06 -1.5808564075641075e+08 
-9.7049515058703406e+00 -1.0315197780208853e+00 +2.2844364010059239e+00 +2.1959370259618808e+01 -1.7010728589575827e+01 +9.7904105701532008e+03 +1.5246020594469153e+06 -1.6105862056998736e+08 
-9.8050025523226108e+00 -1.0315226026785214e+00 +2.2842102482528350e+00 +2.1947219013221119e+01 -1.2270404467450250e+01 +1.0297268583307718e+04 +1.5048622956793890e+06 -1.6425594197530869e+08 
-9.9050535987748898e+00 -1.0315253869245338e+00 +2.2839970539166337e+00 +2.1931517068559067e+01 -7.6891144178856576e+00 +1.0855536162854922e+04 +1.4852318608548557e+06 -1.6764714648160470e+08 
-1.0005104645227201e+01 -1.0315281316688860e+00 +2.2837963485944783e+00 +2.1912641979880981e+01 -3.2608221419586210e+00 +1.1458527148385805e+04 +1.4656949029975324e+06 -1.7120177548089787e+08 
-1.0105155691679400e+01 -1.0315308378214145e+00 +2.2836076628095610e+00 +2.1890971292740883e+01 +1.0205105539364947e+00 +1.2099555505493816e+04 +1.4462355604502726e+06 -1.7488937090627202e+08 
