# multipoles
# s[mm] polynom_b[n=0][T/m^n] polynom_b[n=1][T/m^n] polynom_b[n=2][T/m^n] polynom_b[n=3][T/m^n] polynom_b[n=4][T/m^n] polynom_b[n=5][T/m^n] polynom_b[n=6][T/m^n] 
+0.0000000000000000e+00 -1.0327381494823591e+00 +2.3277154462675309e+00 +1.0741592618561372e+01 -1.0077137833126885e+03 +1.5140448837311674e+05 +5.6315670394737599e+06 -5.8248933160338271e+08 
-1.0000000000000001e-01 -1.0327372242376318e+00 +2.3276107088310569e+00 +1.0734798073430682e+01 -1.0069878342627310e+03 +1.5150029029470269e+05 +5.6301908561131069e+06 -5.8206124179573274e+08 
-2.0000000000000001e-01 -1.0327363965341569e+00 +2.3274633608034248e+00 +1.0733806801720721e+01 -1.0051209721000583e+03 +1.5150501550657375e+05 +5.6229682344827326e+06 -5.8122029122093189e+08 
-3.0000000000000004e-01 -1.0327356619603099e+00 +2.3272762726286240e+00 +1.0738524220345742e+01 -1.0021894005681805e+03 +1.5142078703331022e+05 +5.6103299948046990e+06 -5.7998385968736947e+08 
-4.0000000000000002e-01 -1.0327350161043032e+00 +2.3270523147099018e+00 +1.0748855737214393e+01 -9.9826932247043555e+02 +1.5124972785956354e+05 +5.5927069524568850e+06 -5.7836932600751626e+08 
-5.0000000000000000e-01 -1.0327344545541668e+00 +2.3267943574081733e+00 +1.0764706747800629e+01 -9.9343693955664708e+02 +1.5099396100073517e+05 +5.5705299173813611e+06 -5.7639406835418820e+08 
-5.9999999999999998e-01 -1.0327339728978366e+00 +2.3265052710386080e+00 +1.0785982645747136e+01 -9.8776845239570548e+02 +1.5065560931170644e+05 +5.5442296935553718e+06 -5.7407546339741123e+08 
-6.9999999999999996e-01 -1.0327335667231796e+00 +2.3261879258600038e+00 +1.0812588826384300e+01 -9.8134006002159674e+02 +1.5023679541755130e+05 +5.5142370770603074e+06 -5.7143088597184944e+08 
-7.9999999999999993e-01 -1.0327332316180382e+00 +2.3258451920793113e+00 +1.0844430690591523e+01 -9.7422796001600477e+02 +1.4973964165591574e+05 +5.4809828567100344e+06 -5.6847770886190355e+08 
-8.9999999999999991e-01 -1.0327329631702813e+00 +2.3254799398448918e+00 +1.0881413651908741e+01 -9.6650834830565509e+02 +1.4916626994034855e+05 +5.4448978131215218e+06 -5.6523330215731204e+08 
-9.9999999999999989e-01 -1.0327327569678435e+00 +2.3250950392321865e+00 +1.0923443139697167e+01 -9.5825741865237273e+02 +1.4851880171358571e+05 +5.4064127157541616e+06 -5.6171503307648969e+08 
-1.0999999999999999e+00 -1.0327326085987989e+00 +2.3246933602573203e+00 +1.0970424609622551e+01 -9.4955136305206429e+02 +1.4779935774276557e+05 +5.3659583255153568e+06 -5.5794026499075389e+08 
-1.2000000000000000e+00 -1.0327325136513477e+00 +2.3242777728581370e+00 +1.1022263539986417e+01 -9.4046637112587860e+02 +1.4701005820854823e+05 +5.3239653913371926e+06 -5.5392635791148782e+08 
-1.3000000000000000e+00 -1.0327324677139389e+00 +2.3238511468958700e+00 +1.1078865447719204e+01 -9.3107863012230825e+02 +1.4615302239571142e+05 +5.2808646503111515e+06 -5.4969066701371706e+08 
-1.4000000000000001e+00 -1.0327324663752246e+00 +2.3234163521521749e+00 +1.1140135881327588e+01 -9.2146432480689475e+02 +1.4523036884265608e+05 +5.2370868272707146e+06 -5.4525054340196049e+08 
-1.5000000000000002e+00 -1.0327325052242045e+00 +2.3229762583215594e+00 +1.1205980439366648e+01 -9.1169963718260522e+02 +1.4424421498593054e+05 +5.1930626332760733e+06 -5.4062333241422939e+08 
-1.6000000000000003e+00 -1.0327325805482730e+00 +2.3225330652753478e+00 +1.1276304448734791e+01 -9.0184293214500258e+02 +1.4319652211273930e+05 +5.1491185733237946e+06 -5.3582374760841149e+08 
-1.7000000000000004e+00 -1.0327326912639576e+00 +2.3220862937728231e+00 +1.1351001269249004e+01 -8.9188051259355655e+02 +1.4208876660910959e+05 +5.1051554684903175e+06 -5.3085635790843827e+08 
-1.8000000000000005e+00 -1.0327328369041642e+00 +2.3216347946591180e+00 +1.1429958582270032e+01 -8.8178045846891098e+02 +1.4092233682310587e+05 +5.0609654280790966e+06 -5.2572327690020293e+08 
-1.9000000000000006e+00 -1.0327330170015934e+00 +2.3211774187309007e+00 +1.1513064047633028e+01 -8.7151084817083449e+02 +1.3969862142169889e+05 +5.0163405525418175e+06 -5.2042661933069909e+08 
-2.0000000000000004e+00 -1.0327332310888571e+00 +2.3207130167369510e+00 +1.1600205317282098e+01 -8.6103975859745515e+02 +1.3841900914326959e+05 +4.9710729336545616e+06 -5.1496849997351295e+08 
-2.1000000000000005e+00 -1.0327334786983924e+00 +2.3202404393887712e+00 +1.1691270024951995e+01 -8.5033526542945219e+02 +1.3708488899816995e+05 +4.9249546559179118e+06 -5.0935103460106826e+08 
-2.2000000000000006e+00 -1.0327337593624175e+00 +2.3197585373485392e+00 +1.1786145779340746e+01 -8.3936544278350448e+02 +1.3569765041465516e+05 +4.8777777944165990e+06 -5.0357634072896951e+08 
-2.3000000000000007e+00 -1.0327340726129219e+00 +2.3192661612531746e+00 +1.1884720162607108e+01 -8.2809836390843827e+02 +1.3425868327357143e+05 +4.8293344186679441e+06 -4.9764653780407983e+08 
-2.4000000000000008e+00 -1.0327344179816460e+00 +2.3187621616955632e+00 +1.1986880727325207e+01 -8.1650210061944745e+02 +1.3276937797944873e+05 +4.7794165891320212e+06 -4.9156374758528918e+08 
-2.5000000000000009e+00 -1.0327347950000194e+00 +2.3182453892366479e+00 +1.2092514988973797e+01 -8.0454472365005017e+02 +1.3123112560639987e+05 +4.7278163590762848e+06 -4.8533009485235548e+08 
-2.6000000000000010e+00 -1.0327352031991575e+00 +2.3177146944153435e+00 +1.2201510423460956e+01 -7.9219430293838002e+02 +1.2964531796581911e+05 +4.6743257760939784e+06 -4.7894770779005867e+08 
-2.7000000000000011e+00 -1.0327356421098710e+00 +2.3171689277371939e+00 +1.2313754469749101e+01 -7.7941890727771852e+02 +1.2801334755159226e+05 +4.6187368798296619e+06 -4.7241871771929753e+08 
-2.8000000000000012e+00 -1.0327361112625371e+00 +2.3166069396852800e+00 +1.2429134511653899e+01 -7.6618660464833351e+02 +1.2633660791254738e+05 +4.5608417038010685e+06 -4.6574526095090449e+08 
-2.9000000000000012e+00 -1.0327366101871647e+00 +2.3160275807212312e+00 +1.2547537886511313e+01 -7.5246546221443327e+02 +1.2461649348252913e+05 +4.5004322751197461e+06 -4.5892947796421856e+08 
-3.0000000000000013e+00 -1.0327371384132995e+00 +2.3154297012868095e+00 +1.2668851871997488e+01 -7.3822354637856381e+02 +1.2285439985476439e+05 +4.4373006146719689e+06 -4.5197351478916276e+08 
-3.1000000000000014e+00 -1.0327376954700505e+00 +2.3148121518089839e+00 +1.2792963690303385e+01 -7.2342892292151805e+02 +1.2105172369554895e+05 +4.3712387377406349e+06 -4.4487952257785809e+08 
-3.2000000000000015e+00 -1.0327382808860215e+00 +2.3141737827012836e+00 +1.2919760497207076e+01 -7.0804965703839969e+02 +1.1920986298067012e+05 +4.3020386540485648e+06 -4.3764965881652075e+08 
-3.3000000000000016e+00 -1.0327388941893048e+00 +2.3135134443640255e+00 +1.3049129382673486e+01 -6.9205381331438321e+02 +1.1733021697763899e+05 +4.2294923673592433e+06 -4.3028608722918916e+08 
-3.4000000000000017e+00 -1.0327395349074291e+00 +2.3128299871898803e+00 +1.3180957362622079e+01 -6.7540945592296077e+02 +1.1541418642171466e+05 +4.1533918765748851e+06 -4.2279097867549008e+08 
-3.5000000000000018e+00 -1.0327402025673598e+00 +2.3121222615660968e+00 +1.3315131378621423e+01 -6.5808464865625342e+02 +1.1346317352685246e+05 +4.0735291755592823e+06 -4.1516651122606218e+08 
-3.6000000000000019e+00 -1.0327408959825244e+00 +2.3113897935029177e+00 +1.3451499946088111e+01 -6.4006590752011937e+02 +1.1147913458514334e+05 +3.9898014232898001e+06 -4.0741760486696285e+08 
-3.7000000000000020e+00 -1.0327416114078654e+00 +2.3106348141843531e+00 +1.3589770481796162e+01 -6.2141390788153785e+02 +1.0946619529990178e+05 +3.9025316222855868e+06 -3.9956053465146041e+08 
-3.8000000000000020e+00 -1.0327423445323447e+00 +2.3098602328929743e+00 +1.3729618223471761e+01 -6.0220800490750639e+02 +1.0742901419275792e+05 +3.8121509184913500e+06 -3.9161453231649387e+08 
-3.9000000000000021e+00 -1.0327430910453488e+00 +2.3090689589505788e+00 +1.3870718451948191e+01 -5.8252755447424181e+02 +1.0537224915091862e+05 +3.7190904611801272e+06 -3.8359882732814103e+08 
-4.0000000000000018e+00 -1.0327438466367007e+00 +2.3082639017274706e+00 +1.4012746492390550e+01 -5.6245191331529770e+02 +1.0330055740573257e+05 +3.6237814032432321e+06 -3.7553264677333510e+08 
-4.1000000000000014e+00 -1.0327446069967301e+00 +2.3074479706419373e+00 +1.4155377723109023e+01 -5.4206043899004987e+02 +1.0121859537310098e+05 +3.5266549009732972e+06 -3.6743521463915181e+08 
-4.2000000000000011e+00 -1.0327453678162570e+00 +2.3066240751719995e+00 +1.4298287571356374e+01 -5.2143249022291627e+02 +9.9131018762023319e+04 +3.4281421160551440e+06 -3.5932575243011296e+08 
-4.3000000000000007e+00 -1.0327461247867102e+00 +2.3057951248547370e+00 +1.4441151528662918e+01 -5.0064742682492420e+02 +9.7042482281284058e+04 +3.3286742149632932e+06 -3.5122347778115183e+08 
-4.4000000000000004e+00 -1.0327468736000887e+00 +2.3049640292914964e+00 +1.4583645144572683e+01 -4.7978460984422082e+02 +9.4957639784010433e+04 +3.2286823698468427e+06 -3.4314760523686510e+08 
-4.5000000000000000e+00 -1.0327476099490727e+00 +2.3041336981525591e+00 +1.4725444040406261e+01 -4.5892340168142277e+02 +9.2881144013695768e+04 +3.1285977591742012e+06 -3.3511734508227003e+08 
-4.5999999999999996e+00 -1.0327483295270357e+00 +2.3033070411852599e+00 +1.4866223909358560e+01 -4.3814316628927475e+02 +9.0817646617944571e+04 +3.0288515687994570e+06 -3.2715190346541888e+08 
-4.6999999999999993e+00 -1.0327490280280152e+00 +2.3024869682187190e+00 +1.5005660512859121e+01 -4.1752326928331479e+02 +8.8771798231397799e+04 +2.9298749925565696e+06 -3.1927048285233343e+08 
-4.7999999999999989e+00 -1.0327497011468871e+00 +2.3016763891643937e+00 +1.5143429700565868e+01 -3.9714307795306860e+02 +8.6748248113882539e+04 +2.8320992323235986e+06 -3.1149228037123662e+08 
-4.8999999999999986e+00 -1.0327503445793009e+00 +2.3008782140226516e+00 +1.5279207402943403e+01 -3.7708196141431540e+02 +8.4751644297052815e+04 +2.7359554988214360e+06 -3.0383648854367155e+08 
-4.9999999999999982e+00 -1.0327509540217825e+00 +2.3000953528907266e+00 +1.5412669642200562e+01 -3.5741929082015145e+02 +8.2786633397953032e+04 +2.6418750128092570e+06 -2.9632229447457260e+08 
-5.0999999999999979e+00 -1.0327515251716930e+00 +2.2993307159609051e+00 +1.5543492527215847e+01 -3.3823443928259377e+02 +8.0857860725510065e+04 +2.5502890045646154e+06 -2.8896888040658402e+08 
-5.1999999999999975e+00 -1.0327520537273776e+00 +2.2985872135360719e+00 +1.5671352270826732e+01 -3.1960678231154071e+02 +7.8969969967970595e+04 +2.4616287164245755e+06 -2.8179542229099596e+08 
-5.2999999999999972e+00 -1.0327525353881126e+00 +2.2978677560246727e+00 +1.5795925183016362e+01 -3.0161569763013853e+02 +7.7127603334466665e+04 +2.3763254016239480e+06 -2.7482109051780421e+08 
-5.3999999999999968e+00 -1.0327529658541910e+00 +2.2971752539479353e+00 +1.5916887680319578e+01 -2.8434056537261591e+02 +7.5335401391433639e+04 +2.2948103254338857e+06 -2.6806504919195423e+08 
-5.4999999999999964e+00 -1.0327533408269787e+00 +2.2965126179341806e+00 +1.6033916291406811e+01 -2.6786076756360234e+02 +7.3598003024097023e+04 +2.2175147622062070e+06 -2.6154645610046998e+08 
-5.5999999999999961e+00 -1.0327536574255711e+00 +2.2958819843030995e+00 +1.6146832392787054e+01 -2.5223381416195747e+02 +7.1918040785554113e+04 +2.1447523726226017e+06 -2.5527684577591512e+08 
-5.6999999999999957e+00 -1.0327539183090146e+00 +2.2952823356712195e+00 +1.6256071498705051e+01 -2.3743066938981019e+02 +7.0289013993839486e+04 +2.0763757090276072e+06 -2.4923117421765378e+08 
-5.7999999999999954e+00 -1.0327541274965664e+00 +2.2947118446985049e+00 +1.6362232746032344e+01 -2.2340063305855872e+02 +6.8701841289884382e+04 +2.0121229356557685e+06 -2.4337364984878540e+08 
-5.8999999999999950e+00 -1.0327542890072277e+00 +2.2941686837933415e+00 +1.6465915250674819e+01 -2.1009299738078604e+02 +6.7147441508049771e+04 +1.9517321739298080e+06 -2.3766848135443082e+08 
-5.9999999999999947e+00 -1.0327544068596688e+00 +2.2936510251160649e+00 +1.6567718093856705e+01 -1.9745704709978861e+02 +6.5616733959456440e+04 +1.8949415029823168e+06 -2.3207987904504842e+08 
-6.0999999999999943e+00 -1.0327544850722410e+00 +2.2931570405827761e+00 +1.6668240325696196e+01 -1.8544205962127555e+02 +6.4100638344769039e+04 +1.8414889605455131e+06 -2.2657205437982965e+08 
-6.1999999999999940e+00 -1.0327545276629126e+00 +2.2926849018418300e+00 +1.6768080956506957e+01 -1.7399730431357114e+02 +6.2590074915611207e+04 +1.7911125389011872e+06 -2.2110922071164352e+08 
-6.2999999999999936e+00 -1.0327545386492376e+00 +2.2922327802721858e+00 +1.6867838954001950e+01 -1.6307204247878718e+02 +6.1075964508413119e+04 +1.7435501848437244e+06 -2.1565559338278866e+08 
-6.3999999999999932e+00 -1.0327545220484025e+00 +2.2917988469697526e+00 +1.6968113249643196e+01 -1.5261552695837543e+02 +5.9549228416709171e+04 +1.6985397974627649e+06 -2.1017538908907682e+08 
-6.4999999999999929e+00 -1.0327544818771213e+00 +2.2913812727333691e+00 +1.7069502725908073e+01 -1.4257700174083220e+02 +5.8000788618756451e+04 +1.6558192259724278e+06 -2.0463282691148737e+08 
-6.5999999999999925e+00 -1.0327544221516418e+00 +2.2909782280597542e+00 +1.7172606217767164e+01 -1.3290570180439124e+02 +5.6421567739180013e+04 +1.6151262688431821e+06 -1.9899212809360430e+08 
-6.6999999999999922e+00 -1.0327543468877671e+00 +2.2905878831273365e+00 +1.7278022515935991e+01 -1.2355085266592889e+02 +5.4802488971556078e+04 +1.5761986712943327e+06 -1.9321751562021327e+08 
-6.7999999999999918e+00 -1.0327542601007615e+00 +2.2902084077957374e+00 +1.7386350355861016e+01 -1.1446167037917614e+02 +5.3134476276728608e+04 +1.5387741253970515e+06 -1.8727321511782613e+08 
-6.8999999999999915e+00 -1.0327541658053907e+00 +2.2898379715835619e+00 +1.7498188422707585e+01 -1.0558736087189675e+02 +5.1408454280505233e+04 +1.5025902662455593e+06 -1.8112345433848083e+08 
-6.9999999999999911e+00 -1.0327540680158407e+00 +2.2894747436650373e+00 +1.7614135342298429e+01 -9.6877119880364020e+01 +4.9615348428186910e+04 +1.4673846717259062e+06 -1.7473246383391494e+08 
-7.0999999999999908e+00 -1.0327539707457192e+00 +2.2891168928559491e+00 +1.7734789681927936e+01 -8.8280132528224129e+01 +4.7746084957751278e+04 +1.4328948601149304e+06 -1.6806447678543404e+08 
-7.1999999999999904e+00 -1.0327538780080805e+00 +2.2887625876073421e+00 +1.7860749953527737e+01 -7.9745573160032407e+01 +4.5791590830517998e+04 +1.3988582892194574e+06 -1.6108372863808060e+08 
-7.2999999999999901e+00 -1.0327537938153064e+00 +2.2884099959908224e+00 +1.7992614599650054e+01 -7.1222604918494085e+01 +4.3742793983762866e+04 +1.3650123540103028e+06 -1.5375445825419056e+08 
-7.3999999999999897e+00 -1.0327537221791763e+00 +2.2880572856921622e+00 +1.8130982002945625e+01 -6.2660379564911509e+01 +4.1590623136919974e+04 +1.3310943856560767e+06 -1.4604090694175529e+08 
-7.4999999999999893e+00 -1.0327536671107056e+00 +2.2877026239965996e+00 +1.8276450464601737e+01 -5.4008038132035068e+01 +3.9326008060806955e+04 +1.2968416560469524e+06 -1.3790731943076932e+08 
-7.5999999999999890e+00 -1.0327536312457388e+00 +2.2873442248616662e+00 +1.8429391002859106e+01 -4.5218912819074333e+01 +3.6943216063505381e+04 +1.2620123480941914e+06 -1.2933038923869292e+08 
-7.6999999999999886e+00 -1.0327536114826430e+00 +2.2869806809103146e+00 +1.8589225236098684e+01 -3.6261119741990008e+01 +3.4450911278394247e+04 +1.2264168100078125e+06 -1.2034154669492525e+08 
-7.7999999999999883e+00 -1.0327536031925384e+00 +2.2866107339923900e+00 +1.8755121474493297e+01 -2.7106186088256877e+01 +3.1861705605308609e+04 +1.1898711781061122e+06 -1.1098744462658508e+08 
-7.8999999999999879e+00 -1.0327536017455092e+00 +2.2862331265070215e+00 +1.8926247892354915e+01 -1.7725655042721307e+01 +2.9188213613382752e+04 +1.1521916742881341e+06 -1.0131474829255794e+08 
-7.9999999999999876e+00 -1.0327536025108714e+00 +2.2858466013805985e+00 +1.9101772571335271e+01 -8.0910862134830843e+00 +2.6443051759633847e+04 +1.1131946154784430e+06 -9.1370132238828331e+07 
-8.0999999999999872e+00 -1.0327536008570208e+00 +2.2854499020834509e+00 +1.9280863480641447e+01 +1.8259438436317028e+00 +2.3638838777923142e+04 +1.0726964166610299e+06 -8.1200282185150117e+07 
-8.1999999999999869e+00 -1.0327535921515165e+00 +2.2850417726491266e+00 +1.9462688488427947e+01 +1.2053841004164141e+01 +2.0788195459779105e+04 +1.0305135945139889e+06 -7.0851893971802026e+07 
-8.2999999999999865e+00 -1.0327535717609913e+00 +2.2846209577012946e+00 +1.9646415349929349e+01 +2.2620992763531415e+01 +1.7903744889471676e+04 +9.8646277208264114e+05 -6.0371674702542424e+07 
-8.3999999999999861e+00 -1.0327535350511416e+00 +2.2841862024597299e+00 +1.9831211706818131e+01 +3.3555768012167597e+01 +1.4998112457268217e+04 +9.4036068009247899e+05 -4.9806342809267603e+07 
-8.4999999999999858e+00 -1.0327534773866986e+00 +2.2837362527705243e+00 +2.0016245083227972e+01 +4.4886516120322717e+01 +1.2083925946767557e+04 +8.9202416223557375e+05 -3.9202628501246564e+07 
-8.5999999999999854e+00 -1.0327533941314289e+00 +2.2832698551196344e+00 +2.0200682886270524e+01 +5.6641566488537116e+01 +9.1738155228198102e+03 +8.4127017781727633e+05 -2.8607273696366981e+07 
-8.6999999999999851e+00 -1.0327532806480855e+00 +2.2827857566534151e+00 +2.0383692399899488e+01 +6.8849227917117716e+01 +6.2804138544981870e+03 +7.8791580536663218e+05 -1.8067032624361787e+07 
-8.7999999999999847e+00 -1.0327531322983805e+00 +2.2822827051976700e+00 +2.0564440781029152e+01 +8.1537788003093695e+01 +3.4163562014732202e+03 +7.3177824615761358e+05 -7.6286722719561616e+06 
-8.8999999999999844e+00 -1.0327529444429933e+00 +2.2817594492791415e+00 +2.0742095062132154e+01 +9.4735512470947526e+01 +5.9428035292106551e+02 +6.7267482808792754e+05 +2.6610279443836347e+06 
-8.9999999999999840e+00 -1.0327527124415123e+00 +2.2812147381392105e+00 +2.0915822141937170e+01 +1.0847064473033443e+02 -2.1731731693071501e+03 +6.1042300823632232e+05 +1.2755275135860184e+07 
-9.0999999999999837e+00 -1.0327524316524002e+00 +2.2806473217588104e+00 +2.1084788782942987e+01 +1.2277140511240547e+02 -4.8733610786023128e+03 +5.4484037728550844e+05 +2.2607262837755240e+07 
-9.1999999999999833e+00 -1.0327520974330604e+00 +2.2800559508730642e+00 +2.1248161618910853e+01 +1.3766599039244824e+02 -7.4936374467417645e+03 +4.7574466230309469e+05 +3.2170171537527401e+07 
-9.2999999999999829e+00 -1.0327517051396378e+00 +2.2794393769972463e+00 +2.1405107130326659e+01 +1.5318257299599080e+02 -1.0021353239526996e+04 +4.0295373133228812e+05 +4.1397166475310810e+07 
-9.3999999999999826e+00 -1.0327512501272202e+00 +2.2787963524361747e+00 +2.1554791669504215e+01 +1.6934930068037681e+02 -1.2443856788438221e+04 +3.2628559524437337e+05 +5.0241399875540935e+07 
-9.4999999999999822e+00 -1.0327507277497980e+00 +2.2781256304116266e+00 +2.1696381472419883e+01 +1.8619429374754745e+02 -1.4748493991628226e+04 +2.4555842524319064e+05 +5.8656012081691302e+07 
-9.5999999999999819e+00 -1.0327501344178600e+00 +2.2774268275368552e+00 +2.1829226935460678e+01 +2.0372589708695989e+02 -1.6925324520191665e+04 +1.6069999252138674e+05 +6.6604271582318254e+07 
-9.6999999999999815e+00 -1.0327494712033589e+00 +2.2767028577397990e+00 +2.1953377867225903e+01 +2.2186971639008721e+02 -1.8974138453024039e+04 +7.2119739742952152e+04 +7.4082643640106946e+07 
-9.7999999999999812e+00 -1.0327487405086617e+00 +2.2759574366405322e+00 +2.2069058406040199e+01 +2.4052915645867427e+02 -2.0897002822934799e+04 -1.9636864900589295e+04 +8.1094480839901552e+07 
-9.8999999999999808e+00 -1.0327479447383341e+00 +2.2751942796861782e+00 +2.2176492934280937e+01 +2.5960762349160012e+02 -2.2695988536444424e+04 -1.1402434262989287e+05 +8.7643150368708700e+07 
-9.9999999999999805e+00 -1.0327470862989154e+00 +2.2744171021077944e+00 +2.2275906051032401e+01 +2.7900852952812539e+02 -2.4373170196218613e+04 -2.1049724696229043e+05 +9.3732035128654793e+07 
-1.0099999999999980e+01 -1.0327461675990162e+00 +2.2736296189104710e+00 +2.2367522583557108e+01 +2.9863529272130990e+02 -2.5930626307560375e+04 -3.0851016522502643e+05 +9.9364534669359401e+07 
