# field on trajectory
# s[mm] rx[mm] ry[mm] rz[mm] bx[T] by[T] bz[T]
-0.0000000000000000e+00 +9.1476323485342608e+00 +0.0000000000000000e+00 -0.0000000000000000e+00 +2.7915209444270026e-04 -1.0365921488593222e+00 -3.6686148009087527e-03
-1.0000000000000001e-01 +9.1476318316365202e+00 +0.0000000000000000e+00 -9.9999999998218805e-02 +2.7914588339083901e-04 -1.0365919318181118e+00 -3.6684123290994905e-03
-2.0000000000000001e-01 +9.1476302809427192e+00 +0.0000000000000000e+00 -1.9999999998574999e-01 +2.7911666811972799e-04 -1.0365916423719070e+00 -3.6681933695325653e-03
-2.9999999999999999e-01 +9.1476276964536503e+00 +0.0000000000000000e+00 -2.9999999995190701e-01 +2.7906531902265519e-04 -1.0365912894011171e+00 -3.6679555581661436e-03
-4.0000000000000002e-01 +9.1476240781675404e+00 +0.0000000000000000e+00 -3.9999999988600199e-01 +2.7899270639449616e-04 -1.0365908817855931e+00 -3.6676965309580313e-03
-5.0000000000000000e-01 +9.1476194260861501e+00 +0.0000000000000000e+00 -4.9999999977734699e-01 +2.7889970043673480e-04 -1.0365904284046337e+00 -3.6674139238455522e-03
-5.9999999999999998e-01 +9.1476137402094899e+00 +0.0000000000000000e+00 -5.9999999961525596e-01 +2.7878717126250988e-04 -1.0365899381370143e+00 -3.6671053727257243e-03
-6.9999999999999996e-01 +9.1476070205357907e+00 +0.0000000000000000e+00 -6.9999999938904001e-01 +2.7865598890165088e-04 -1.0365894198610064e+00 -3.6667685134353107e-03
-8.0000000000000004e-01 +9.1475992670650292e+00 +0.0000000000000000e+00 -7.9999999908801400e-01 +2.7850702330570426e-04 -1.0365888824543881e+00 -3.6664009817307581e-03
-9.0000000000000002e-01 +9.1475904798007797e+00 +0.0000000000000000e+00 -8.9999999870148795e-01 +2.7834114435296668e-04 -1.0365883347944589e+00 -3.6660004132681823e-03
-1.0000000000000000e+00 +9.1475806587394892e+00 +0.0000000000000000e+00 -9.9999999821877705e-01 +2.7815922185354166e-04 -1.0365877857580805e+00 -3.6655644435837102e-03
-1.1000000000000001e+00 +9.1475698038829201e+00 +0.0000000000000000e+00 -1.0999999976291901e+00 +2.7796251500997697e-04 -1.0365872431212251e+00 -3.6650912315575549e-03
-1.2000000000000000e+00 +9.1475579152292994e+00 +0.0000000000000000e+00 -1.1999999969220501e+00 +2.7775384082912063e-04 -1.0365867102578354e+00 -3.6645810298973252e-03
-1.3000000000000000e+00 +9.1475449927804107e+00 +0.0000000000000000e+00 -1.2999999960866500e+00 +2.7753640584163872e-04 -1.0365861894415018e+00 -3.6640346147663498e-03
-1.3999999999999999e+00 +9.1475310365362503e+00 +0.0000000000000000e+00 -1.3999999951123201e+00 +2.7731341668603562e-04 -1.0365856829460798e+00 -3.6634527623226974e-03
-1.5000000000000000e+00 +9.1475160464950402e+00 +0.0000000000000000e+00 -1.4999999939883699e+00 +2.7708808013967066e-04 -1.0365851930458145e+00 -3.6628362487316798e-03
-1.6000000000000001e+00 +9.1475000226585603e+00 +0.0000000000000000e+00 -1.5999999927041100e+00 +2.7686360314976643e-04 -1.0365847220154543e+00 -3.6621858501781884e-03
-1.7000000000000000e+00 +9.1474829650268106e+00 +0.0000000000000000e+00 -1.6999999912488499e+00 +2.7664319286443121e-04 -1.0365842721303884e+00 -3.6615023428793426e-03
-1.8000000000000000e+00 +9.1474648735980093e+00 +0.0000000000000000e+00 -1.7999999896119101e+00 +2.7643005666367102e-04 -1.0365838456667711e+00 -3.6607865030969830e-03
-1.8999999999999999e+00 +9.1474457483739400e+00 +0.0000000000000000e+00 -1.8999999877825899e+00 +2.7622740219039593e-04 -1.0365834449016356e+00 -3.6600391071500171e-03
-2.0000000000000000e+00 +9.1474255893528191e+00 +0.0000000000000000e+00 -1.9999999857502100e+00 +2.7603843738143645e-04 -1.0365830721130334e+00 -3.6592609314271057e-03
-2.1000000000000001e+00 +9.1474043965364302e+00 +0.0000000000000000e+00 -2.0999999835040901e+00 +2.7586600256931167e-04 -1.0365827286124631e+00 -3.6584532018907583e-03
-2.2000000000000002e+00 +9.1473821699247697e+00 +0.0000000000000000e+00 -2.1999999810335300e+00 +2.7571146662225027e-04 -1.0365824118418263e+00 -3.6576189425652035e-03
-2.2999999999999998e+00 +9.1473589095160595e+00 +0.0000000000000000e+00 -2.2999999783278602e+00 +2.7557583056744356e-04 -1.0365821182763413e+00 -3.6567616270713446e-03
-2.3999999999999999e+00 +9.1473346153120794e+00 +0.0000000000000000e+00 -2.3999999753763701e+00 +2.7546009549191559e-04 -1.0365818443922665e+00 -3.6558847291463985e-03
-2.5000000000000000e+00 +9.1473092873128206e+00 +0.0000000000000000e+00 -2.4999999721683901e+00 +2.7536526253772590e-04 -1.0365815866669867e+00 -3.6549917226562012e-03
-2.6000000000000001e+00 +9.1472829255165191e+00 +0.0000000000000000e+00 -2.5999999686932198e+00 +2.7529233289716915e-04 -1.0365813415790954e+00 -3.6540860816073857e-03
-2.7000000000000002e+00 +9.1472555299249496e+00 +0.0000000000000000e+00 -2.6999999649401798e+00 +2.7524230780797201e-04 -1.0365811056084573e+00 -3.6531712801593976e-03
-2.7999999999999998e+00 +9.1472271005398795e+00 +0.0000000000000000e+00 -2.7999999608985902e+00 +2.7521618854849588e-04 -1.0365808752362979e+00 -3.6522507926367636e-03
-2.8999999999999999e+00 +9.1471976373559905e+00 +0.0000000000000000e+00 -2.8999999565577501e+00 +2.7521497643294071e-04 -1.0365806469452965e+00 -3.6513280935414534e-03
-3.0000000000000000e+00 +9.1471671403768209e+00 +0.0000000000000000e+00 -2.9999999519069700e+00 +2.7523967280653790e-04 -1.0365804172196291e+00 -3.6504066575646010e-03
-3.1000000000000001e+00 +9.1471356096023904e+00 +0.0000000000000000e+00 -3.0999999469355801e+00 +2.7528997461481904e-04 -1.0365801842027029e+00 -3.6494890163520735e-03
-3.2000000000000002e+00 +9.1471030450308994e+00 +0.0000000000000000e+00 -3.1999999416328699e+00 +2.7536036102551818e-04 -1.0365799526682316e+00 -3.6485739286532320e-03
-3.2999999999999998e+00 +9.1470694466641493e+00 +0.0000000000000000e+00 -3.2999999359881800e+00 +2.7544400654201998e-04 -1.0365797290438930e+00 -3.6476592098590908e-03
-3.3999999999999999e+00 +9.1470348145021205e+00 +0.0000000000000000e+00 -3.3999999299908001e+00 +2.7553408538640261e-04 -1.0365795197528807e+00 -3.6467426752085602e-03
-3.5000000000000000e+00 +9.1469991485430509e+00 +0.0000000000000000e+00 -3.4999999236300501e+00 +2.7562377147372151e-04 -1.0365793312135370e+00 -3.6458221397727385e-03
-3.6000000000000001e+00 +9.1469624487887007e+00 +0.0000000000000000e+00 -3.5999999168952499e+00 +2.7570623838629141e-04 -1.0365791698389624e+00 -3.6448954184390794e-03
-3.7000000000000002e+00 +9.1469247152390807e+00 +0.0000000000000000e+00 -3.6999999097757001e+00 +2.7577465934798290e-04 -1.0365790420366567e+00 -3.6439603258958332e-03
-3.7999999999999998e+00 +9.1468859478924092e+00 +0.0000000000000000e+00 -3.7999999022607200e+00 +2.7582220719852066e-04 -1.0365789542081487e+00 -3.6430146766163619e-03
-3.8999999999999999e+00 +9.1468461467522495e+00 +0.0000000000000000e+00 -3.8999998943396199e+00 +2.7584205436777536e-04 -1.0365789127486038e+00 -3.6420562848432456e-03
-4.0000000000000000e+00 +9.1468053118132708e+00 +0.0000000000000000e+00 -3.9999998860017101e+00 +2.7582737285009132e-04 -1.0365789240464849e+00 -3.6410829645729913e-03
-4.0999999999999996e+00 +9.1467634430807898e+00 +0.0000000000000000e+00 -4.0999998772363098e+00 +2.7577306267601492e-04 -1.0365789930088061e+00 -3.6400928998369573e-03
-4.2000000000000002e+00 +9.1467205405512608e+00 +0.0000000000000000e+00 -4.1999998680327302e+00 +2.7568093754128022e-04 -1.0365791186428481e+00 -3.6390857556722216e-03
-4.2999999999999998e+00 +9.1466766042264602e+00 +0.0000000000000000e+00 -4.2999998583802803e+00 +2.7555453953085918e-04 -1.0365792984879936e+00 -3.6380615673753660e-03
-4.4000000000000004e+00 +9.1466316341046099e+00 +0.0000000000000000e+00 -4.3999998482682798e+00 +2.7539741064244158e-04 -1.0365795300918450e+00 -3.6370203702250615e-03
-4.5000000000000000e+00 +9.1465856301892607e+00 +0.0000000000000000e+00 -4.4999998376860297e+00 +2.7521309278573294e-04 -1.0365798110107405e+00 -3.6359621994823030e-03
-4.5999999999999996e+00 +9.1465385924768707e+00 +0.0000000000000000e+00 -4.5999998266228497e+00 +2.7500512778178335e-04 -1.0365801388103266e+00 -3.6348870903912169e-03
-4.7000000000000002e+00 +9.1464905209674292e+00 +0.0000000000000000e+00 -4.6999998150680504e+00 +2.7477705736227284e-04 -1.0365805110660715e+00 -3.6337950781792495e-03
-4.7999999999999998e+00 +9.1464414156644995e+00 +0.0000000000000000e+00 -4.7999998030109499e+00 +2.7453242316881061e-04 -1.0365809253638052e+00 -3.6326861980576276e-03
-4.9000000000000004e+00 +9.1463912765645095e+00 +0.0000000000000000e+00 -4.8999997904408596e+00 +2.7427476675224614e-04 -1.0365813793002865e+00 -3.6315604852221375e-03
-5.0000000000000000e+00 +9.1463401036692602e+00 +0.0000000000000000e+00 -4.9999997773470897e+00 +2.7400762957193727e-04 -1.0365818704837095e+00 -3.6304179748532436e-03
-5.0999999999999996e+00 +9.1462878969787305e+00 +0.0000000000000000e+00 -5.0999997637189498e+00 +2.7373468790796993e-04 -1.0365823959762690e+00 -3.6292592389878071e-03
-5.2000000000000002e+00 +9.1462346564911599e+00 +0.0000000000000000e+00 -5.1999997495457499e+00 +2.7346015778841173e-04 -1.0365829506131654e+00 -3.6280869971381784e-03
-5.2999999999999998e+00 +9.1461803822083105e+00 +0.0000000000000000e+00 -5.2999997348168204e+00 +2.7318839058495858e-04 -1.0365835286634884e+00 -3.6269045056561925e-03
-5.4000000000000004e+00 +9.1461250741284204e+00 +0.0000000000000000e+00 -5.3999997195214604e+00 +2.7292373816957348e-04 -1.0365841243858580e+00 -3.6257150208521736e-03
-5.5000000000000000e+00 +9.1460687322550296e+00 +0.0000000000000000e+00 -5.4999997036489701e+00 +2.7267055294077610e-04 -1.0365847320278458e+00 -3.6245217989938584e-03
-5.5999999999999996e+00 +9.1460113565845909e+00 +0.0000000000000000e+00 -5.5999996871886903e+00 +2.7243318784995720e-04 -1.0365853458254528e+00 -3.6233280963059024e-03
-5.7000000000000002e+00 +9.1459529471188894e+00 +0.0000000000000000e+00 -5.6999996701299196e+00 +2.7221599642765574e-04 -1.0365859600025222e+00 -3.6221371689687033e-03
-5.7999999999999998e+00 +9.1458935038561293e+00 +0.0000000000000000e+00 -5.7999996524619597e+00 +2.7202333280985556e-04 -1.0365865687702032e+00 -3.6209522731178003e-03
-5.9000000000000004e+00 +9.1458330267980994e+00 +0.0000000000000000e+00 -5.8999996341741401e+00 +2.7185955176426129e-04 -1.0365871663263826e+00 -3.6197766648428369e-03
-6.0000000000000000e+00 +9.1457715159465796e+00 +0.0000000000000000e+00 -5.9999996152557697e+00 +2.7172900871657766e-04 -1.0365877468551321e+00 -3.6186136001868179e-03
-6.0999999999999996e+00 +9.1457089712962301e+00 +0.0000000000000000e+00 -6.0999995956961603e+00 +2.7163464163952432e-04 -1.0365883044914721e+00 -3.6174659569842330e-03
-6.2000000000000002e+00 +9.1456453928523906e+00 +0.0000000000000000e+00 -6.1999995754846200e+00 +2.7157371638795574e-04 -1.0365888332245394e+00 -3.6163351004882792e-03
-6.2999999999999998e+00 +9.1455807806132707e+00 +0.0000000000000000e+00 -6.2999995546104604e+00 +2.7154208078372248e-04 -1.0365893270154163e+00 -3.6152220180969293e-03
-6.4000000000000004e+00 +9.1455151345771100e+00 +0.0000000000000000e+00 -6.3999995330630002e+00 +2.7153558273382766e-04 -1.0365897798341435e+00 -3.6141276975693048e-03
-6.5000000000000000e+00 +9.1454484547456794e+00 +0.0000000000000000e+00 -6.4999995108315600e+00 +2.7155007023077049e-04 -1.0365901856601238e+00 -3.6130531270405710e-03
-6.5999999999999996e+00 +9.1453807411171901e+00 +0.0000000000000000e+00 -6.5999994879054302e+00 +2.7158139135290523e-04 -1.0365905384825396e+00 -3.6119992950371231e-03
-6.7000000000000002e+00 +9.1453119936934399e+00 +0.0000000000000000e+00 -6.6999994642739402e+00 +2.7162539426480131e-04 -1.0365908323007460e+00 -3.6109671904913888e-03
-6.7999999999999998e+00 +9.1452422124761892e+00 +0.0000000000000000e+00 -6.7999994399263999e+00 +2.7167792721761986e-04 -1.0365910611246840e+00 -3.6099578027569109e-03
-6.9000000000000004e+00 +9.1451713974618905e+00 +0.0000000000000000e+00 -6.8999994148521200e+00 +2.7173483854950467e-04 -1.0365912189753019e+00 -3.6089721216234980e-03
-7.0000000000000000e+00 +9.1450995486523308e+00 +0.0000000000000000e+00 -6.9999993890404202e+00 +2.7179197668596915e-04 -1.0365912998849343e+00 -3.6080111373319192e-03
-7.0999999999999996e+00 +9.1450266660474906e+00 +0.0000000000000000e+00 -7.0999993624805997e+00 +2.7184521762285588e-04 -1.0365913018422348e+00 -3.6070754313316054e-03
-7.2000000000000002e+00 +9.1449527496438208e+00 +0.0000000000000000e+00 -7.1999993351619702e+00 +2.7189054705239405e-04 -1.0365912386218405e+00 -3.6061639482103500e-03
-7.2999999999999998e+00 +9.1448777994484391e+00 +0.0000000000000000e+00 -7.2999993070738700e+00 +2.7192397733259959e-04 -1.0365911279428872e+00 -3.6052752229881074e-03
-7.4000000000000004e+00 +9.1448018154560096e+00 +0.0000000000000000e+00 -7.3999992782055797e+00 +2.7194151989078531e-04 -1.0365909875232175e+00 -3.6044077903062241e-03
-7.5000000000000000e+00 +9.1447247976682995e+00 +0.0000000000000000e+00 -7.4999992485464304e+00 +2.7193918518988173e-04 -1.0365908350792701e+00 -3.6035601844122754e-03
-7.5999999999999996e+00 +9.1446467460835503e+00 +0.0000000000000000e+00 -7.5999992180857303e+00 +2.7191298269479383e-04 -1.0365906883260227e+00 -3.6027309391456906e-03
-7.7000000000000002e+00 +9.1445676607035296e+00 +0.0000000000000000e+00 -7.6999991868127999e+00 +2.7185892083873999e-04 -1.0365905649769127e+00 -3.6019185879229295e-03
-7.7999999999999998e+00 +9.1444875415300100e+00 +0.0000000000000000e+00 -7.7999991547169403e+00 +2.7177300698960768e-04 -1.0365904827437675e+00 -3.6011216637229352e-03
-7.9000000000000004e+00 +9.1444063885594495e+00 +0.0000000000000000e+00 -7.8999991217874603e+00 +2.7165124741631609e-04 -1.0365904593367463e+00 -3.6003386990726307e-03
-8.0000000000000000e+00 +9.1443242017936104e+00 +0.0000000000000000e+00 -7.9999990880136904e+00 +2.7148964725515689e-04 -1.0365905124642414e+00 -3.5995682260320061e-03
-8.0999999999999996e+00 +9.1442409812307197e+00 +0.0000000000000000e+00 -8.0999990533849306e+00 +2.7128602534366649e-04 -1.0365906543179775e+00 -3.5988091988861746e-03
-8.1999999999999993e+00 +9.1441567268743391e+00 +0.0000000000000000e+00 -8.1999990178904891e+00 +2.7104545951265620e-04 -1.0365908750271231e+00 -3.5980622625236118e-03
-8.3000000000000007e+00 +9.1440714387209105e+00 +0.0000000000000000e+00 -8.2999989815196997e+00 +2.7077484279041834e-04 -1.0365911592019588e+00 -3.5973284846867884e-03
-8.4000000000000004e+00 +9.1439851167722104e+00 +0.0000000000000000e+00 -8.3999989442618492e+00 +2.7048106857900759e-04 -1.0365914914487144e+00 -3.5966089333043069e-03
-8.5000000000000000e+00 +9.1438977610300203e+00 +0.0000000000000000e+00 -8.4999989061062706e+00 +2.7017103066859617e-04 -1.0365918563694503e+00 -3.5959046764972792e-03
-8.5999999999999996e+00 +9.1438093714890005e+00 +0.0000000000000000e+00 -8.5999988670422596e+00 +2.6985162325181543e-04 -1.0365922385619446e+00 -3.5952167825857554e-03
-8.6999999999999993e+00 +9.1437199481544802e+00 +0.0000000000000000e+00 -8.6999988270591402e+00 +2.6952974093803490e-04 -1.0365926226195201e+00 -3.5945463200944745e-03
-8.8000000000000007e+00 +9.1436294910247007e+00 +0.0000000000000000e+00 -8.7999987861462294e+00 +2.6921227876768722e-04 -1.0365929931309581e+00 -3.5938943577595722e-03
-8.9000000000000004e+00 +9.1435380000978608e+00 +0.0000000000000000e+00 -8.8999987442928301e+00 +2.6890613222652890e-04 -1.0365933346803484e+00 -3.5932619645346170e-03
-9.0000000000000000e+00 +9.1434454753775292e+00 +0.0000000000000000e+00 -8.9999987014882503e+00 +2.6861819725988777e-04 -1.0365936318469495e+00 -3.5926502095966961e-03
-9.0999999999999996e+00 +9.1433519168619295e+00 +0.0000000000000000e+00 -9.0999986577218195e+00 +2.6835409795395289e-04 -1.0365938724953461e+00 -3.5920601685423695e-03
-9.1999999999999993e+00 +9.1432573245492801e+00 +0.0000000000000000e+00 -9.1999986129828297e+00 +2.6811436955446528e-04 -1.0365940576490653e+00 -3.5914929419482559e-03
-9.3000000000000007e+00 +9.1431616984413608e+00 +0.0000000000000000e+00 -9.2999985672606194e+00 +2.6789827593943843e-04 -1.0365941916237755e+00 -3.5909496367818438e-03
-9.4000000000000004e+00 +9.1430650385381700e+00 +0.0000000000000000e+00 -9.3999985205444805e+00 +2.6770508213201665e-04 -1.0365942787374489e+00 -3.5904313602131001e-03
-9.5000000000000000e+00 +9.1429673448397004e+00 +0.0000000000000000e+00 -9.4999984728237195e+00 +2.6753405433167305e-04 -1.0365943233104267e+00 -3.5899392196194692e-03
-9.5999999999999996e+00 +9.1428686173459699e+00 +0.0000000000000000e+00 -9.5999984240876799e+00 +2.6738445994542546e-04 -1.0365943296654905e+00 -3.5894743225909223e-03
-9.6999999999999993e+00 +9.1427688560551807e+00 +0.0000000000000000e+00 -9.6999983743256504e+00 +2.6725556761906171e-04 -1.0365943021279354e+00 -3.5890377769350590e-03
-9.8000000000000007e+00 +9.1426680609726798e+00 +0.0000000000000000e+00 -9.7999983235269408e+00 +2.6714664726836906e-04 -1.0365942450256163e+00 -3.5886306906819120e-03
-9.9000000000000004e+00 +9.1425662320913492e+00 +0.0000000000000000e+00 -9.8999982716808805e+00 +2.6705697011039772e-04 -1.0365941626890667e+00 -3.5882541720895327e-03
-1.0000000000000000e+01 +9.1424633694165305e+00 +0.0000000000000000e+00 -9.9999982187767706e+00 +2.6698580869469988e-04 -1.0365940594515035e+00 -3.5879093296483583e-03
-1.0100000000000000e+01 +9.1423594729446602e+00 +0.0000000000000000e+00 -1.0099998164803900e+01 +2.6693199069764603e-04 -1.0365939400677922e+00 -3.5875969832042795e-03
-1.0199999999999999e+01 +9.1422545426793000e+00 +0.0000000000000000e+00 -1.0199998109751700e+01 +2.6689255921949723e-04 -1.0365938109681410e+00 -3.5873167970199705e-03
-1.0300000000000001e+01 +9.1421485786168795e+00 +0.0000000000000000e+00 -1.0299998053609301e+01 +2.6686410991954364e-04 -1.0365936789964287e+00 -3.5870681460419872e-03
-1.0400000000000000e+01 +9.1420415807609707e+00 +0.0000000000000000e+00 -1.0399997996366100e+01 +2.6684323703483594e-04 -1.0365935509904201e+00 -3.5868504047440173e-03
-1.0500000000000000e+01 +9.1419335491080194e+00 +0.0000000000000000e+00 -1.0499997938011500e+01 +2.6682653334284066e-04 -1.0365934337816545e+00 -3.5866629471150396e-03
-1.0600000000000000e+01 +9.1418244836597893e+00 +0.0000000000000000e+00 -1.0599997878534600e+01 +2.6681059012408147e-04 -1.0365933341952744e+00 -3.5865051466467809e-03
-1.0699999999999999e+01 +9.1417143844180693e+00 +0.0000000000000000e+00 -1.0699997817925000e+01 +2.6679199712480108e-04 -1.0365932590498905e+00 -3.5863763763216267e-03
-1.0800000000000001e+01 +9.1416032513792906e+00 +0.0000000000000000e+00 -1.0799997756171701e+01 +2.6676734251963386e-04 -1.0365932151574537e+00 -3.5862760086005615e-03
-1.0900000000000000e+01 +9.1414910845470292e+00 +0.0000000000000000e+00 -1.0899997693264300e+01 +2.6673321287426364e-04 -1.0365932093230781e+00 -3.5862034154106048e-03
-1.1000000000000000e+01 +9.1413778839177091e+00 +0.0000000000000000e+00 -1.0999997629191901e+01 +2.6668619310812246e-04 -1.0365932483449343e+00 -3.5861579681329882e-03
-1.1100000000000000e+01 +9.1412636494931299e+00 +0.0000000000000000e+00 -1.1099997563943900e+01 +2.6662343027551976e-04 -1.0365933368192535e+00 -3.5861391214266889e-03
-1.1199999999999999e+01 +9.1411483812750394e+00 +0.0000000000000000e+00 -1.1199997497509599e+01 +2.6654432577159087e-04 -1.0365934705616526e+00 -3.5861466650016038e-03
-1.1300000000000001e+01 +9.1410320792599205e+00 +0.0000000000000000e+00 -1.1299997429878401e+01 +2.6644884487641408e-04 -1.0365936432033960e+00 -3.5861804725368890e-03
-1.1400000000000000e+01 +9.1409147434512903e+00 +0.0000000000000000e+00 -1.1399997361039500e+01 +2.6633695301574552e-04 -1.0365938483883979e+00 -3.5862404178998680e-03
-1.1500000000000000e+01 +9.1407963738456193e+00 +0.0000000000000000e+00 -1.1499997290982201e+01 +2.6620861576566657e-04 -1.0365940797735529e+00 -3.5863263751512425e-03
-1.1600000000000000e+01 +9.1406769704464494e+00 +0.0000000000000000e+00 -1.1599997219695799e+01 +2.6606379885717922e-04 -1.0365943310289853e+00 -3.5864382185495309e-03
-1.1699999999999999e+01 +9.1405565332520098e+00 +0.0000000000000000e+00 -1.1699997147169800e+01 +2.6590246818083702e-04 -1.0365945958383753e+00 -3.5865758225562491e-03
