# field on trajectory
# s[mm] rx[mm] ry[mm] rz[mm] bx[T] by[T] bz[T]
0.0000000000000000e+00 +9.1013000000000002e+00 +0.0000000000000000e+00 +0.0000000000000000e+00 +1.0256356745443673e-02 -1.0311257611080400e+00 -5.8881708073314595e-02
1.0000000000000001e-01 +9.1012994847481661e+00 +0.0000000000000000e+00 +9.9999999998230102e-02 +1.0256253098344107e-02 -1.0311275259465988e+00 -5.8882001087697526e-02
2.0000000000000001e-01 +9.1012979389915305e+00 +0.0000000000000000e+00 +1.9999999998584078e-01 +1.0256143465347312e-02 -1.0311290196468528e+00 -5.8882286461547841e-02
3.0000000000000004e-01 +9.1012953627286031e+00 +0.0000000000000000e+00 +2.9999999995221266e-01 +1.0256027517202298e-02 -1.0311302172965324e+00 -5.8882565384553956e-02
4.0000000000000002e-01 +9.1012917559581883e+00 +0.0000000000000000e+00 +3.9999999988672619e-01 +1.0255904924597343e-02 -1.0311310939828786e+00 -5.8882839046474032e-02
5.0000000000000000e-01 +9.1012871186794140e+00 +0.0000000000000000e+00 +4.9999999977876192e-01 +1.0255775358161521e-02 -1.0311316247925895e+00 -5.8883108637133662e-02
5.9999999999999998e-01 +9.1012814508917526e+00 +0.0000000000000000e+00 +5.9999999961770034e-01 +1.0255638600220615e-02 -1.0311317907995035e+00 -5.8883374900175436e-02
6.9999999999999996e-01 +9.1012747525950370e+00 +0.0000000000000000e+00 +6.9999999939292201e-01 +1.0255494880062175e-02 -1.0311315970278032e+00 -5.8883636794308539e-02
7.9999999999999993e-01 +9.1012670237894593e+00 +0.0000000000000000e+00 +7.9999999909380737e-01 +1.0255344538673921e-02 -1.0311310544887291e+00 -5.8883892832038313e-02
8.9999999999999991e-01 +9.1012582644755646e+00 +0.0000000000000000e+00 +8.9999999870973690e-01 +1.0255187916991003e-02 -1.0311301741927887e+00 -5.8884141525905036e-02
9.9999999999999989e-01 +9.1012484746542306e+00 +0.0000000000000000e+00 +9.9999999823009134e-01 +1.0255025355897632e-02 -1.0311289671497104e+00 -5.8884381388475807e-02
1.0999999999999999e+00 +9.1012376543266633e+00 +0.0000000000000000e+00 +1.0999999976442514e+00 +1.0254857196228763e-02 -1.0311274443683929e+00 -5.8884610932336469e-02
1.2000000000000000e+00 +9.1012258034943869e+00 +0.0000000000000000e+00 +1.1999999969415978e+00 +1.0254683778771739e-02 -1.0311256168568625e+00 -5.8884828670083419e-02
1.3000000000000000e+00 +9.1012129221592257e+00 +0.0000000000000000e+00 +1.2999999961115112e+00 +1.0254505444267972e-02 -1.0311234956222237e+00 -5.8885033114315664e-02
1.4000000000000001e+00 +9.1011990103233025e+00 +0.0000000000000000e+00 +1.3999999951433728e+00 +1.0254322533414573e-02 -1.0311210916706128e+00 -5.8885222777626506e-02
1.5000000000000002e+00 +9.1011840679890188e+00 +0.0000000000000000e+00 +1.4999999940265636e+00 +1.0254135386866049e-02 -1.0311184160071531e+00 -5.8885396172595687e-02
1.6000000000000003e+00 +9.1011680951590499e+00 +0.0000000000000000e+00 +1.5999999927504647e+00 +1.0253944345235940e-02 -1.0311154796359046e+00 -5.8885551811781081e-02
1.7000000000000004e+00 +9.1011510918363303e+00 +0.0000000000000000e+00 +1.6999999913044572e+00 +1.0253749749098481e-02 -1.0311122935598200e+00 -5.8885688207710660e-02
1.8000000000000005e+00 +9.1011330580240468e+00 +0.0000000000000000e+00 +1.7999999896779229e+00 +1.0253551938990286e-02 -1.0311088687806969e+00 -5.8885803872874488e-02
1.9000000000000006e+00 +9.1011139937256225e+00 +0.0000000000000000e+00 +1.8999999878602429e+00 +1.0253351255411984e-02 -1.0311052162991305e+00 -5.8885897319716440e-02
2.0000000000000004e+00 +9.1010938989447077e+00 +0.0000000000000000e+00 +1.9999999858407993e+00 +1.0253148038829893e-02 -1.0311013471144681e+00 -5.8885967060626293e-02
2.1000000000000005e+00 +9.1010727736851713e+00 +0.0000000000000000e+00 +2.0999999836089738e+00 +1.0252942629677689e-02 -1.0310972722247604e+00 -5.8886011607931450e-02
2.2000000000000006e+00 +9.1010506179510866e+00 +0.0000000000000000e+00 +2.1999999811541486e+00 +1.0252735368358050e-02 -1.0310930026267173e+00 -5.8886029473888962e-02
2.3000000000000007e+00 +9.1010274317467221e+00 +0.0000000000000000e+00 +2.2999999784657059e+00 +1.0252526595244348e-02 -1.0310885493156579e+00 -5.8886019170677394e-02
2.4000000000000008e+00 +9.1010032150765312e+00 +0.0000000000000000e+00 +2.3999999755330279e+00 +1.0252316650682290e-02 -1.0310839232854669e+00 -5.8885979210388746e-02
2.5000000000000009e+00 +9.1009779679451377e+00 +0.0000000000000000e+00 +2.4999999723454973e+00 +1.0252105874991582e-02 -1.0310791355285451e+00 -5.8885908105020257e-02
2.6000000000000010e+00 +9.1009516903573271e+00 +0.0000000000000000e+00 +2.5999999688924968e+00 +1.0251894651286802e-02 -1.0310741997298145e+00 -5.8885804708545063e-02
2.7000000000000011e+00 +9.1009243823180341e+00 +0.0000000000000000e+00 +2.6999999651634092e+00 +1.0251683533990329e-02 -1.0310691403499286e+00 -5.8885669243194889e-02
2.8000000000000012e+00 +9.1008960438323161e+00 +0.0000000000000000e+00 +2.7999999611476181e+00 +1.0251473120476976e-02 -1.0310639845451250e+00 -5.8885502273316702e-02
2.9000000000000012e+00 +9.1008666749053262e+00 +0.0000000000000000e+00 +2.8999999568345061e+00 +1.0251264008284158e-02 -1.0310587594736940e+00 -5.8885304363313448e-02
3.0000000000000013e+00 +9.1008362755422869e+00 +0.0000000000000000e+00 +2.9999999522134573e+00 +1.0251056795128732e-02 -1.0310534922962404e+00 -5.8885076077651199e-02
3.1000000000000014e+00 +9.1008048457484634e+00 +0.0000000000000000e+00 +3.0999999472738549e+00 +1.0250852078923822e-02 -1.0310482101759484e+00 -5.8884817980866297e-02
3.2000000000000015e+00 +9.1007723855291349e+00 +0.0000000000000000e+00 +3.1999999420050833e+00 +1.0250650457795633e-02 -1.0310429402788426e+00 -5.8884530637572562e-02
3.3000000000000016e+00 +9.1007388948895702e+00 +0.0000000000000000e+00 +3.2999999363965262e+00 +1.0250452530100273e-02 -1.0310377097740535e+00 -5.8884214612468372e-02
3.4000000000000017e+00 +9.1007043738349971e+00 +0.0000000000000000e+00 +3.3999999304375677e+00 +1.0250258894440596e-02 -1.0310325458340801e+00 -5.8883870470343921e-02
3.5000000000000018e+00 +9.1006688223705794e+00 +0.0000000000000000e+00 +3.4999999241175921e+00 +1.0250070149682980e-02 -1.0310274756350519e+00 -5.8883498776088339e-02
3.6000000000000019e+00 +9.1006322405013851e+00 +0.0000000000000000e+00 +3.5999999174259836e+00 +1.0249886894974190e-02 -1.0310225263569941e+00 -5.8883100094696834e-02
3.7000000000000020e+00 +9.1005946282323613e+00 +0.0000000000000000e+00 +3.6999999103521271e+00 +1.0249709729758163e-02 -1.0310177251840882e+00 -5.8882674991277868e-02
3.8000000000000020e+00 +9.1005559855683078e+00 +0.0000000000000000e+00 +3.7999999028854070e+00 +1.0249539253792858e-02 -1.0310130993049385e+00 -5.8882224031060332e-02
3.9000000000000021e+00 +9.1005163125138502e+00 +0.0000000000000000e+00 +3.8999998950152079e+00 +1.0249376067167044e-02 -1.0310086759128316e+00 -5.8881747779400785e-02
4.0000000000000018e+00 +9.1004756090734116e+00 +0.0000000000000000e+00 +3.9999998867309148e+00 +1.0249220770317133e-02 -1.0310044822060029e+00 -5.8881246801790417e-02
4.1000000000000014e+00 +9.1004338752511842e+00 +0.0000000000000000e+00 +4.0999998780219125e+00 +1.0249073964043993e-02 -1.0310005453878961e+00 -5.8880721663862476e-02
4.2000000000000011e+00 +9.1003911110511062e+00 +0.0000000000000000e+00 +4.1999998688775859e+00 +1.0248936249529753e-02 -1.0309968926674311e+00 -5.8880172931399202e-02
4.3000000000000007e+00 +9.1003473164768280e+00 +0.0000000000000000e+00 +4.2999998592873192e+00 +1.0248808228354627e-02 -1.0309935512592610e+00 -5.8879601170339226e-02
4.4000000000000004e+00 +9.1003024915316928e+00 +0.0000000000000000e+00 +4.3999998492404977e+00 +1.0248690502513738e-02 -1.0309905483840403e+00 -5.8879006946784482e-02
4.5000000000000000e+00 +9.1002566362187043e+00 +0.0000000000000000e+00 +4.4999998387265059e+00 +1.0248583674433879e-02 -1.0309879112686848e+00 -5.8878390827007611e-02
4.5999999999999996e+00 +9.1002097505405004e+00 +0.0000000000000000e+00 +4.5999998277347292e+00 +1.0248488201048785e-02 -1.0309856588533244e+00 -5.8877753603342992e-02
4.6999999999999993e+00 +9.1001618344993407e+00 +0.0000000000000000e+00 +4.6999998162545511e+00 +1.0248403955728251e-02 -1.0309837769088550e+00 -5.8877096971718092e-02
4.7999999999999989e+00 +9.1001128880971098e+00 +0.0000000000000000e+00 +4.7999998042753562e+00 +1.0248330665647440e-02 -1.0309822429124544e+00 -5.8876422853765993e-02
4.8999999999999986e+00 +9.1000629113353497e+00 +0.0000000000000000e+00 +4.8999997917865299e+00 +1.0248268057641908e-02 -1.0309810343401806e+00 -5.8875733170893119e-02
4.9999999999999982e+00 +9.1000119042152754e+00 +0.0000000000000000e+00 +4.9999997787774548e+00 +1.0248215858182487e-02 -1.0309801286668157e+00 -5.8875029844265084e-02
5.0999999999999979e+00 +9.0999598667377981e+00 +0.0000000000000000e+00 +5.0999997652375164e+00 +1.0248173793350156e-02 -1.0309795033657054e+00 -5.8874314794792541e-02
5.1999999999999975e+00 +9.0999067989035520e+00 +0.0000000000000000e+00 +5.1999997511560982e+00 +1.0248141588810940e-02 -1.0309791359086031e+00 -5.8873589943116970e-02
5.2999999999999972e+00 +9.0998527007129102e+00 +0.0000000000000000e+00 +5.2999997365225839e+00 +1.0248118969790786e-02 -1.0309790037655078e+00 -5.8872857209596618e-02
5.3999999999999968e+00 +9.0997975721660129e+00 +0.0000000000000000e+00 +5.3999997213263571e+00 +1.0248105661050449e-02 -1.0309790844045090e+00 -5.8872118514292249e-02
5.4999999999999964e+00 +9.0997414132627874e+00 +0.0000000000000000e+00 +5.4999997055568013e+00 +1.0248101386860378e-02 -1.0309793552916280e+00 -5.8871375776953005e-02
5.5999999999999961e+00 +9.0996842240029707e+00 +0.0000000000000000e+00 +5.5999996892033002e+00 +1.0248105870975589e-02 -1.0309797938906564e+00 -5.8870630917002238e-02
5.6999999999999957e+00 +9.0996260043861330e+00 +0.0000000000000000e+00 +5.6999996722552373e+00 +1.0248118836610554e-02 -1.0309803776630020e+00 -5.8869885853523339e-02
5.7999999999999954e+00 +9.0995667544116987e+00 +0.0000000000000000e+00 +5.7999996547019963e+00 +1.0248140006414068e-02 -1.0309810840675266e+00 -5.8869142505245525e-02
5.8999999999999950e+00 +9.0995064740789697e+00 +0.0000000000000000e+00 +5.8999996365329599e+00 +1.0248169102444157e-02 -1.0309818905603896e+00 -5.8868402790529704e-02
5.9999999999999947e+00 +9.0994451633871485e+00 +0.0000000000000000e+00 +5.9999996177375108e+00 +1.0248205846142912e-02 -1.0309827745948901e+00 -5.8867668627354271e-02
6.0999999999999943e+00 +9.0993828223353592e+00 +0.0000000000000000e+00 +6.0999995983050326e+00 +1.0248249958311410e-02 -1.0309837136213069e+00 -5.8866941933300942e-02
6.1999999999999940e+00 +9.0993194509226729e+00 +0.0000000000000000e+00 +6.1999995782249089e+00 +1.0248301159084582e-02 -1.0309846850867428e+00 -5.8866224625540475e-02
6.2999999999999936e+00 +9.0992550491481268e+00 +0.0000000000000000e+00 +6.2999995574865215e+00 +1.0248359167906049e-02 -1.0309856664349633e+00 -5.8865518620818610e-02
6.3999999999999932e+00 +9.0991896170107491e+00 +0.0000000000000000e+00 +6.3999995360792541e+00 +1.0248423703503059e-02 -1.0309866351062402e+00 -5.8864825835441802e-02
6.4999999999999929e+00 +9.0991231545095808e+00 +0.0000000000000000e+00 +6.4999995139924893e+00 +1.0248494483861319e-02 -1.0309875685371934e+00 -5.8864148185262949e-02
6.5999999999999925e+00 +9.0990556616436962e+00 +0.0000000000000000e+00 +6.5999994912156099e+00 +1.0248571136297001e-02 -1.0309884475811102e+00 -5.8863487311392855e-02
6.6999999999999922e+00 +9.0989871384122267e+00 +0.0000000000000000e+00 +6.6999994677379986e+00 +1.0248652928115696e-02 -1.0309892667707250e+00 -5.8862843757569394e-02
6.7999999999999918e+00 +9.0989175848143589e+00 +0.0000000000000000e+00 +6.7999994435490381e+00 +1.0248739037015073e-02 -1.0309900240588497e+00 -5.8862217793375353e-02
6.8999999999999915e+00 +9.0988470008493447e+00 +0.0000000000000000e+00 +6.8999994186381119e+00 +1.0248828641107396e-02 -1.0309907173981063e+00 -5.8861609688586294e-02
6.9999999999999911e+00 +9.0987753865164986e+00 +0.0000000000000000e+00 +6.9999993929946029e+00 +1.0248920918939331e-02 -1.0309913447409103e+00 -5.8861019713181507e-02
7.0999999999999908e+00 +9.0987027418152007e+00 +0.0000000000000000e+00 +7.0999993666078938e+00 +1.0249015049511730e-02 -1.0309919040394591e+00 -5.8860448137354825e-02
7.1999999999999904e+00 +9.0986290667449001e+00 +0.0000000000000000e+00 +7.1999993394673680e+00 +1.0249110212299423e-02 -1.0309923932457223e+00 -5.8859895231525745e-02
7.2999999999999901e+00 +9.0985543613051174e+00 +0.0000000000000000e+00 +7.2999993115624084e+00 +1.0249205587271017e-02 -1.0309928103114234e+00 -5.8859361266350128e-02
7.3999999999999897e+00 +9.0984786254954422e+00 +0.0000000000000000e+00 +7.3999992828823977e+00 +1.0249300354908708e-02 -1.0309931531880374e+00 -5.8858846512731364e-02
7.4999999999999893e+00 +9.0984018593155405e+00 +0.0000000000000000e+00 +7.4999992534167195e+00 +1.0249393696228060e-02 -1.0309934198267687e+00 -5.8858351241831149e-02
7.5999999999999890e+00 +9.0983240627651547e+00 +0.0000000000000000e+00 +7.5999992231547564e+00 +1.0249484792797855e-02 -1.0309936081785451e+00 -5.8857875725080479e-02
7.6999999999999886e+00 +9.0982452358441055e+00 +0.0000000000000000e+00 +7.6999991920858921e+00 +1.0249572826759853e-02 -1.0309937161940033e+00 -5.8857420234190556e-02
7.7999999999999883e+00 +9.0981653785522916e+00 +0.0000000000000000e+00 +7.7999991601995093e+00 +1.0249656980848643e-02 -1.0309937418234771e+00 -5.8856985041163795e-02
7.8999999999999879e+00 +9.0980844908896970e+00 +0.0000000000000000e+00 +7.8999991274849917e+00 +1.0249736438411436e-02 -1.0309936830169866e+00 -5.8856570418304631e-02
7.9999999999999876e+00 +9.0980025728563891e+00 +0.0000000000000000e+00 +7.9999990939317227e+00 +1.0249810383427906e-02 -1.0309935377242228e+00 -5.8856176638230541e-02
8.0999999999999872e+00 +9.0979196244525227e+00 +0.0000000000000000e+00 +8.0999990595290861e+00 +1.0249878000530002e-02 -1.0309933038945398e+00 -5.8855803973882979e-02
8.1999999999999869e+00 +9.0978356456783409e+00 +0.0000000000000000e+00 +8.1999990242664644e+00 +1.0249938475021767e-02 -1.0309929794769379e+00 -5.8855452698538209e-02
8.2999999999999865e+00 +9.0977506365341760e+00 +0.0000000000000000e+00 +8.2999989881332432e+00 +1.0249990992899187e-02 -1.0309925624200555e+00 -5.8855123085818410e-02
8.3999999999999861e+00 +9.0976645970204526e+00 +0.0000000000000000e+00 +8.3999989511188051e+00 +1.0250034740870006e-02 -1.0309920506721555e+00 -5.8854815409702416e-02
8.4999999999999858e+00 +9.0975775271376929e+00 +0.0000000000000000e+00 +8.4999989132125329e+00 +1.0250068906373580e-02 -1.0309914421811119e+00 -5.8854529944536722e-02
8.5999999999999854e+00 +9.0974894268865150e+00 +0.0000000000000000e+00 +8.5999988744038109e+00 +1.0250092900195346e-02 -1.0309907352423298e+00 -5.8854266677628608e-02
8.6999999999999851e+00 +9.0974002962676348e+00 +0.0000000000000000e+00 +8.6999988346820238e+00 +1.0250107023936287e-02 -1.0309899295429525e+00 -5.8854024446791768e-02
8.7999999999999847e+00 +9.0973101352818659e+00 +0.0000000000000000e+00 +8.7999987940365560e+00 +1.0250111801584218e-02 -1.0309890251187230e+00 -5.8853801802318632e-02
8.8999999999999844e+00 +9.0972189439301214e+00 +0.0000000000000000e+00 +8.8999987524567921e+00 +1.0250107756803595e-02 -1.0309880220061467e+00 -5.8853597294370223e-02
8.9999999999999840e+00 +9.0971267222134156e+00 +0.0000000000000000e+00 +8.9999987099321164e+00 +1.0250095412923809e-02 -1.0309869202425128e+00 -5.8853409472972087e-02
9.0999999999999837e+00 +9.0970334701328568e+00 +0.0000000000000000e+00 +9.0999986664519117e+00 +1.0250075292927388e-02 -1.0309857198659143e+00 -5.8853236888010224e-02
9.1999999999999833e+00 +9.0969391876896566e+00 +0.0000000000000000e+00 +9.1999986220055643e+00 +1.0250047919438288e-02 -1.0309844209152716e+00 -5.8853078089227184e-02
9.2999999999999829e+00 +9.0968438748851224e+00 +0.0000000000000000e+00 +9.2999985765824587e+00 +1.0250013814710100e-02 -1.0309830234303532e+00 -5.8852931626217755e-02
9.3999999999999826e+00 +9.0967475317206610e+00 +0.0000000000000000e+00 +9.3999985301719793e+00 +1.0249973500614309e-02 -1.0309815274517944e+00 -5.8852796048425214e-02
9.4999999999999822e+00 +9.0966501581977770e+00 +0.0000000000000000e+00 +9.4999984827635107e+00 +1.0249927498628538e-02 -1.0309799330211222e+00 -5.8852669905137121e-02
9.5999999999999819e+00 +9.0965517543180763e+00 +0.0000000000000000e+00 +9.5999984343464391e+00 +1.0249876329824770e-02 -1.0309782401807746e+00 -5.8852551745481443e-02
9.6999999999999815e+00 +9.0964523200832588e+00 +0.0000000000000000e+00 +9.6999983849101490e+00 +1.0249820514857590e-02 -1.0309764489741207e+00 -5.8852440118422347e-02
9.7999999999999812e+00 +9.0963518554951257e+00 +0.0000000000000000e+00 +9.7999983344440267e+00 +1.0249760573952413e-02 -1.0309745594454875e+00 -5.8852333572756446e-02
9.8999999999999808e+00 +9.0962503605555760e+00 +0.0000000000000000e+00 +9.8999982829374567e+00 +1.0249697026893708e-02 -1.0309725716401728e+00 -5.8852230657108560e-02
9.9999999999999805e+00 +9.0961478352666081e+00 +0.0000000000000000e+00 +9.9999982303798269e+00 +1.0249630393013244e-02 -1.0309704856044748e+00 -5.8852129919927956e-02
1.0099999999999980e+01 +9.0960442796303180e+00 +0.0000000000000000e+00 +1.0099998176760522e+01 +1.0249561191178279e-02 -1.0309683013857076e+00 -5.8852029909484113e-02
1.0199999999999980e+01 +9.0959396936488979e+00 +0.0000000000000000e+00 +1.0199998122068926e+01 +1.0249489939779791e-02 -1.0309660190322256e+00 -5.8851929173863012e-02
1.0299999999999979e+01 +9.0958340773246409e+00 +0.0000000000000000e+00 +1.0299998066294428e+01 +1.0249417156720722e-02 -1.0309636385934444e+00 -5.8851826260962962e-02
1.0399999999999979e+01 +9.0957274306599363e+00 +0.0000000000000000e+00 +1.0399998009426414e+01 +1.0249343359404146e-02 -1.0309611601198612e+00 -5.8851719718490764e-02
1.0499999999999979e+01 +9.0956197536572727e+00 +0.0000000000000000e+00 +1.0499997951454271e+01 +1.0249269064721513e-02 -1.0309585836630770e+00 -5.8851608093957689e-02
1.0599999999999978e+01 +9.0955110463192383e+00 +0.0000000000000000e+00 +1.0599997892367384e+01 +1.0249194848456432e-02 -1.0309559105458037e+00 -5.8851490303772576e-02
1.0699999999999978e+01 +9.0954013086485137e+00 +0.0000000000000000e+00 +1.0699997832155141e+01 +1.0249121523747191e-02 -1.0309531471711921e+00 -5.8851366740615654e-02
1.0799999999999978e+01 +9.0952905406478717e+00 +0.0000000000000000e+00 +1.0799997770806931e+01 +1.0249049963200323e-02 -1.0309503012110204e+00 -5.8851238166091030e-02
1.0899999999999977e+01 +9.0951787423201669e+00 +0.0000000000000000e+00 +1.0899997708312139e+01 +1.0248981039523385e-02 -1.0309473803352680e+00 -5.8851105341578676e-02
1.0999999999999977e+01 +9.0950659136683303e+00 +0.0000000000000000e+00 +1.0999997644660153e+01 +1.0248915625528250e-02 -1.0309443922120682e+00 -5.8850969028230275e-02
1.1099999999999977e+01 +9.0949520546953604e+00 +0.0000000000000000e+00 +1.1099997579840361e+01 +1.0248854594134302e-02 -1.0309413445076629e+00 -5.8850829986964538e-02
1.1199999999999976e+01 +9.0948371654043143e+00 +0.0000000000000000e+00 +1.1199997513842151e+01 +1.0248798818371688e-02 -1.0309382448863538e+00 -5.8850688978462830e-02
1.1299999999999976e+01 +9.0947212457983007e+00 +0.0000000000000000e+00 +1.1299997446654910e+01 +1.0248749171384562e-02 -1.0309351010104544e+00 -5.8850546763164716e-02
1.1399999999999975e+01 +9.0946042958804743e+00 +0.0000000000000000e+00 +1.1399997378268028e+01 +1.0248706526434280e-02 -1.0309319205402447e+00 -5.8850404101263423e-02
1.1499999999999975e+01 +9.0944863156540237e+00 +0.0000000000000000e+00 +1.1499997308670892e+01 +1.0248671756902675e-02 -1.0309287111339229e+00 -5.8850261752701465e-02
1.1599999999999975e+01 +9.0943673051221694e+00 +0.0000000000000000e+00 +1.1599997237852891e+01 +1.0248645736295255e-02 -1.0309254804475587e+00 -5.8850120477166062e-02
1.1699999999999974e+01 +9.0942472642881516e+00 +0.0000000000000000e+00 +1.1699997165803413e+01 +1.0248629338244461e-02 -1.0309222361350452e+00 -5.8849981034084724e-02
1.1799999999999974e+01 +9.0941261931552244e+00 +0.0000000000000000e+00 +1.1799997092511848e+01 +1.0248623436512854e-02 -1.0309189858480523e+00 -5.8849844182620674e-02
