# trajectory
# s[mm] rx[mm] ry[mm] rz[mm] px[rad] py[rad] pz[rad]
0.0000000000000000e+00 +9.0449999999999999e+00 +0.0000000000000000e+00 +0.0000000000000000e+00 +0.0000000000000000e+00 +0.0000000000000000e+00 +1.0000000000000000e+00
1.0000000000000001e-01 +9.0449994830563014e+00 +0.0000000000000000e+00 +9.9999999998218458e-02 -1.0338874281178302e-05 +0.0000000000000000e+00 +9.9999999994655386e-01
2.0000000000000001e-01 +9.0449979322250815e+00 +0.0000000000000000e+00 +1.9999999998574769e-01 -2.0677750440561752e-05 +0.0000000000000000e+00 +9.9999999978621534e-01
3.0000000000000004e-01 +9.0449953475061466e+00 +0.0000000000000000e+00 +2.9999999995189847e-01 -3.1016628610571761e-05 +0.0000000000000000e+00 +9.9999999951898444e-01
4.0000000000000002e-01 +9.0449917288992872e+00 +0.0000000000000000e+00 +3.9999999988598151e-01 -4.1355508940302472e-05 +0.0000000000000000e+00 +9.9999999914486104e-01
5.0000000000000000e-01 +9.0449870764042810e+00 +0.0000000000000000e+00 +4.9999999977730758e-01 -5.1694391595520662e-05 +0.0000000000000000e+00 +9.9999999866384504e-01
5.9999999999999998e-01 +9.0449813900208849e+00 +0.0000000000000000e+00 +5.9999999961518746e-01 -6.2033276758665499e-05 +0.0000000000000000e+00 +9.9999999807593642e-01
6.9999999999999996e-01 +9.0449746697488393e+00 +0.0000000000000000e+00 +6.9999999938893187e-01 -7.2372164628848102e-05 +0.0000000000000000e+00 +9.9999999738113499e-01
7.9999999999999993e-01 +9.0449669155878620e+00 +0.0000000000000000e+00 +7.9999999908785147e-01 -8.2711055421850975e-05 +0.0000000000000000e+00 +9.9999999657944072e-01
8.9999999999999991e-01 +9.0449581275376492e+00 +0.0000000000000000e+00 +8.9999999870125691e-01 -9.3049949370127241e-05 +0.0000000000000000e+00 +9.9999999567085351e-01
9.9999999999999989e-01 +9.0449483055978739e+00 +0.0000000000000000e+00 +9.9999999821845897e-01 -1.0338884672279974e-04 +0.0000000000000000e+00 +9.9999999465537326e-01
1.0999999999999999e+00 +9.0449374497681827e+00 +0.0000000000000000e+00 +1.0999999976287684e+00 -1.1372774774565992e-04 +0.0000000000000000e+00 +9.9999999353299973e-01
1.2000000000000000e+00 +9.0449255600481937e+00 +0.0000000000000000e+00 +1.1999999969214958e+00 -1.2406665272116663e-04 +0.0000000000000000e+00 +9.9999999230373282e-01
1.3000000000000000e+00 +9.0449126364374965e+00 +0.0000000000000000e+00 +1.2999999960859518e+00 -1.3440556194844463e-04 +0.0000000000000000e+00 +9.9999999096757242e-01
1.4000000000000001e+00 +9.0448986789356507e+00 +0.0000000000000000e+00 +1.3999999951114472e+00 -1.4474447574328313e-04 +0.0000000000000000e+00 +9.9999998952451830e-01
1.5000000000000002e+00 +9.0448836875421836e+00 +0.0000000000000000e+00 +1.4999999939872923e+00 -1.5508339443813391e-04 +0.0000000000000000e+00 +9.9999998797457024e-01
1.6000000000000003e+00 +9.0448676622565873e+00 +0.0000000000000000e+00 +1.5999999927027981e+00 -1.6542231838210952e-04 +0.0000000000000000e+00 +9.9999998631772813e-01
1.7000000000000004e+00 +9.0448506030783200e+00 +0.0000000000000000e+00 +1.6999999912472750e+00 -1.7576124794098114e-04 +0.0000000000000000e+00 +9.9999998455399164e-01
1.8000000000000005e+00 +9.0448325100067990e+00 +0.0000000000000000e+00 +1.7999999896100334e+00 -1.8610018349717635e-04 +0.0000000000000000e+00 +9.9999998268336054e-01
1.9000000000000006e+00 +9.0448133830414061e+00 +0.0000000000000000e+00 +1.8999999877803839e+00 -1.9643912544977675e-04 +0.0000000000000000e+00 +9.9999998070583462e-01
2.0000000000000004e+00 +9.0447932221814806e+00 +0.0000000000000000e+00 +1.9999999857476372e+00 -2.0677807421451538e-04 +0.0000000000000000e+00 +9.9999997862141354e-01
2.1000000000000005e+00 +9.0447720274263208e+00 +0.0000000000000000e+00 +2.0999999835011036e+00 -2.1711703022203493e-04 +0.0000000000000000e+00 +9.9999997643009708e-01
2.2000000000000006e+00 +9.0447497987751806e+00 +0.0000000000000000e+00 +2.1999999810300936e+00 -2.2745599389875645e-04 +0.0000000000000000e+00 +9.9999997413188491e-01
2.3000000000000007e+00 +9.0447265362272713e+00 +0.0000000000000000e+00 +2.2999999783239176e+00 -2.3779496564774993e-04 +0.0000000000000000e+00 +9.9999997172677657e-01
2.4000000000000008e+00 +9.0447022397817687e+00 +0.0000000000000000e+00 +2.3999999753718857e+00 -2.4813394584699615e-04 +0.0000000000000000e+00 +9.9999996921477174e-01
2.5000000000000009e+00 +9.0446769094378094e+00 +0.0000000000000000e+00 +2.4999999721633084e+00 -2.5847293484938772e-04 +0.0000000000000000e+00 +9.9999996659587020e-01
2.6000000000000010e+00 +9.0446505451944947e+00 +0.0000000000000000e+00 +2.5999999686874964e+00 -2.6881193298273077e-04 +0.0000000000000000e+00 +9.9999996387007151e-01
2.7000000000000011e+00 +9.0446231470508973e+00 +0.0000000000000000e+00 +2.6999999649337596e+00 -2.7915094054974630e-04 +0.0000000000000000e+00 +9.9999996103737521e-01
2.8000000000000012e+00 +9.0445947150060597e+00 +0.0000000000000000e+00 +2.7999999608914083e+00 -2.8948995782807242e-04 +0.0000000000000000e+00 +9.9999995809778108e-01
2.9000000000000012e+00 +9.0445652490589996e+00 +0.0000000000000000e+00 +2.8999999565497525e+00 -2.9982898507026644e-04 +0.0000000000000000e+00 +9.9999995505128869e-01
3.0000000000000013e+00 +9.0445347492087063e+00 +0.0000000000000000e+00 +2.9999999518981024e+00 -3.1016802250380740e-04 +0.0000000000000000e+00 +9.9999995189789759e-01
3.1000000000000014e+00 +9.0445032154541511e+00 +0.0000000000000000e+00 +3.0999999469257684e+00 -3.2050707033109884e-04 +0.0000000000000000e+00 +9.9999994863760744e-01
3.2000000000000015e+00 +9.0444706477942862e+00 +0.0000000000000000e+00 +3.1999999416220604e+00 -3.3084612872947178e-04 +0.0000000000000000e+00 +9.9999994527041791e-01
3.3000000000000016e+00 +9.0444370462280474e+00 +0.0000000000000000e+00 +3.2999999359762886e+00 -3.4118519785118816e-04 +0.0000000000000000e+00 +9.9999994179632856e-01
3.4000000000000017e+00 +9.0444024107543548e+00 +0.0000000000000000e+00 +3.3999999299777630e+00 -3.5152427782344424e-04 +0.0000000000000000e+00 +9.9999993821533906e-01
3.5000000000000018e+00 +9.0443667413721176e+00 +0.0000000000000000e+00 +3.4999999236157935e+00 -3.6186336874837453e-04 +0.0000000000000000e+00 +9.9999993452744895e-01
3.6000000000000019e+00 +9.0443300380802381e+00 +0.0000000000000000e+00 +3.5999999168796895e+00 -3.7220247070305593e-04 +0.0000000000000000e+00 +9.9999993073265792e-01
3.7000000000000020e+00 +9.0442923008776077e+00 +0.0000000000000000e+00 +3.6999999097587617e+00 -3.8254158373951199e-04 +0.0000000000000000e+00 +9.9999992683096561e-01
3.8000000000000020e+00 +9.0442535297631199e+00 +0.0000000000000000e+00 +3.7999999022423192e+00 -3.9288070788471771e-04 +0.0000000000000000e+00 +9.9999992282237160e-01
3.9000000000000021e+00 +9.0442137247356609e+00 +0.0000000000000000e+00 +3.8999998943196723e+00 -4.0321984314060439e-04 +0.0000000000000000e+00 +9.9999991870687566e-01
4.0000000000000018e+00 +9.0441728857941222e+00 +0.0000000000000000e+00 +3.9999998859801309e+00 -4.1355898948406468e-04 +0.0000000000000000e+00 +9.9999991448447734e-01
4.1000000000000014e+00 +9.0441310129373971e+00 +0.0000000000000000e+00 +4.0999998772130049e+00 -4.2389814686882475e-04 +0.0000000000000000e+00 +9.9999991015517642e-01
4.2000000000000011e+00 +9.0440881061643825e+00 +0.0000000000000000e+00 +4.1999998680076036e+00 -4.3423731524598055e-04 +0.0000000000000000e+00 +9.9999990571897246e-01
4.3000000000000007e+00 +9.0440441654739825e+00 +0.0000000000000000e+00 +4.2999998583532362e+00 -4.4457649458453063e-04 +0.0000000000000000e+00 +9.9999990117586524e-01
4.4000000000000004e+00 +9.0439991908651010e+00 +0.0000000000000000e+00 +4.3999998482392133e+00 -4.5491568487324201e-04 +0.0000000000000000e+00 +9.9999989652585441e-01
4.5000000000000000e+00 +9.0439531823366419e+00 +0.0000000000000000e+00 +4.4999998376548440e+00 -4.6525488612064888e-04 +0.0000000000000000e+00 +9.9999989176893955e-01
4.5999999999999996e+00 +9.0439061398875094e+00 +0.0000000000000000e+00 +4.5999998265894382e+00 -4.7559409835505145e-04 +0.0000000000000000e+00 +9.9999988690512032e-01
4.6999999999999993e+00 +9.0438580635166019e+00 +0.0000000000000000e+00 +4.6999998150323048e+00 -4.8593332162451459e-04 +0.0000000000000000e+00 +9.9999988193439637e-01
4.7999999999999989e+00 +9.0438089532228130e+00 +0.0000000000000000e+00 +4.7999998029727537e+00 -4.9627255599686624e-04 +0.0000000000000000e+00 +9.9999987685676739e-01
4.8999999999999986e+00 +9.0437588090050287e+00 +0.0000000000000000e+00 +4.8999997904000949e+00 -5.0661180155969592e-04 +0.0000000000000000e+00 +9.9999987167223292e-01
4.9999999999999982e+00 +9.0437076308621247e+00 +0.0000000000000000e+00 +4.9999997773036373e+00 -5.1695105842035252e-04 +0.0000000000000000e+00 +9.9999986638079252e-01
5.0999999999999979e+00 +9.0436554187929641e+00 +0.0000000000000000e+00 +5.0999997636726899e+00 -5.2729032670594293e-04 +0.0000000000000000e+00 +9.9999986098244587e-01
5.1999999999999975e+00 +9.0436021727963976e+00 +0.0000000000000000e+00 +5.1999997494965626e+00 -5.3762960656332927e-04 +0.0000000000000000e+00 +9.9999985547719250e-01
5.2999999999999972e+00 +9.0435478928712598e+00 +0.0000000000000000e+00 +5.2999997347645644e+00 -5.4796889815912728e-04 +0.0000000000000000e+00 +9.9999984986503188e-01
5.3999999999999968e+00 +9.0434925790163678e+00 +0.0000000000000000e+00 +5.3999997194660052e+00 -5.5830820167970341e-04 +0.0000000000000000e+00 +9.9999984414596366e-01
5.4999999999999964e+00 +9.0434362312305190e+00 +0.0000000000000000e+00 +5.4999997035901940e+00 -5.6864751733117272e-04 +0.0000000000000000e+00 +9.9999983831998729e-01
5.5999999999999961e+00 +9.0433788495124894e+00 +0.0000000000000000e+00 +5.5999996871264397e+00 -5.7898684533939601e-04 +0.0000000000000000e+00 +9.9999983238710222e-01
5.6999999999999957e+00 +9.0433204338610302e+00 +0.0000000000000000e+00 +5.6999996700640514e+00 -5.8932618594997692e-04 +0.0000000000000000e+00 +9.9999982634730800e-01
5.7999999999999954e+00 +9.0432609842748697e+00 +0.0000000000000000e+00 +5.7999996523923381e+00 -5.9966553942825899e-04 +0.0000000000000000e+00 +9.9999982020060407e-01
5.8999999999999950e+00 +9.0432005007527057e+00 +0.0000000000000000e+00 +5.8999996341006087e+00 -6.1000490605932277e-04 +0.0000000000000000e+00 +9.9999981394698978e-01
5.9999999999999947e+00 +9.0431389832932094e+00 +0.0000000000000000e+00 +5.9999996151781723e+00 -6.2034428614798237e-04 +0.0000000000000000e+00 +9.9999980758646456e-01
6.0999999999999943e+00 +9.0430764318950168e+00 +0.0000000000000000e+00 +6.0999995956143378e+00 -6.3068368001758092e-04 +0.0000000000000000e+00 +9.9999980111902786e-01
6.1999999999999940e+00 +9.0430128465567350e+00 +0.0000000000000000e+00 +6.1999995753984143e+00 -6.4102308799677307e-04 +0.0000000000000000e+00 +9.9999979454467902e-01
6.2999999999999936e+00 +9.0429482272769359e+00 +0.0000000000000000e+00 +6.2999995545197098e+00 -6.5136251040630918e-04 +0.0000000000000000e+00 +9.9999978786341737e-01
6.3999999999999932e+00 +9.0428825740541612e+00 +0.0000000000000000e+00 +6.3999995329675334e+00 -6.6170194755783276e-04 +0.0000000000000000e+00 +9.9999978107524223e-01
6.4999999999999929e+00 +9.0428158868869222e+00 +0.0000000000000000e+00 +6.4999995107311941e+00 -6.7204139975387970e-04 +0.0000000000000000e+00 +9.9999977418015296e-01
6.5999999999999925e+00 +9.0427481657736983e+00 +0.0000000000000000e+00 +6.5999994877999999e+00 -6.8238086728787683e-04 +0.0000000000000000e+00 +9.9999976717814887e-01
6.6999999999999922e+00 +9.0426794107129425e+00 +0.0000000000000000e+00 +6.6999994641632599e+00 -6.9272035044414123e-04 +0.0000000000000000e+00 +9.9999976006922919e-01
6.7999999999999918e+00 +9.0426096217030789e+00 +0.0000000000000000e+00 +6.7999994398102821e+00 -7.0305984949787864e-04 +0.0000000000000000e+00 +9.9999975285339338e-01
6.8999999999999915e+00 +9.0425387987425037e+00 +0.0000000000000000e+00 +6.8999994147303747e+00 -7.1339936471518262e-04 +0.0000000000000000e+00 +9.9999974553064075e-01
6.9999999999999911e+00 +9.0424669418295878e+00 +0.0000000000000000e+00 +6.9999993889128467e+00 -7.2373889635303338e-04 +0.0000000000000000e+00 +9.9999973810097054e-01
7.0999999999999908e+00 +9.0423940509626775e+00 +0.0000000000000000e+00 +7.0999993623470052e+00 -7.3407844465929624e-04 +0.0000000000000000e+00 +9.9999973056438207e-01
7.1999999999999904e+00 +9.0423201261400923e+00 +0.0000000000000000e+00 +7.1999993350221594e+00 -7.4441800987272053e-04 +0.0000000000000000e+00 +9.9999972292087469e-01
7.2999999999999901e+00 +9.0422451673601305e+00 +0.0000000000000000e+00 +7.2999993069276163e+00 -7.5475759222293844e-04 +0.0000000000000000e+00 +9.9999971517044772e-01
7.3999999999999897e+00 +9.0421691746210691e+00 +0.0000000000000000e+00 +7.3999992780526851e+00 -7.6509719193046334e-04 +0.0000000000000000e+00 +9.9999970731310039e-01
7.4999999999999893e+00 +9.0420921479211600e+00 +0.0000000000000000e+00 +7.4999992483866729e+00 -7.7543680920668864e-04 +0.0000000000000000e+00 +9.9999969934883204e-01
7.5999999999999890e+00 +9.0420140872586359e+00 +0.0000000000000000e+00 +7.5999992179188878e+00 -7.8577644425388636e-04 +0.0000000000000000e+00 +9.9999969127764199e-01
7.6999999999999886e+00 +9.0419349926317096e+00 +0.0000000000000000e+00 +7.6999991866386370e+00 -7.9611609726520569e-04 +0.0000000000000000e+00 +9.9999968309952947e-01
7.7999999999999883e+00 +9.0418548640385765e+00 +0.0000000000000000e+00 +7.7999991545352296e+00 -8.0645576842467142e-04 +0.0000000000000000e+00 +9.9999967481449381e-01
7.8999999999999879e+00 +9.0417737014774140e+00 +0.0000000000000000e+00 +7.8999991215979719e+00 -8.1679545790718248e-04 +0.0000000000000000e+00 +9.9999966642253424e-01
7.9999999999999876e+00 +9.0416915049463800e+00 +0.0000000000000000e+00 +7.9999990878161720e+00 -8.2713516587851058e-04 +0.0000000000000000e+00 +9.9999965792365009e-01
8.0999999999999872e+00 +9.0416082744436181e+00 +0.0000000000000000e+00 +8.0999990531791379e+00 -8.3747489249477258e-04 +0.0000000000000000e+00 +9.9999964931784069e-01
8.1999999999999869e+00 +9.0415240099672562e+00 +0.0000000000000000e+00 +8.1999990176761770e+00 -8.4781463789664622e-04 +0.0000000000000000e+00 +9.9999964060510527e-01
8.2999999999999865e+00 +9.0414387115154096e+00 +0.0000000000000000e+00 +8.2999989812965946e+00 -8.5815440220358811e-04 +0.0000000000000000e+00 +9.9999963178544315e-01
8.3999999999999861e+00 +9.0413523790861827e+00 +0.0000000000000000e+00 +8.3999989440297007e+00 -8.6849418551331178e-04 +0.0000000000000000e+00 +9.9999962285885369e-01
8.4999999999999858e+00 +9.0412650126776715e+00 +0.0000000000000000e+00 +8.4999989058648016e+00 -8.7883398790179106e-04 +0.0000000000000000e+00 +9.9999961382533620e-01
8.5999999999999854e+00 +9.0411766122879644e+00 +0.0000000000000000e+00 +8.5999988667912035e+00 -8.8917380942326414e-04 +0.0000000000000000e+00 +9.9999960468489013e-01
8.6999999999999851e+00 +9.0410871779151467e+00 +0.0000000000000000e+00 +8.6999988267982147e+00 -8.9951365011023768e-04 +0.0000000000000000e+00 +9.9999959543751471e-01
8.7999999999999847e+00 +9.0409967095573016e+00 +0.0000000000000000e+00 +8.7999987858751414e+00 -9.0985350997349070e-04 +0.0000000000000000e+00 +9.9999958608320949e-01
8.8999999999999844e+00 +9.0409052072125125e+00 +0.0000000000000000e+00 +8.8999987440112918e+00 -9.2019338900207906e-04 +0.0000000000000000e+00 +9.9999957662197381e-01
8.9999999999999840e+00 +9.0408126708788643e+00 +0.0000000000000000e+00 +8.9999987011959721e+00 -9.3053328716333975e-04 +0.0000000000000000e+00 +9.9999956705380699e-01
9.0999999999999837e+00 +9.0407191005544441e+00 +0.0000000000000000e+00 +9.0999986574184888e+00 -9.4087320440289517e-04 +0.0000000000000000e+00 +9.9999955737870860e-01
9.1999999999999833e+00 +9.0406244962373492e+00 +0.0000000000000000e+00 +9.1999986126681499e+00 -9.5121314064465815e-04 +0.0000000000000000e+00 +9.9999954759667808e-01
9.2999999999999829e+00 +9.0405288579256844e+00 +0.0000000000000000e+00 +9.2999985669342600e+00 -9.6155309579083639e-04 +0.0000000000000000e+00 +9.9999953770771499e-01
9.3999999999999826e+00 +9.0404321856175649e+00 +0.0000000000000000e+00 +9.3999985202061271e+00 -9.7189306972193757e-04 +0.0000000000000000e+00 +9.9999952771181888e-01
9.4999999999999822e+00 +9.0403344793111184e+00 +0.0000000000000000e+00 +9.4999984724730595e+00 -9.8223306229677418e-04 +0.0000000000000000e+00 +9.9999951760898920e-01
9.5999999999999819e+00 +9.0402357390044887e+00 +0.0000000000000000e+00 +9.5999984237243616e+00 -9.9257307335246870e-04 +0.0000000000000000e+00 +9.9999950739922561e-01
9.6999999999999815e+00 +9.0401359646958372e+00 +0.0000000000000000e+00 +9.6999983739493398e+00 -1.0029131027044589e-03 +0.0000000000000000e+00 +9.9999949708252767e-01
9.7999999999999812e+00 +9.0400351563833450e+00 +0.0000000000000000e+00 +9.7999983231373022e+00 -1.0132531501465031e-03 +0.0000000000000000e+00 +9.9999948665889504e-01
9.8999999999999808e+00 +9.0399333140652125e+00 +0.0000000000000000e+00 +9.8999982712775552e+00 -1.0235932154506861e-03 +0.0000000000000000e+00 +9.9999947612832740e-01
9.9999999999999805e+00 +9.0398304377396670e+00 +0.0000000000000000e+00 +9.9999982183594032e+00 -1.0339332983674242e-03 +0.0000000000000000e+00 +9.9999946549082441e-01
1.0099999999999980e+01 +9.0397265274049605e+00 +0.0000000000000000e+00 +1.0099998164372154e+01 -1.0442733986265208e-03 +0.0000000000000000e+00 +9.9999945474638585e-01
1.0199999999999980e+01 +9.0396215830593736e+00 +0.0000000000000000e+00 +1.0199998109305115e+01 -1.0546135159487172e-03 +0.0000000000000000e+00 +9.9999944389501139e-01
1.0299999999999979e+01 +9.0395156047012115e+00 +0.0000000000000000e+00 +1.0299998053147592e+01 -1.0649536500572361e-03 +0.0000000000000000e+00 +9.9999943293670090e-01
1.0399999999999979e+01 +9.0394085923288117e+00 +0.0000000000000000e+00 +1.0399997995888890e+01 -1.0752938006788251e-03 +0.0000000000000000e+00 +9.9999942187145408e-01
1.0499999999999979e+01 +9.0393005459405344e+00 +0.0000000000000000e+00 +1.0499997937518318e+01 -1.0856339675437499e-03 +0.0000000000000000e+00 +9.9999941069927067e-01
1.0599999999999978e+01 +9.0391914655347705e+00 +0.0000000000000000e+00 +1.0599997878025180e+01 -1.0959741503857871e-03 +0.0000000000000000e+00 +9.9999939942015059e-01
1.0699999999999978e+01 +9.0390813511099335e+00 +0.0000000000000000e+00 +1.0699997817398783e+01 -1.1063143489422169e-03 +0.0000000000000000e+00 +9.9999938803409349e-01
1.0799999999999978e+01 +9.0389702026644656e+00 +0.0000000000000000e+00 +1.0799997755628434e+01 -1.1166545629538159e-03 +0.0000000000000000e+00 +9.9999937654109927e-01
1.0899999999999977e+01 +9.0388580201968356e+00 +0.0000000000000000e+00 +1.0899997692703439e+01 -1.1269947921648488e-03 +0.0000000000000000e+00 +9.9999936494116770e-01
1.0999999999999977e+01 +9.0387448037055353e+00 +0.0000000000000000e+00 +1.0999997628613103e+01 -1.1373350363230617e-03 +0.0000000000000000e+00 +9.9999935323429856e-01
1.1099999999999977e+01 +9.0386305531890816e+00 +0.0000000000000000e+00 +1.1099997563346735e+01 -1.1476752951796729e-03 +0.0000000000000000e+00 +9.9999934142049174e-01
1.1199999999999976e+01 +9.0385152686460177e+00 +0.0000000000000000e+00 +1.1199997496893637e+01 -1.1580155684893657e-03 +0.0000000000000000e+00 +9.9999932949974701e-01
1.1299999999999976e+01 +9.0383989500749102e+00 +0.0000000000000000e+00 +1.1299997429243119e+01 -1.1683558560102794e-03 +0.0000000000000000e+00 +9.9999931747206416e-01
1.1399999999999975e+01 +9.0382815974743504e+00 +0.0000000000000000e+00 +1.1399997360384486e+01 -1.1786961575040009e-03 +0.0000000000000000e+00 +9.9999930533744308e-01
1.1499999999999975e+01 +9.0381632108429528e+00 +0.0000000000000000e+00 +1.1499997290307043e+01 -1.1890364727355561e-03 +0.0000000000000000e+00 +9.9999929309588365e-01
1.1599999999999975e+01 +9.0380437901793531e+00 +0.0000000000000000e+00 +1.1599997219000098e+01 -1.1993768014734009e-03 +0.0000000000000000e+00 +9.9999928074738564e-01
1.1699999999999974e+01 +9.0379233354822155e+00 +0.0000000000000000e+00 +1.1699997146452956e+01 -1.2097171434894121e-03 +0.0000000000000000e+00 +9.9999926829194896e-01
1.1799999999999974e+01 +9.0378018467502201e+00 +0.0000000000000000e+00 +1.1799997072654923e+01 -1.2200574985588779e-03 +0.0000000000000000e+00 +9.9999925572957338e-01
