# multipoles
# s[mm] polynom_b[n=0][T/m^n] polynom_b[n=1][T/m^n] polynom_b[n=2][T/m^n] polynom_b[n=3][T/m^n] polynom_b[n=4][T/m^n] polynom_b[n=5][T/m^n] polynom_b[n=6][T/m^n] 
-0.0000000000000000e+00 -1.0309360920421244e+00 +2.2865080703130141e+00 +8.8691335696249833e+00 -4.9589860969078478e+02 +9.9527625521135691e+04 +4.0805441852763630e+06 -7.2851181089730799e+07 
-1.0000000000000001e-01 -1.0309347572400767e+00 +2.2864994199462716e+00 +8.9385568359372822e+00 -5.0569043813350078e+02 +9.7965321920397429e+04 +4.1561924169567563e+06 -6.3808453128475696e+07 
-2.0000000000000001e-01 -1.0309333339107207e+00 +2.2864906356040118e+00 +8.9998716843645621e+00 -5.1522802347241998e+02 +9.6555422391990811e+04 +4.2298026823129216e+06 -5.5505487901107408e+07 
-2.9999999999999999e-01 -1.0309318100245815e+00 +2.2864829874373536e+00 +9.0527089994042669e+00 -5.2453130932678448e+02 +9.5308873329069189e+04 +4.3014409603676060e+06 -4.8009675509073831e+07 
-4.0000000000000002e-01 -1.0309301735521486e+00 +2.2864777455913292e+00 +9.0966996527088515e+00 -5.3362023895181528e+02 +9.4236621391831708e+04 +4.3711732278835140e+06 -4.1388407232913405e+07 
-5.0000000000000000e-01 -1.0309284124639015e+00 +2.2864761801934095e+00 +9.1314745052355057e+00 -5.4251475493933208e+02 +9.3349613489659008e+04 +4.4390654581470974e+06 -3.5709075516457871e+07 
-5.9999999999999998e-01 -1.0309265147302884e+00 +2.2864795613456659e+00 +9.1566644027547035e+00 -5.5123479905988825e+02 +9.2658796876775494e+04 +4.5051836206134884e+06 -3.1039074462614570e+07 
-6.9999999999999996e-01 -1.0309244683218115e+00 +2.2864891591205208e+00 +9.1719001841106227e+00 -5.5980031220834428e+02 +9.2175119018207668e+04 +4.5695936811854495e+06 -2.7445799265750721e+07 
-8.0000000000000004e-01 -1.0309222612088893e+00 +2.2865062435509058e+00 +9.1768126637905514e+00 -5.6823123414039435e+02 +9.1909527936139173e+04 +4.6323616011438472e+06 -2.4996647911208075e+07 
-9.0000000000000002e-01 -1.0309198813620022e+00 +2.2865320846244854e+00 +9.1710326499536983e+00 -5.7654750338715087e+02 +9.1872971875912001e+04 +4.6935533372994354e+06 -2.3759019616613820e+07 
-1.0000000000000000e+00 -1.0309173167516248e+00 +2.2865679522699325e+00 +9.1541909301385100e+00 -5.8476905691062586e+02 +9.2076399607205531e+04 +4.7532348404819043e+06 -2.3800316358590171e+07 
-1.1000000000000001e+00 -1.0309145553482444e+00 +2.2866151163641986e+00 +9.1259182767335432e+00 -5.9291583037666726e+02 +9.2530760326441479e+04 +4.8114720577503154e+06 -2.5187942433599554e+07 
-1.2000000000000000e+00 -1.0309115851223849e+00 +2.2866748467052860e+00 +9.0858454453013895e+00 -6.0100775739473386e+02 +9.3247003709862518e+04 +4.8683309284217656e+06 -2.7989304775312919e+07 
-1.3000000000000000e+00 -1.0309083940445631e+00 +2.2867484130193803e+00 +9.0336031699770345e+00 -6.0906476981328376e+02 +9.4236080016597130e+04 +4.9238773864529189e+06 -3.2271813500667468e+07 
-1.3999999999999999e+00 -1.0309049700853468e+00 +2.2868370849503417e+00 +8.9688221680167608e+00 -6.1710679745467166e+02 +9.5508940014970460e+04 +4.9781773593947571e+06 -3.8102881600479119e+07 
-1.5000000000000000e+00 -1.0309013012153339e+00 +2.2869421320490080e+00 +8.8911331348611053e+00 -6.2515376788956303e+02 +9.7076535098387045e+04 +5.0312967676976109e+06 -4.5549925560928948e+07 
-1.6000000000000001e+00 -1.0308973816366376e+00 +2.2870646622764323e+00 +8.8005215296649570e+00 -6.3322670062615748e+02 +9.8942445525130868e+04 +5.0833252221828690e+06 -5.4642091104569964e+07 
-1.7000000000000000e+00 -1.0308932305081449e+00 +2.2872050652180298e+00 +8.6983994820231363e+00 -6.4134615224617437e+02 +1.0108068509428499e+05 +5.1344141370759234e+06 -6.5255352037080348e+07 
-1.8000000000000000e+00 -1.0308888732361883e+00 +2.2873635326918302e+00 +8.5865378257438980e+00 -6.4953135796732045e+02 +1.0345784920232841e+05 +5.1847221841351092e+06 -7.7227326053632975e+07 
-1.8999999999999999e+00 -1.0308843352271011e+00 +2.2875402563885578e+00 +8.4667073832893429e+00 -6.5780154961689414e+02 +1.0604053357152644e+05 +5.2344080180293396e+06 -9.0395632752196327e+07 
-2.0000000000000000e+00 -1.0308796418873094e+00 +2.2877354278754907e+00 +8.3406789747185801e+00 -6.6617595580305169e+02 +1.0879533408508921e+05 +5.2836302772803623e+06 -1.0459789288054575e+08 
-2.1000000000000001e+00 -1.0308748186233621e+00 +2.2879492385768248e+00 +8.2102234254735205e+00 -6.7467380133436814e+02 +1.1168884662937428e+05 +5.3325475807031300e+06 -1.1967172757769535e+08 
-2.2000000000000002e+00 -1.0308698908419012e+00 +2.2881818797792226e+00 +8.0771115605963626e+00 -6.8331430741613678e+02 +1.1468766720740093e+05 +5.3813185284349667e+06 -1.3545475893999618e+08 
-2.2999999999999998e+00 -1.0308648839496741e+00 +2.2884335426131344e+00 +7.9431142081272501e+00 -6.9211669112670586e+02 +1.1775839186491410e+05 +5.4301016987826331e+06 -1.5178460966295469e+08 
-2.3999999999999999e+00 -1.0308598233535398e+00 +2.2887044180517542e+00 +7.8100022010654122e+00 -7.0110016538564469e+02 +1.2086761665373064e+05 +5.4790556478604060e+06 -1.6849890288440374e+08 
-2.5000000000000000e+00 -1.0308547344604939e+00 +2.2889946969007813e+00 +7.6795463805745570e+00 -7.1028393869646015e+02 +1.2398193756460416e+05 +5.5283389080063310e+06 -1.8543526186759222e+08 
-2.6000000000000001e+00 -1.0308496426776825e+00 +2.2893045697922649e+00 +7.5535175977286935e+00 -7.1968721496965293e+02 +1.2706795049339830e+05 +5.5781099865883235e+06 -2.0243130985504827e+08 
-2.7000000000000002e+00 -1.0308445734123577e+00 +2.2896342271759624e+00 +7.4336867104445563e+00 -7.2932919328788853e+02 +1.3009225129568684e+05 +5.6285273645192254e+06 -2.1932467033704239e+08 
-2.7999999999999998e+00 -1.0308395520719587e+00 +2.2899838593121000e+00 +7.3218245933950739e+00 -7.3922906772239844e+02 +1.3302143559190570e+05 +5.6797494950705934e+06 -2.3595296612277579e+08 
-2.8999999999999999e+00 -1.0308346040640672e+00 +2.2903536562671087e+00 +7.2197021312307497e+00 -7.4940602722977485e+02 +1.3582209889776105e+05 +5.7319348031205172e+06 -2.5215381998671657e+08 
-3.0000000000000000e+00 -1.0308297547964207e+00 +2.2907438078969782e+00 +7.1290902249835879e+00 -7.5987925515885502e+02 +1.3846083649201834e+05 +5.7852416821483504e+06 -2.6776485402154207e+08 
-3.1000000000000001e+00 -1.0308250296769286e+00 +2.2911545038496555e+00 +7.0517597915695758e+00 -7.7066792936703280e+02 +1.4090424343424957e+05 +5.8398284948138949e+06 -2.8262368977281284e+08 
-3.2000000000000002e+00 -1.0308204541137160e+00 +2.2915859335561142e+00 +6.9894817706102383e+00 -7.8179122196873448e+02 +1.4311891441960505e+05 +5.8958535713336486e+06 -2.9656794751425356e+08 
-3.2999999999999998e+00 -1.0308160535150781e+00 +2.2920382862142348e+00 +6.9440271208075739e+00 -7.9326829887556789e+02 +1.4507144384982137e+05 +5.9534752066868255e+06 -3.0943524661327994e+08 
-3.3999999999999999e+00 -1.0308118532894672e+00 +2.2925117507922690e+00 +6.9171668169118634e+00 -8.0511831991883935e+02 +1.4672842589400377e+05 +6.0128516611735364e+06 -3.2106320584826082e+08 
-3.5000000000000000e+00 -1.0308078788456108e+00 +2.2930065159954283e+00 +6.9106718644741374e+00 -8.1736043778129317e+02 +1.4805645421918746e+05 +6.0741411536863046e+06 -3.3128944218949050e+08 
-3.6000000000000001e+00 -1.0308041506367167e+00 +2.2935221519474114e+00 +6.9258261654455122e+00 -8.2999632784468986e+02 +1.4903081057442509e+05 +6.1374007105452865e+06 -3.3999163199664503e+08 
-3.7000000000000002e+00 -1.0308006696160292e+00 +2.2940559885445819e+00 +6.9620364188613628e+00 -8.4296420533195476e+02 +1.4965988160547250e+05 +6.2023188301108275e+06 -3.4719892158064216e+08 
-3.7999999999999998e+00 -1.0307974319369042e+00 +2.2946048489245197e+00 +7.0182564713005631e+00 -8.5618785120911934e+02 +1.4995994977908683e+05 +6.2684997720471006e+06 -3.5297629845099574e+08 
-3.8999999999999999e+00 -1.0307944337521460e+00 +2.2951655563118445e+00 +7.0934401108036278e+00 -8.6959104886292596e+02 +1.4994729853987726e+05 +6.3355478071388258e+06 -3.5738875433711410e+08 
-4.0000000000000000e+00 -1.0307916712139802e+00 +2.2957349340414241e+00 +7.1865410612382288e+00 -8.8309758479524055e+02 +1.4963821240173117e+05 +6.4030672211982058e+06 -3.6050128558144790e+08 
-4.0999999999999996e+00 -1.0307891404739249e+00 +2.2963098055680513e+00 +7.2965129726207705e+00 -8.9663124885750790e+02 +1.4904897711870962e+05 +6.4706623161536492e+06 -3.6237889390291309e+08 
-4.2000000000000002e+00 -1.0307868376828662e+00 +2.2968869944839647e+00 +7.4223094259899947e+00 -9.1011583476111059e+02 +1.4819587958055612e+05 +6.5379374127094736e+06 -3.6308658586006224e+08 
-4.2999999999999998e+00 -1.0307847589909538e+00 +2.2974633245296374e+00 +7.5628839259241625e+00 -9.2347514032267725e+02 +1.4709520793707631e+05 +6.6044968514251485e+06 -3.6268937338176280e+08 
-4.4000000000000004e+00 -1.0307829005475577e+00 +2.2980356196195437e+00 +7.7171898941051227e+00 -9.3663296822499024e+02 +1.4576325170607420e+05 +6.6699449969063597e+06 -3.6125227423101085e+08 
-4.5000000000000000e+00 -1.0307812585012515e+00 +2.2986007038465064e+00 +7.8841806696205436e+00 -9.4951312607010618e+02 +1.4421630175658924e+05 +6.7338862377224630e+06 -3.5884031188096380e+08 
-4.5999999999999996e+00 -1.0307798289997323e+00 +2.2991554015026083e+00 +8.0628094984919123e+00 -9.6203942700297273e+02 +1.4247065048672369e+05 +6.7959249898022925e+06 -3.5551851629631931e+08 
-4.7000000000000002e+00 -1.0307786081898460e+00 +2.2996965370918079e+00 +8.2520295398685732e+00 -9.7413569001608312e+02 +1.4054259169679339e+05 +6.8556656978538772e+06 -3.5135192329331565e+08 
-4.7999999999999998e+00 -1.0307775922174367e+00 +2.3002209353501057e+00 +8.4507938483716938e+00 -9.8572574051071331e+02 +1.3844842090884168e+05 +6.9127128383311937e+06 -3.4640557600062197e+08 
-4.9000000000000004e+00 -1.0307767772274752e+00 +2.3007254212489228e+00 +8.6580553892698529e+00 -9.9673341038271371e+02 +1.3620443506048340e+05 +6.9666709196334807e+06 -3.4074452334830582e+08 
-5.0000000000000000e+00 -1.0307761593637979e+00 +2.3012068200286313e+00 +8.8727670094696425e+00 -1.0070825389525646e+03 +1.3382693304644115e+05 +7.0171444872145616e+06 -3.3443382260528356e+08 
-5.0999999999999996e+00 -1.0307757347692512e+00 +2.3016619571961527e+00 +9.0938814551401492e+00 -1.0166969728671411e+03 +1.3133221536823511e+05 +7.0637381226790231e+06 -3.2753853765797603e+08 
-5.2000000000000002e+00 -1.0307754995855878e+00 +2.3020876585502736e+00 +9.3203513610774351e+00 -1.0255005668173994e+03 +1.2873658431072807e+05 +7.1060564476838084e+06 -3.2012373976982766e+08 
-5.2999999999999998e+00 -1.0307754499533559e+00 +2.3024807501961440e+00 +9.5511292372622112e+00 -1.0334171839175117e+03 +1.2605634420435513e+05 +7.1437041258179024e+06 -3.1225450883856672e+08 
-5.4000000000000004e+00 -1.0307755820119795e+00 +2.3028380585526538e+00 +9.7851674802403465e+00 -1.0403706958970788e+03 +1.2330780117402399e+05 +7.1762858634093888e+06 -3.0399593209328979e+08 
-5.5000000000000000e+00 -1.0307758918996319e+00 +2.3031564103846707e+00 +1.0021418361859697e+01 -1.0462849832969812e+03 +1.2050726342736011e+05 +7.2034064097532574e+06 -2.9541310561607724e+08 
-5.5999999999999996e+00 -1.0307763742507696e+00 +2.3034332946326601e+00 +1.0258909780860796e+01 -1.0510939471463059e+03 +1.1767051073426977e+05 +7.2247077949218303e+06 -2.8657170407095408e+08 
-5.7000000000000002e+00 -1.0307770173853652e+00 +2.3036687696236497e+00 +1.0496885060173380e+01 -1.0547775725611509e+03 +1.1481281068496821e+05 +7.2400275329340063e+06 -2.7754695585483360e+08 
-5.7999999999999998e+00 -1.0307778079736571e+00 +2.3038635235791936e+00 +1.0734620441226550e+01 -1.0573290237226997e+03 +1.1194971751448675e+05 +7.2492643507297244e+06 -2.6841842567330071e+08 
-5.9000000000000004e+00 -1.0307787326855318e+00 +2.3040182448594186e+00 +1.0971392092029959e+01 -1.0587414711230849e+03 +1.0909678700179602e+05 +7.2523170203049090e+06 -2.5926568543203792e+08 
-6.0000000000000000e+00 -1.0307797781904884e+00 +2.3041336219254003e+00 +1.1206476102549711e+01 -1.0590080899963777e+03 +1.0626957647552379e+05 +7.2490843499086369e+06 -2.5016831408363816e+08 
-6.0999999999999996e+00 -1.0307809311578360e+00 +2.3042103433513925e+00 +1.1439148507262360e+01 -1.0581220607737519e+03 +1.0348364438285505e+05 +7.2394651871505855e+06 -2.4120589555540362e+08 
-6.2000000000000002e+00 -1.0307821782564444e+00 +2.3042490978182979e+00 +1.1668685256263378e+01 -1.0560765689370221e+03 +1.0075455085314199e+05 +7.2233584185474040e+06 -2.3245802144535062e+08 
-6.2999999999999998e+00 -1.0307835061549957e+00 +2.3042505741279120e+00 +1.1894362241731804e+01 -1.0528648055190224e+03 +9.8097857190681345e+04 +7.2006629728188980e+06 -2.2400428858098620e+08 
-6.4000000000000004e+00 -1.0307849015217427e+00 +2.3042154611962387e+00 +1.2115455267078818e+01 -1.0484799669830609e+03 +9.5529126477242986e+04 +7.1712778206356578e+06 -2.1592430190852597e+08 
-6.5000000000000000e+00 -1.0307863510247359e+00 +2.3041444480615936e+00 +1.2331240076445660e+01 -1.0429152555065846e+03 +9.3063923005031174e+04 +7.1351019766230006e+06 -2.0829767175897560e+08 
-6.5999999999999996e+00 -1.0307878413316955e+00 +2.3040382238881350e+00 +1.2540992334147770e+01 -1.0361638791959399e+03 +9.0717812682839329e+04 +7.0920345011159666e+06 -2.0120401580186072e+08 
-6.7000000000000002e+00 -1.0307893591100177e+00 +2.3038974779627144e+00 +1.2743987626833148e+01 -1.0282190520141971e+03 +8.8506362993794843e+04 +7.0419745000229208e+06 -1.9472295882247958e+08 
-6.7999999999999998e+00 -1.0307908910268311e+00 +2.3037228997067571e+00 +1.2939501468109123e+01 -1.0190739942350426e+03 +8.6445142915679244e+04 +6.9848211279761447e+06 -1.8893413234387228e+08 
-6.9000000000000004e+00 -1.0307924237489807e+00 +2.3035151786724022e+00 +1.3126809293417239e+01 -1.0087219324024630e+03 +8.4549723022936494e+04 +6.9204735884820307e+06 -1.8391717510460445e+08 
-7.0000000000000000e+00 -1.0307939439430089e+00 +2.3032750045527894e+00 +1.3305186459278360e+01 -9.9715609967458556e+02 +8.2835675509665147e+04 +6.8488311363069359e+06 -1.7975173317443874e+08 
-7.0999999999999996e+00 -1.0307954382751641e+00 +2.3030030671728623e+00 +1.3473908241857323e+01 -9.8436973564696700e+02 +8.1318574215084911e+04 +6.7697930768808722e+06 -1.7651746004868832e+08 
-7.2000000000000002e+00 -1.0307968934114660e+00 +2.3027000565052860e+00 +1.3632249842529539e+01 -9.7035608688789125e+02 +8.0013994528201292e+04 +6.6832587698212629e+06 -1.7429401620288521e+08 
-7.2999999999999998e+00 -1.0307982960175719e+00 +2.3023666626668868e+00 +1.3779486373783076e+01 -9.5510840688625547e+02 +7.8937513662526297e+04 +6.5891276290392028e+06 -1.7316107040007058e+08 
-7.4000000000000004e+00 -1.0307996327589637e+00 +2.3020035759239645e+00 +1.3914892875372022e+01 -9.3861995630893171e+02 +7.8104710350304551e+04 +6.4872991246519703e+06 -1.7319829821905014e+08 
-7.5000000000000000e+00 -1.0308008903008599e+00 +2.3016114868741369e+00 +1.4037744327953140e+01 -9.2088401145682303e+02 +7.7531164035633599e+04 +6.3776728361933623e+06 -1.7448537680248880e+08 
-7.5999999999999996e+00 -1.0308020586093323e+00 +2.3011916070845473e+00 +1.4147655794839990e+01 -9.0192278851317781e+02 +7.7224927090148223e+04 +6.2603401327918665e+06 -1.7706372457474777e+08 
-7.7000000000000002e+00 -1.0308031412993974e+00 +2.3007466371993477e+00 +1.4245624965746385e+01 -8.8185092304601369e+02 +7.7165058144071489e+04 +6.1360240146975126e+06 -1.8083149816623148e+08 
-7.7999999999999998e+00 -1.0308041455423120e+00 +2.3002795152304860e+00 +1.4333008531160045e+01 -8.6080119981600512e+02 +7.7323432851374120e+04 +6.0055776295687966e+06 -1.8565233633735445e+08 
-7.9000000000000004e+00 -1.0308050785113132e+00 +2.2997931788579873e+00 +1.4411163511699803e+01 -8.3890639078710410e+02 +7.7671920281978513e+04 +5.8698540414199289e+06 -1.9138984676260629e+08 
-8.0000000000000000e+00 -1.0308059473817406e+00 +2.2992905654863676e+00 +1.4481447268601618e+01 -8.1629925598798343e+02 +7.8182382729023491e+04 +5.7297062302925624e+06 -1.9790760483373404e+08 
-8.0999999999999996e+00 -1.0308067593309505e+00 +2.2987746122242996e+00 +1.4545217494429869e+01 -7.9311254280860430e+02 +7.8826675869609782e+04 +5.5859870876929201e+06 -2.0506915441524431e+08 
-8.1999999999999993e+00 -1.0308075215384707e+00 +2.2982482558823221e+00 +1.4603832236067209e+01 -7.6947898574991996e+02 +7.9576648325784699e+04 +5.4395494145085691e+06 -2.1273800577748916e+08 
-8.3000000000000007e+00 -1.0308082411860777e+00 +2.2977144329587724e+00 +1.4658649905240663e+01 -7.4553130590240949e+02 +8.0404141448169874e+04 +5.2912459174842648e+06 -2.2077763455847448e+08 
-8.4000000000000004e+00 -1.0308089254577919e+00 +2.2971760796267797e+00 +1.4711029282351749e+01 -7.2140221038852792e+02 +8.1280989242924436e+04 +5.1419292053822577e+06 -2.2905148144371000e+08 
-8.5000000000000000e+00 -1.0308095815400433e+00 +2.2966361317277881e+00 +1.4762329540058198e+01 -6.9722439205644866e+02 +8.2179017905524655e+04 +4.9924517867234927e+06 -2.3742294993289268e+08 
-8.5999999999999996e+00 -1.0308102166216975e+00 +2.2960975247604991e+00 +1.4813910245564081e+01 -6.7313052899817694e+02 +8.3070045777844702e+04 +4.8436660663662236e+06 -2.4575540616696489e+08 
-8.6999999999999993e+00 -1.0308108378940815e+00 +2.2955631938675154e+00 +1.4867131372652858e+01 -6.4925328400383103e+02 +8.3925883103956745e+04 +4.6964243418240603e+06 -2.5391217775740439e+08 
-8.8000000000000007e+00 -1.0308114525511645e+00 +2.2950360738232005e+00 +1.4923353322068447e+01 -6.2572530408049261e+02 +8.4718331631628665e+04 +4.5515787999038696e+06 -2.6175655188891625e+08 
-8.9000000000000004e+00 -1.0308120677895003e+00 +2.2945190990284803e+00 +1.4983936917418173e+01 -6.0267922015269767e+02 +8.5419184693604882e+04 +4.4099815144460965e+06 -2.6915177574865752e+08 
-9.0000000000000000e+00 -1.0308126908084205e+00 +2.2940152034998551e+00 +1.5050243435625466e+01 -5.8024764657203787e+02 +8.6000226605150034e+04 +4.2724844428678593e+06 -2.7596105362740850e+08 
-9.0999999999999996e+00 -1.0308133288100347e+00 +2.2935273208506923e+00 +1.5123634604965149e+01 -5.5856318045476553e+02 +8.6433232704010428e+04 +4.1399394218039922e+06 -2.8204754714669776e+08 
-9.1999999999999993e+00 -1.0308139889993053e+00 +2.2930583842890360e+00 +1.5205472619662441e+01 -5.3775840145951713e+02 +8.6689969054334317e+04 +4.0131981652628682e+06 -2.8727437383139211e+08 
-9.3000000000000007e+00 -1.0308146785841250e+00 +2.2926113266047756e+00 +1.5297120152015820e+01 -5.1796587125829524e+02 +8.6742192220866069e+04 +3.8931122609781474e+06 -2.9150460608093512e+08 
-9.4000000000000004e+00 -1.0308154047753908e+00 +2.2921890801571623e+00 +1.5399940364654062e+01 -4.9931813303825993e+02 +8.6561649009721412e+04 +3.7805331669777050e+06 -2.9460126989350563e+08 
-9.5000000000000000e+00 -1.0308161747871107e+00 +2.2917945766143899e+00 +1.5515296895852916e+01 -4.8194769937255575e+02 +8.6120077477409199e+04 +3.6763121256731222e+06 -2.9642735237860960e+08 
-9.5999999999999996e+00 -1.0308169956132687e+00 +2.2914298448617720e+00 +1.5644381040449272e+01 -4.6595337574115899e+02 +8.5393435543588887e+04 +3.5810861826406601e+06 -2.9686847832721204e+08 
-9.6999999999999993e+00 -1.0308178722910737e+00 +2.2910939309605953e+00 +1.5787638169081630e+01 -4.5131881176240745e+02 +8.4374007671847095e+04 +3.4947548744395813e+06 -2.9589288189854121e+08 
-9.8000000000000007e+00 -1.0308188090696868e+00 +2.2907852730639195e+00 +1.5945304740436018e+01 -4.3800260528278432e+02 +8.3058226948508498e+04 +3.4170544856519862e+06 -2.9348859302852643e+08 
-9.9000000000000004e+00 -1.0308198101968775e+00 +2.2905023089475813e+00 +1.6117617018349737e+01 -4.2596333799027173e+02 +8.1442530467023156e+04 +3.3477211899389182e+06 -2.8964366195283133e+08 
-1.0000000000000000e+01 -1.0308208799192413e+00 +2.2902434759320323e+00 +1.6304811117740687e+01 -4.1515957505934989e+02 +7.9523358617464459e+04 +3.2864910540876454e+06 -2.8434615654879367e+08 
-1.0100000000000000e+01 -1.0308220224822213e+00 +2.2900072108874387e+00 +1.6507123000506343e+01 -4.0554986528708321e+02 +7.7297155177390741e+04 +3.2331000386921950e+06 -2.7758416281742370e+08 
