# trajectory
# s[mm] rx[mm] ry[mm] rz[mm] px[rad] py[rad] pz[rad]
0.0000000000000000e+00 +9.1013000000000002e+00 +0.0000000000000000e+00 +0.0000000000000000e+00 +0.0000000000000000e+00 +0.0000000000000000e+00 +1.0000000000000000e+00
1.0000000000000001e-01 +9.1012994833168914e+00 +0.0000000000000000e+00 +9.9999999998220263e-02 -1.0333661517648904e-05 +0.0000000000000000e+00 +9.9999999994660771e-01
2.0000000000000001e-01 +9.1012979332678210e+00 +0.0000000000000000e+00 +1.9999999998576207e-01 -2.0667319277130739e-05 +0.0000000000000000e+00 +9.9999999978643095e-01
3.0000000000000004e-01 +9.1012953498531566e+00 +0.0000000000000000e+00 +2.9999999995194698e-01 -3.1000973432351254e-05 +0.0000000000000000e+00 +9.9999999951946983e-01
4.0000000000000002e-01 +9.1012917330732499e+00 +0.0000000000000000e+00 +3.9999999988609658e-01 -4.1334624115445964e-05 +0.0000000000000000e+00 +9.9999999914572446e-01
5.0000000000000000e-01 +9.1012870829284438e+00 +0.0000000000000000e+00 +4.9999999977753240e-01 -5.1668271436782238e-05 +0.0000000000000000e+00 +9.9999999866519484e-01
5.9999999999999998e-01 +9.1012813994190704e+00 +0.0000000000000000e+00 +5.9999999961557604e-01 -6.2001915484961010e-05 +0.0000000000000000e+00 +9.9999999807788120e-01
6.9999999999999996e-01 +9.1012746825454531e+00 +0.0000000000000000e+00 +6.9999999938954915e-01 -7.2335556326818100e-05 +0.0000000000000000e+00 +9.9999999738378365e-01
7.9999999999999993e-01 +9.1012669323079098e+00 +0.0000000000000000e+00 +7.9999999908877328e-01 -8.2669194007425201e-05 +0.0000000000000000e+00 +9.9999999658290217e-01
8.9999999999999991e-01 +9.1012581487067550e+00 +0.0000000000000000e+00 +8.9999999870257008e-01 -9.3002828550090436e-05 +0.0000000000000000e+00 +9.9999999567523690e-01
9.9999999999999989e-01 +9.1012483317423030e+00 +0.0000000000000000e+00 +9.9999999822026120e-01 -1.0333645995635852e-04 +0.0000000000000000e+00 +9.9999999466078793e-01
1.0999999999999999e+00 +9.1012374814148682e+00 +0.0000000000000000e+00 +1.0999999976311683e+00 -1.1367008820601065e-04 +0.0000000000000000e+00 +9.9999999353955538e-01
1.2000000000000000e+00 +9.1012255977247687e+00 +0.0000000000000000e+00 +1.1999999969246129e+00 -1.2400371325706384e-04 +0.0000000000000000e+00 +9.9999999231153935e-01
1.3000000000000000e+00 +9.1012126806723259e+00 +0.0000000000000000e+00 +1.2999999960899167e+00 -1.3433733504577010e-04 +0.0000000000000000e+00 +9.9999999097673997e-01
1.4000000000000001e+00 +9.1011987302578703e+00 +0.0000000000000000e+00 +1.3999999951164015e+00 -1.4467095348661500e-04 +0.0000000000000000e+00 +9.9999998953515734e-01
1.5000000000000002e+00 +9.1011837464817429e+00 +0.0000000000000000e+00 +1.4999999939933888e+00 -1.5500456847231605e-04 +0.0000000000000000e+00 +9.9999998798679157e-01
1.6000000000000003e+00 +9.1011677293442954e+00 +0.0000000000000000e+00 +1.5999999927102004e+00 -1.6533817987382057e-04 +0.0000000000000000e+00 +9.9999998633164278e-01
1.7000000000000004e+00 +9.1011506788458920e+00 +0.0000000000000000e+00 +1.6999999912561581e+00 -1.7567178754030325e-04 +0.0000000000000000e+00 +9.9999998456971118e-01
1.8000000000000005e+00 +9.1011325949869164e+00 +0.0000000000000000e+00 +1.7999999896205834e+00 -1.8600539129916334e-04 +0.0000000000000000e+00 +9.9999998270099677e-01
1.9000000000000006e+00 +9.1011134777677682e+00 +0.0000000000000000e+00 +1.8999999877927980e+00 -1.9633899095602137e-04 +0.0000000000000000e+00 +9.9999998072549989e-01
2.0000000000000004e+00 +9.1010933271888685e+00 +0.0000000000000000e+00 +1.9999999857621238e+00 -2.0667258629471561e-04 +0.0000000000000000e+00 +9.9999997864322054e-01
2.1000000000000005e+00 +9.1010721432506614e+00 +0.0000000000000000e+00 +2.0999999835178826e+00 -2.1700617707790895e-04 +0.0000000000000000e+00 +9.9999997645415906e-01
2.2000000000000006e+00 +9.1010499259536140e+00 +0.0000000000000000e+00 +2.1999999810493964e+00 -2.2733976305380475e-04 +0.0000000000000000e+00 +9.9999997415831554e-01
2.3000000000000007e+00 +9.1010266752982201e+00 +0.0000000000000000e+00 +2.2999999783459866e+00 -2.3767334396286431e-04 +0.0000000000000000e+00 +9.9999997175569022e-01
2.4000000000000008e+00 +9.1010023912850002e+00 +0.0000000000000000e+00 +2.3999999753969750e+00 -2.4800691953841611e-04 +0.0000000000000000e+00 +9.9999996924628332e-01
2.5000000000000009e+00 +9.1009770739144997e+00 +0.0000000000000000e+00 +2.4999999721916839e+00 -2.5834048950665464e-04 +0.0000000000000000e+00 +9.9999996663009505e-01
2.6000000000000010e+00 +9.1009507231872941e+00 +0.0000000000000000e+00 +2.5999999687194348e+00 -2.6867405358663865e-04 +0.0000000000000000e+00 +9.9999996390712564e-01
2.7000000000000011e+00 +9.1009233391039874e+00 +0.0000000000000000e+00 +2.6999999649695496e+00 -2.7900761149029005e-04 +0.0000000000000000e+00 +9.9999996107737543e-01
2.8000000000000012e+00 +9.1008949216652120e+00 +0.0000000000000000e+00 +2.7999999609313506e+00 -2.8934116292239235e-04 +0.0000000000000000e+00 +9.9999995814084464e-01
2.9000000000000012e+00 +9.1008654708716286e+00 +0.0000000000000000e+00 +2.8999999565941592e+00 -2.9967470758058933e-04 +0.0000000000000000e+00 +9.9999995509753359e-01
3.0000000000000013e+00 +9.1008349867239318e+00 +0.0000000000000000e+00 +2.9999999519472977e+00 -3.1000824515538359e-04 +0.0000000000000000e+00 +9.9999995194744262e-01
3.1000000000000014e+00 +9.1008034692228446e+00 +0.0000000000000000e+00 +3.0999999469800885e+00 -3.2034177533013519e-04 +0.0000000000000000e+00 +9.9999994869057196e-01
3.2000000000000015e+00 +9.1007709183691237e+00 +0.0000000000000000e+00 +3.1999999416818530e+00 -3.3067529778106039e-04 +0.0000000000000000e+00 +9.9999994532692205e-01
3.3000000000000016e+00 +9.1007373341635578e+00 +0.0000000000000000e+00 +3.2999999360419134e+00 -3.4100881217723016e-04 +0.0000000000000000e+00 +9.9999994185649310e-01
3.4000000000000017e+00 +9.1007027166069694e+00 +0.0000000000000000e+00 +3.3999999300495922e+00 -3.5134231818056890e-04 +0.0000000000000000e+00 +9.9999993827928557e-01
3.5000000000000018e+00 +9.1006670657002147e+00 +0.0000000000000000e+00 +3.4999999236942112e+00 -3.6167581544585309e-04 +0.0000000000000000e+00 +9.9999993459529990e-01
3.6000000000000019e+00 +9.1006303814441836e+00 +0.0000000000000000e+00 +3.5999999169650927e+00 -3.7200930362070987e-04 +0.0000000000000000e+00 +9.9999993080453642e-01
3.7000000000000020e+00 +9.1005926638398051e+00 +0.0000000000000000e+00 +3.6999999098515590e+00 -3.8234278234561590e-04 +0.0000000000000000e+00 +9.9999992690699557e-01
3.8000000000000020e+00 +9.1005539128880422e+00 +0.0000000000000000e+00 +3.7999999023429325e+00 -3.9267625125389584e-04 +0.0000000000000000e+00 +9.9999992290267770e-01
3.9000000000000021e+00 +9.1005141285898947e+00 +0.0000000000000000e+00 +3.8999998944285355e+00 -4.0300970997172124e-04 +0.0000000000000000e+00 +9.9999991879158334e-01
4.0000000000000018e+00 +9.1004733109464002e+00 +0.0000000000000000e+00 +3.9999998860976902e+00 -4.1334315811810909e-04 +0.0000000000000000e+00 +9.9999991457371296e-01
4.1000000000000014e+00 +9.1004314599586369e+00 +0.0000000000000000e+00 +4.0999998773397186e+00 -4.2367659530541759e-04 +0.0000000000000000e+00 +9.9999991024906709e-01
4.2000000000000011e+00 +9.1003885756277185e+00 +0.0000000000000000e+00 +4.1999998681439443e+00 -4.3401002114481298e-04 +0.0000000000000000e+00 +9.9999990581764620e-01
4.3000000000000007e+00 +9.1003446579547997e+00 +0.0000000000000000e+00 +4.2999998584996888e+00 -4.4434343525173801e-04 +0.0000000000000000e+00 +9.9999990127945071e-01
4.4000000000000004e+00 +9.1002997069410725e+00 +0.0000000000000000e+00 +4.3999998483962752e+00 -4.5467683724641103e-04 +0.0000000000000000e+00 +9.9999989663448130e-01
4.5000000000000000e+00 +9.1002537225877660e+00 +0.0000000000000000e+00 +4.4999998378230259e+00 -4.6501022675382808e-04 +0.0000000000000000e+00 +9.9999989188273852e-01
4.5999999999999996e+00 +9.1002067048961486e+00 +0.0000000000000000e+00 +4.5999998267692641e+00 -4.7534360340376530e-04 +0.0000000000000000e+00 +9.9999988702422282e-01
4.6999999999999993e+00 +9.1001586538675259e+00 +0.0000000000000000e+00 +4.6999998152243121e+00 -4.8567696683078155e-04 +0.0000000000000000e+00 +9.9999988205893486e-01
4.7999999999999989e+00 +9.1001095695032355e+00 +0.0000000000000000e+00 +4.7999998031774922e+00 -4.9601031667422120e-04 +0.0000000000000000e+00 +9.9999987698687520e-01
4.8999999999999986e+00 +9.1000594518046558e+00 +0.0000000000000000e+00 +4.8999997906181276e+00 -5.0634365257821708e-04 +0.0000000000000000e+00 +9.9999987180804439e-01
4.9999999999999982e+00 +9.1000083007731973e+00 +0.0000000000000000e+00 +4.9999997775355416e+00 -5.1667697419169355e-04 +0.0000000000000000e+00 +9.9999986652244310e-01
5.0999999999999979e+00 +9.0999561164103060e+00 +0.0000000000000000e+00 +5.0999997639190573e+00 -5.2701028116837001e-04 +0.0000000000000000e+00 +9.9999986113007200e-01
5.1999999999999975e+00 +9.0999028987174633e+00 +0.0000000000000000e+00 +5.1999997497579971e+00 -5.3734357316676451e-04 +0.0000000000000000e+00 +9.9999985563093163e-01
5.2999999999999972e+00 +9.0998486476961826e+00 +0.0000000000000000e+00 +5.2999997350416841e+00 -5.4767684985019736e-04 +0.0000000000000000e+00 +9.9999985002502267e-01
5.3999999999999968e+00 +9.0997933633480148e+00 +0.0000000000000000e+00 +5.3999997197594425e+00 -5.5801011088679514e-04 +0.0000000000000000e+00 +9.9999984431234579e-01
5.4999999999999964e+00 +9.0997370456745390e+00 +0.0000000000000000e+00 +5.4999997039005946e+00 -5.6834335594949472e-04 +0.0000000000000000e+00 +9.9999983849290164e-01
5.5999999999999961e+00 +9.0996796946773681e+00 +0.0000000000000000e+00 +5.5999996874544635e+00 -5.7867658471604791e-04 +0.0000000000000000e+00 +9.9999983256669089e-01
5.6999999999999957e+00 +9.0996213103581489e+00 +0.0000000000000000e+00 +5.6999996704103735e+00 -5.8900979686902567e-04 +0.0000000000000000e+00 +9.9999982653371433e-01
5.7999999999999954e+00 +9.0995618927185582e+00 +0.0000000000000000e+00 +5.7999996527576476e+00 -5.9934299209582313e-04 +0.0000000000000000e+00 +9.9999982039397262e-01
5.8999999999999950e+00 +9.0995014417603048e+00 +0.0000000000000000e+00 +5.8999996344856092e+00 -6.0967617008866426e-04 +0.0000000000000000e+00 +9.9999981414746641e-01
5.9999999999999947e+00 +9.0994399574851261e+00 +0.0000000000000000e+00 +5.9999996155835822e+00 -6.2000933054460724e-04 +0.0000000000000000e+00 +9.9999980779419639e-01
6.0999999999999943e+00 +9.0993774398947913e+00 +0.0000000000000000e+00 +6.0999995960408899e+00 -6.3034247316668367e-04 +0.0000000000000000e+00 +9.9999980133416333e-01
6.1999999999999940e+00 +9.0993138889910963e+00 +0.0000000000000000e+00 +6.1999995758468565e+00 -6.4067559767637915e-04 +0.0000000000000000e+00 +9.9999979476736800e-01
6.2999999999999936e+00 +9.0992493047758671e+00 +0.0000000000000000e+00 +6.2999995549908050e+00 -6.5100870382610787e-04 +0.0000000000000000e+00 +9.9999978809381107e-01
6.3999999999999932e+00 +9.0991836872509495e+00 +0.0000000000000000e+00 +6.3999995334620596e+00 -6.6134179140034226e-04 +0.0000000000000000e+00 +9.9999978131349332e-01
6.4999999999999929e+00 +9.0991170364182121e+00 +0.0000000000000000e+00 +6.4999995112499445e+00 -6.7167486021560809e-04 +0.0000000000000000e+00 +9.9999977442641541e-01
6.5999999999999925e+00 +9.0990493522795379e+00 +0.0000000000000000e+00 +6.5999994883437836e+00 -6.8200791012047919e-04 +0.0000000000000000e+00 +9.9999976743257801e-01
6.6999999999999922e+00 +9.0989806348368223e+00 +0.0000000000000000e+00 +6.6999994647329011e+00 -6.9234094099557188e-04 +0.0000000000000000e+00 +9.9999976033198179e-01
6.7999999999999918e+00 +9.0989108840919748e+00 +0.0000000000000000e+00 +6.7999994404066211e+00 -7.0267395275353970e-04 +0.0000000000000000e+00 +9.9999975312462741e-01
6.8999999999999915e+00 +9.0988401000469104e+00 +0.0000000000000000e+00 +6.8999994153542676e+00 -7.1300694533906709e-04 +0.0000000000000000e+00 +9.9999974581051543e-01
6.9999999999999911e+00 +9.0987682827035474e+00 +0.0000000000000000e+00 +6.9999993895651658e+00 -7.2333991872886353e-04 +0.0000000000000000e+00 +9.9999973838964651e-01
7.0999999999999908e+00 +9.0986954320638045e+00 +0.0000000000000000e+00 +7.0999993630286387e+00 -7.3367287293165729e-04 +0.0000000000000000e+00 +9.9999973086202132e-01
7.1999999999999904e+00 +9.0986215481296000e+00 +0.0000000000000000e+00 +7.1999993357340113e+00 -7.4400580798818867e-04 +0.0000000000000000e+00 +9.9999972322764030e-01
7.2999999999999901e+00 +9.0985466309028435e+00 +0.0000000000000000e+00 +7.2999993076706078e+00 -7.5433872397120331e-04 +0.0000000000000000e+00 +9.9999971548650401e-01
7.3999999999999897e+00 +9.0984706803854376e+00 +0.0000000000000000e+00 +7.3999992788277531e+00 -7.6467162098544500e-04 +0.0000000000000000e+00 +9.9999970763861301e-01
7.4999999999999893e+00 +9.0983936965792740e+00 +0.0000000000000000e+00 +7.4999992491947713e+00 -7.7500449916764887e-04 +0.0000000000000000e+00 +9.9999969968396774e-01
7.5999999999999890e+00 +9.0983156794862268e+00 +0.0000000000000000e+00 +7.5999992187609875e+00 -7.8533735868653348e-04 +0.0000000000000000e+00 +9.9999969162256863e-01
7.6999999999999886e+00 +9.0982366291081522e+00 +0.0000000000000000e+00 +7.6999991875157265e+00 -7.9567019974279354e-04 +0.0000000000000000e+00 +9.9999968345441614e-01
7.7999999999999883e+00 +9.0981565454468853e+00 +0.0000000000000000e+00 +7.7999991554483126e+00 -8.0600302256909158e-04 +0.0000000000000000e+00 +9.9999967517951072e-01
7.8999999999999879e+00 +9.0980754285042362e+00 +0.0000000000000000e+00 +7.8999991225480706e+00 -8.1633582743005000e-04 +0.0000000000000000e+00 +9.9999966679785257e-01
7.9999999999999876e+00 +9.0979932782819883e+00 +0.0000000000000000e+00 +7.9999990888043246e+00 -8.2666861462224288e-04 +0.0000000000000000e+00 +9.9999965830944204e-01
8.0999999999999872e+00 +9.0979100947818914e+00 +0.0000000000000000e+00 +8.0999990542063998e+00 -8.3700138447114283e-04 +0.0000000000000000e+00 +9.9999964971427946e-01
8.1999999999999869e+00 +9.0978258780056631e+00 +0.0000000000000000e+00 +8.1999990187436218e+00 -8.4733413729762676e-04 +0.0000000000000000e+00 +9.9999964101236505e-01
8.2999999999999865e+00 +9.0977406279549911e+00 +0.0000000000000000e+00 +8.2999989824053149e+00 -8.5766687338449210e-04 +0.0000000000000000e+00 +9.9999963220369914e-01
8.3999999999999861e+00 +9.0976543446315361e+00 +0.0000000000000000e+00 +8.3999989451808030e+00 -8.6799959297342453e-04 +0.0000000000000000e+00 +9.9999962328828196e-01
8.4999999999999858e+00 +9.0975670280369396e+00 +0.0000000000000000e+00 +8.4999989070594122e+00 -8.7833229626501047e-04 +0.0000000000000000e+00 +9.9999961426611383e-01
8.5999999999999854e+00 +9.0974786781728216e+00 +0.0000000000000000e+00 +8.5999988680304664e+00 -8.8866498341875057e-04 +0.0000000000000000e+00 +9.9999960513719521e-01
8.6999999999999851e+00 +9.0973892950407897e+00 +0.0000000000000000e+00 +8.6999988280832916e+00 -8.9899765455307289e-04 +0.0000000000000000e+00 +9.9999959590152643e-01
8.7999999999999847e+00 +9.0972988786424427e+00 +0.0000000000000000e+00 +8.7999987872072136e+00 -9.0933030974534750e-04 +0.0000000000000000e+00 +9.9999958655910792e-01
8.8999999999999844e+00 +9.0972074289793721e+00 +0.0000000000000000e+00 +8.8999987453915548e+00 -9.1966294903190050e-04 +0.0000000000000000e+00 +9.9999957710994014e-01
8.9999999999999840e+00 +9.0971149460531677e+00 +0.0000000000000000e+00 +8.9999987026256427e+00 -9.2999557240802894e-04 +0.0000000000000000e+00 +9.9999956755402364e-01
9.0999999999999837e+00 +9.0970214298654231e+00 +0.0000000000000000e+00 +9.0999986588988016e+00 -9.4032817982801645e-04 +0.0000000000000000e+00 +9.9999955789135886e-01
9.1999999999999833e+00 +9.0969268804177368e+00 +0.0000000000000000e+00 +9.1999986142003571e+00 -9.5066077120514855e-04 +0.0000000000000000e+00 +9.9999954812194647e-01
9.2999999999999829e+00 +9.0968312977117201e+00 +0.0000000000000000e+00 +9.2999985685196336e+00 -9.6099334641172921e-04 +0.0000000000000000e+00 +9.9999953824578702e-01
9.3999999999999826e+00 +9.0967346817489982e+00 +0.0000000000000000e+00 +9.3999985218459567e+00 -9.7132590527909701e-04 +0.0000000000000000e+00 +9.9999952826288119e-01
9.4999999999999822e+00 +9.0966370325312162e+00 +0.0000000000000000e+00 +9.4999984741686525e+00 -9.8165844759764260e-04 +0.0000000000000000e+00 +9.9999951817322963e-01
9.5999999999999819e+00 +9.0965383500600385e+00 +0.0000000000000000e+00 +9.5999984254770450e+00 -9.9199097311682550e-04 +0.0000000000000000e+00 +9.9999950797683312e-01
9.6999999999999815e+00 +9.0964386343371615e+00 +0.0000000000000000e+00 +9.6999983757604600e+00 -1.0023234815451929e-03 +0.0000000000000000e+00 +9.9999949767369256e-01
9.7999999999999812e+00 +9.0963378853643100e+00 +0.0000000000000000e+00 +9.7999983250082252e+00 -1.0126559725503967e-03 +0.0000000000000000e+00 +9.9999948726380872e-01
9.8999999999999808e+00 +9.0962361031432444e+00 +0.0000000000000000e+00 +9.8999982732096647e+00 -1.0229884457592135e-03 +0.0000000000000000e+00 +9.9999947674718259e-01
9.9999999999999805e+00 +9.0961332876757641e+00 +0.0000000000000000e+00 +9.9999982203541045e+00 -1.0333209007575626e-03 +0.0000000000000000e+00 +9.9999946612381507e-01
1.0099999999999980e+01 +9.0960294389637149e+00 +0.0000000000000000e+00 +1.0099998166430870e+01 -1.0436533370942332e-03 +0.0000000000000000e+00 +9.9999945539370727e-01
1.0199999999999980e+01 +9.0959245570089831e+00 +0.0000000000000000e+00 +1.0199998111429288e+01 -1.0539857543216760e-03 +0.0000000000000000e+00 +9.9999944455686018e-01
1.0299999999999979e+01 +9.0958186418135014e+00 +0.0000000000000000e+00 +1.0299998055338683e+01 -1.0643181520367795e-03 +0.0000000000000000e+00 +9.9999943361327481e-01
1.0399999999999979e+01 +9.0957116933792381e+00 +0.0000000000000000e+00 +1.0399997998148384e+01 -1.0746505298845671e-03 +0.0000000000000000e+00 +9.9999942256295216e-01
1.0499999999999979e+01 +9.0956037117081969e+00 +0.0000000000000000e+00 +1.0499997939847717e+01 -1.0849828875581845e-03 +0.0000000000000000e+00 +9.9999941140589321e-01
1.0599999999999978e+01 +9.0954946968024082e+00 +0.0000000000000000e+00 +1.0599997880426006e+01 -1.0953152247988875e-03 +0.0000000000000000e+00 +9.9999940014209887e-01
1.0699999999999978e+01 +9.0953846486639254e+00 +0.0000000000000000e+00 +1.0699997819872578e+01 -1.1056475413960300e-03 +0.0000000000000000e+00 +9.9999938877156991e-01
1.0799999999999978e+01 +9.0952735672948215e+00 +0.0000000000000000e+00 +1.0799997758176762e+01 -1.1159798371870502e-03 +0.0000000000000000e+00 +9.9999937729430721e-01
1.0899999999999977e+01 +9.0951614526971838e+00 +0.0000000000000000e+00 +1.0899997695327881e+01 -1.1263121120574577e-03 +0.0000000000000000e+00 +9.9999936571031156e-01
1.0999999999999977e+01 +9.0950483048731083e+00 +0.0000000000000000e+00 +1.0999997631315265e+01 -1.1366443659408198e-03 +0.0000000000000000e+00 +9.9999935401958362e-01
1.1099999999999977e+01 +9.0949341238246948e+00 +0.0000000000000000e+00 +1.1099997566128240e+01 -1.1469765988187475e-03 +0.0000000000000000e+00 +9.9999934222212417e-01
1.1199999999999976e+01 +9.0948189095540428e+00 +0.0000000000000000e+00 +1.1199997499756131e+01 -1.1573088107208810e-03 +0.0000000000000000e+00 +9.9999933031793364e-01
1.1299999999999976e+01 +9.0947026620632467e+00 +0.0000000000000000e+00 +1.1299997432188269e+01 -1.1676410017248749e-03 +0.0000000000000000e+00 +9.9999931830701272e-01
1.1399999999999975e+01 +9.0945853813543902e+00 +0.0000000000000000e+00 +1.1399997363413977e+01 -1.1779731719563831e-03 +0.0000000000000000e+00 +9.9999930618936195e-01
1.1499999999999975e+01 +9.0944670674295427e+00 +0.0000000000000000e+00 +1.1499997293422584e+01 -1.1883053215890433e-03 +0.0000000000000000e+00 +9.9999929396498166e-01
1.1599999999999975e+01 +9.0943477202907523e+00 +0.0000000000000000e+00 +1.1599997222203417e+01 -1.1986374508444616e-03 +0.0000000000000000e+00 +9.9999928163387231e-01
1.1699999999999974e+01 +9.0942273399400442e+00 +0.0000000000000000e+00 +1.1699997149745801e+01 -1.2089695599921953e-03 +0.0000000000000000e+00 +9.9999926919603410e-01
1.1799999999999974e+01 +9.0941059263794131e+00 +0.0000000000000000e+00 +1.1799997076039066e+01 -1.2193016493497371e-03 +0.0000000000000000e+00 +9.9999925665146727e-01
