# trajectory
# s[mm] rx[mm] ry[mm] rz[mm] px[rad] py[rad] pz[rad]
0.0000000000000000e+00 +9.0449999999999999e+00 +0.0000000000000000e+00 +0.0000000000000000e+00 +0.0000000000000000e+00 +0.0000000000000000e+00 +1.0000000000000000e+00
-1.0000000000000001e-01 +9.0449994843724149e+00 +0.0000000000000000e+00 -9.9999999998227521e-02 +1.0312545566659007e-05 +0.0000000000000000e+00 +9.9999999994682576e-01
-2.0000000000000001e-01 +9.0449979374921181e+00 +0.0000000000000000e+00 -1.9999999998582021e-01 +2.0625054206666326e-05 +0.0000000000000000e+00 +9.9999999978730358e-01
-3.0000000000000004e-01 +9.0449953593628081e+00 +0.0000000000000000e+00 -2.9999999995214333e-01 +3.0937525836936296e-05 +0.0000000000000000e+00 +9.9999999952143481e-01
-4.0000000000000002e-01 +9.0449917499881831e+00 +0.0000000000000000e+00 -3.9999999988656232e-01 +4.1249960515888375e-05 +0.0000000000000000e+00 +9.9999999914922044e-01
-5.0000000000000000e-01 +9.0449871093719310e+00 +0.0000000000000000e+00 -4.9999999977844262e-01 +5.1562358443439235e-05 +0.0000000000000000e+00 +9.9999999867066169e-01
-5.9999999999999998e-01 +9.0449814375177091e+00 +0.0000000000000000e+00 -5.9999999961714989e-01 +6.1874719960993828e-05 +0.0000000000000000e+00 +9.9999999808575957e-01
-6.9999999999999996e-01 +9.0449747344291360e+00 +0.0000000000000000e+00 -6.9999999939204982e-01 +7.2187045551435459e-05 +0.0000000000000000e+00 +9.9999999739451528e-01
-7.9999999999999993e-01 +9.0449670001097751e+00 +0.0000000000000000e+00 -7.9999999909250818e-01 +8.2499335839114775e-05 +0.0000000000000000e+00 +9.9999999659692984e-01
-8.9999999999999991e-01 +9.0449582345631185e+00 +0.0000000000000000e+00 -8.9999999870789105e-01 +9.2811591589837843e-05 +0.0000000000000000e+00 +9.9999999569300424e-01
-9.9999999999999989e-01 +9.0449484377925771e+00 +0.0000000000000000e+00 -9.9999999822756436e-01 +1.0312381371085316e-04 +0.0000000000000000e+00 +9.9999999468273948e-01
-1.0999999999999999e+00 +9.0449376098014618e+00 +0.0000000000000000e+00 -1.0999999976408943e+00 +1.1343600325083759e-04 +0.0000000000000000e+00 +9.9999999356613656e-01
-1.2000000000000000e+00 +9.0449257505929737e+00 +0.0000000000000000e+00 -1.1999999969372470e+00 +1.2374816139988144e-04 +0.0000000000000000e+00 +9.9999999234319625e-01
-1.3000000000000000e+00 +9.0449128601701840e+00 +0.0000000000000000e+00 -1.2999999961059889e+00 +1.3406028948947230e-04 +0.0000000000000000e+00 +9.9999999101391934e-01
-1.4000000000000001e+00 +9.0448989385360274e+00 +0.0000000000000000e+00 -1.3999999951364863e+00 +1.4437238899247815e-04 +0.0000000000000000e+00 +9.9999998957830660e-01
-1.5000000000000002e+00 +9.0448839856932839e+00 +0.0000000000000000e+00 -1.4999999940181057e+00 +1.5468446152312916e-04 +0.0000000000000000e+00 +9.9999998803635859e-01
-1.6000000000000003e+00 +9.0448680016445628e+00 +0.0000000000000000e+00 -1.5999999927402135e+00 +1.6499650882853434e-04 +0.0000000000000000e+00 +9.9999998638807597e-01
-1.7000000000000004e+00 +9.0448509863922979e+00 +0.0000000000000000e+00 -1.6999999912921764e+00 +1.7530853269555644e-04 +0.0000000000000000e+00 +9.9999998463345907e-01
-1.8000000000000005e+00 +9.0448329399387468e+00 +0.0000000000000000e+00 -1.7999999896633609e+00 +1.8562053485769863e-04 +0.0000000000000000e+00 +9.9999998277250834e-01
-1.9000000000000006e+00 +9.0448138622859950e+00 +0.0000000000000000e+00 -1.8999999878431337e+00 +1.9593251698664252e-04 +0.0000000000000000e+00 +9.9999998080522423e-01
-2.0000000000000004e+00 +9.0447937534359646e+00 +0.0000000000000000e+00 -1.9999999858208615e+00 +2.0624448069225332e-04 +0.0000000000000000e+00 +9.9999997873160684e-01
-2.1000000000000005e+00 +9.0447726133904194e+00 +0.0000000000000000e+00 -2.0999999835859109e+00 +2.1655642752258726e-04 +0.0000000000000000e+00 +9.9999997655165651e-01
-2.2000000000000006e+00 +9.0447504421509723e+00 +0.0000000000000000e+00 -2.1999999811276485e+00 +2.2686835896390133e-04 +0.0000000000000000e+00 +9.9999997426537346e-01
-2.3000000000000007e+00 +9.0447272397190908e+00 +0.0000000000000000e+00 -2.2999999784354412e+00 +2.3718027644066528e-04 +0.0000000000000000e+00 +9.9999997187275780e-01
-2.4000000000000008e+00 +9.0447030060961033e+00 +0.0000000000000000e+00 -2.3999999754986558e+00 +2.4749218131557609e-04 +0.0000000000000000e+00 +9.9999996937380964e-01
-2.5000000000000009e+00 +9.0446777412832038e+00 +0.0000000000000000e+00 -2.4999999723066590e+00 +2.5780407488957440e-04 +0.0000000000000000e+00 +9.9999996676852898e-01
-2.6000000000000010e+00 +9.0446514452814597e+00 +0.0000000000000000e+00 -2.5999999688488176e+00 +2.6811595840186376e-04 +0.0000000000000000e+00 +9.9999996405691582e-01
-2.7000000000000011e+00 +9.0446241180918197e+00 +0.0000000000000000e+00 -2.6999999651144981e+00 +2.7842783302993175e-04 +0.0000000000000000e+00 +9.9999996123897017e-01
-2.8000000000000012e+00 +9.0445957597151132e+00 +0.0000000000000000e+00 -2.7999999610930675e+00 +2.8873969988957353e-04 +0.0000000000000000e+00 +9.9999995831469202e-01
-2.9000000000000012e+00 +9.0445663701520651e+00 +0.0000000000000000e+00 -2.8999999567738923e+00 +2.9905156003491790e-04 +0.0000000000000000e+00 +9.9999995528408125e-01
-3.0000000000000013e+00 +9.0445359494032971e+00 +0.0000000000000000e+00 -2.9999999521463394e+00 +3.0936341445845529e-04 +0.0000000000000000e+00 +9.9999995214713777e-01
-3.1000000000000014e+00 +9.0445044974693332e+00 +0.0000000000000000e+00 -3.0999999471997755e+00 +3.1967526409106846e-04 +0.0000000000000000e+00 +9.9999994890386146e-01
-3.2000000000000015e+00 +9.0444720143506085e+00 +0.0000000000000000e+00 -3.1999999419235672e+00 +3.2998710980206524e-04 +0.0000000000000000e+00 +9.9999994555425220e-01
-3.3000000000000016e+00 +9.0444385000474750e+00 +0.0000000000000000e+00 -3.2999999363070813e+00 +3.4029895239921369e-04 +0.0000000000000000e+00 +9.9999994209830978e-01
-3.4000000000000017e+00 +9.0444039545602060e+00 +0.0000000000000000e+00 -3.3999999303396846e+00 +3.5061079262877957e-04 +0.0000000000000000e+00 +9.9999993853603408e-01
-3.5000000000000018e+00 +9.0443683778890041e+00 +0.0000000000000000e+00 -3.4999999240107438e+00 +3.6092263117556598e-04 +0.0000000000000000e+00 +9.9999993486742500e-01
-3.6000000000000019e+00 +9.0443317700340060e+00 +0.0000000000000000e+00 -3.5999999173096251e+00 +3.7123446866188184e-04 +0.0000000000000000e+00 +9.9999993109248220e-01
-3.7000000000000020e+00 +9.0442941309952882e+00 +0.0000000000000000e+00 -3.6999999102256957e+00 +3.8154630563576921e-04 +0.0000000000000000e+00 +9.9999992721120556e-01
-3.8000000000000020e+00 +9.0442554607728791e+00 +0.0000000000000000e+00 -3.7999999027483220e+00 +3.9185814255920823e-04 +0.0000000000000000e+00 +9.9999992322359499e-01
-3.9000000000000021e+00 +9.0442157593667645e+00 +0.0000000000000000e+00 -3.8999998948668706e+00 +4.0216997980704612e-04 +0.0000000000000000e+00 +9.9999991912965025e-01
-4.0000000000000018e+00 +9.0441750267768963e+00 +0.0000000000000000e+00 -3.9999998865707078e+00 +4.1248181766699897e-04 +0.0000000000000000e+00 +9.9999991492937124e-01
-4.1000000000000014e+00 +9.0441332630032036e+00 +0.0000000000000000e+00 -4.0999998778491999e+00 +4.2279365633965214e-04 +0.0000000000000000e+00 +9.9999991062275795e-01
-4.2000000000000011e+00 +9.0440904680455976e+00 +0.0000000000000000e+00 -4.1999998686917142e+00 +4.3310549593846074e-04 +0.0000000000000000e+00 +9.9999990620981016e-01
-4.3000000000000007e+00 +9.0440466419039840e+00 +0.0000000000000000e+00 -4.2999998590876167e+00 +4.4341733648974859e-04 +0.0000000000000000e+00 +9.9999990169052788e-01
-4.4000000000000004e+00 +9.0440017845782705e+00 +0.0000000000000000e+00 -4.3999998490262744e+00 +4.5372917793270719e-04 +0.0000000000000000e+00 +9.9999989706491110e-01
-4.5000000000000000e+00 +9.0439558960683737e+00 +0.0000000000000000e+00 -4.4999998384970539e+00 +4.6404102011939340e-04 +0.0000000000000000e+00 +9.9999989233295983e-01
-4.5999999999999996e+00 +9.0439089763742295e+00 +0.0000000000000000e+00 -4.5999998274893219e+00 +4.7435286281472688e-04 +0.0000000000000000e+00 +9.9999988749467428e-01
-4.6999999999999993e+00 +9.0438610254958043e+00 +0.0000000000000000e+00 -4.6999998159924443e+00 +4.8466470569648643e-04 +0.0000000000000000e+00 +9.9999988255005445e-01
-4.7999999999999989e+00 +9.0438120434330980e+00 +0.0000000000000000e+00 -4.7999998039957879e+00 +4.9497654835530599e-04 +0.0000000000000000e+00 +9.9999987749910058e-01
-4.8999999999999986e+00 +9.0437620301861568e+00 +0.0000000000000000e+00 -4.8999997914887192e+00 +5.0528839029466953e-04 +0.0000000000000000e+00 +9.9999987234181298e-01
-4.9999999999999982e+00 +9.0437109857550819e+00 +0.0000000000000000e+00 -4.9999997784606052e+00 +5.1560023093090565e-04 +0.0000000000000000e+00 +9.9999986707819188e-01
-5.0999999999999979e+00 +9.0436589101400369e+00 +0.0000000000000000e+00 -5.0999997649008124e+00 +5.2591206959318106e-04 +0.0000000000000000e+00 +9.9999986170823774e-01
-5.1999999999999975e+00 +9.0436058033412543e+00 +0.0000000000000000e+00 -5.1999997507987077e+00 +5.3622390552349360e-04 +0.0000000000000000e+00 +9.9999985623195098e-01
-5.2999999999999972e+00 +9.0435516653590504e+00 +0.0000000000000000e+00 -5.2999997361436577e+00 +5.4653573787666462e-04 +0.0000000000000000e+00 +9.9999985064933217e-01
-5.3999999999999968e+00 +9.0434964961938284e+00 +0.0000000000000000e+00 -5.3999997209250292e+00 +5.5684756572033046e-04 +0.0000000000000000e+00 +9.9999984496038197e-01
-5.4999999999999964e+00 +9.0434402958460893e+00 +0.0000000000000000e+00 -5.4999997051321898e+00 +5.6715938803493320e-04 +0.0000000000000000e+00 +9.9999983916510105e-01
-5.5999999999999961e+00 +9.0433830643164423e+00 +0.0000000000000000e+00 -5.5999996887545054e+00 +5.7747120372056415e-04 +0.0000000000000000e+00 +9.9999983326349018e-01
-5.6999999999999957e+00 +9.0433248016056034e+00 +0.0000000000000000e+00 -5.6999996717813435e+00 +5.8778301167233999e-04 +0.0000000000000000e+00 +9.9999982725555037e-01
-5.7999999999999954e+00 +9.0432655077144002e+00 +0.0000000000000000e+00 -5.7999996542020709e+00 +5.9809481085578147e-04 +0.0000000000000000e+00 +9.9999982114128227e-01
-5.8999999999999950e+00 +9.0432051826437565e+00 +0.0000000000000000e+00 -5.8999996360060551e+00 +6.0840660031366025e-04 +0.0000000000000000e+00 +9.9999981492068690e-01
-5.9999999999999947e+00 +9.0431438263946902e+00 +0.0000000000000000e+00 -5.9999996171826639e+00 +6.1871837916599134e-04 +0.0000000000000000e+00 +9.9999980859376503e-01
-6.0999999999999943e+00 +9.0430814389683025e+00 +0.0000000000000000e+00 -6.0999995977212640e+00 +6.2903014661002548e-04 +0.0000000000000000e+00 +9.9999980216051743e-01
-6.1999999999999940e+00 +9.0430180203657713e+00 +0.0000000000000000e+00 -6.1999995776112229e+00 +6.3934190192024094e-04 +0.0000000000000000e+00 +9.9999979562094499e-01
-6.2999999999999936e+00 +9.0429535705883435e+00 +0.0000000000000000e+00 -6.2999995568419083e+00 +6.4965364444833479e-04 +0.0000000000000000e+00 +9.9999978897504849e-01
-6.3999999999999932e+00 +9.0428880896373265e+00 +0.0000000000000000e+00 -6.3999995354026877e+00 +6.5996537362321363e-04 +0.0000000000000000e+00 +9.9999978222282870e-01
-6.4999999999999929e+00 +9.0428215775140810e+00 +0.0000000000000000e+00 -6.4999995132829298e+00 +6.7027708895098389e-04 +0.0000000000000000e+00 +9.9999977536428641e-01
-6.5999999999999925e+00 +9.0427540342200121e+00 +0.0000000000000000e+00 -6.5999994904720012e+00 +6.8058879001494169e-04 +0.0000000000000000e+00 +9.9999976839942228e-01
-6.6999999999999922e+00 +9.0426854597565640e+00 +0.0000000000000000e+00 -6.6999994669592704e+00 +6.9090047647556217e-04 +0.0000000000000000e+00 +9.9999976132823698e-01
-6.7999999999999918e+00 +9.0426158541252111e+00 +0.0000000000000000e+00 -6.7999994427341051e+00 +7.0121214807048826e-04 +0.0000000000000000e+00 +9.9999975415073117e-01
-6.8999999999999915e+00 +9.0425452173274508e+00 +0.0000000000000000e+00 -6.8999994177858728e+00 +7.1152380461451915e-04 +0.0000000000000000e+00 +9.9999974686690540e-01
-6.9999999999999911e+00 +9.0424735493647930e+00 +0.0000000000000000e+00 -6.9999993921039421e+00 +7.2183544599959792e-04 +0.0000000000000000e+00 +9.9999973947676024e-01
-7.0999999999999908e+00 +9.0424008502387565e+00 +0.0000000000000000e+00 -7.0999993656776805e+00 +7.3214707219479913e-04 +0.0000000000000000e+00 +9.9999973198029612e-01
-7.1999999999999904e+00 +9.0423271199508584e+00 +0.0000000000000000e+00 -7.1999993384964567e+00 +7.4245868324631552e-04 +0.0000000000000000e+00 +9.9999972437751361e-01
-7.2999999999999901e+00 +9.0422523585026084e+00 +0.0000000000000000e+00 -7.2999993105496390e+00 +7.5277027927744442e-04 +0.0000000000000000e+00 +9.9999971666841292e-01
-7.3999999999999897e+00 +9.0421765658954971e+00 +0.0000000000000000e+00 -7.3999992818265952e+00 +7.6308186048857371e-04 +0.0000000000000000e+00 +9.9999970885299450e-01
-7.4999999999999893e+00 +9.0420997421309952e+00 +0.0000000000000000e+00 -7.4999992523166936e+00 +7.7339342715716710e-04 +0.0000000000000000e+00 +9.9999970093125845e-01
-7.5999999999999890e+00 +9.0420218872105398e+00 +0.0000000000000000e+00 -7.5999992220093029e+00 +7.8370497963264841e-04 +0.0000000000000000e+00 +9.9999969290320501e-01
-7.6999999999999886e+00 +9.0419430011355306e+00 +0.0000000000000000e+00 -7.6999991908937906e+00 +7.9401651828027930e-04 +0.0000000000000000e+00 +9.9999968476883438e-01
-7.7999999999999883e+00 +9.0418630839073337e+00 +0.0000000000000000e+00 -7.7999991589595252e+00 +8.0432804342504632e-04 +0.0000000000000000e+00 +9.9999967652814670e-01
-7.8999999999999879e+00 +9.0417821355272867e+00 +0.0000000000000000e+00 -7.8999991261958753e+00 +8.1463955534656380e-04 +0.0000000000000000e+00 +9.9999966818114217e-01
-7.9999999999999876e+00 +9.0417001559966987e+00 +0.0000000000000000e+00 -7.9999990925922093e+00 +8.2495105427907763e-04 +0.0000000000000000e+00 +9.9999965972782090e-01
-8.0999999999999872e+00 +9.0416171453168577e+00 +0.0000000000000000e+00 -8.0999990581378949e+00 +8.3526254041146940e-04 +0.0000000000000000e+00 +9.9999965116818323e-01
-8.1999999999999869e+00 +9.0415331034890372e+00 +0.0000000000000000e+00 -8.1999990228223023e+00 +8.4557401388726079e-04 +0.0000000000000000e+00 +9.9999964250222939e-01
-8.2999999999999865e+00 +9.0414480305144984e+00 +0.0000000000000000e+00 -8.2999989866347974e+00 +8.5588547480461828e-04 +0.0000000000000000e+00 +9.9999963372995970e-01
-8.3999999999999861e+00 +9.0413619263944938e+00 +0.0000000000000000e+00 -8.3999989495647505e+00 +8.6619692321635749e-04 +0.0000000000000000e+00 +9.9999962485137450e-01
-8.4999999999999858e+00 +9.0412747911302720e+00 +0.0000000000000000e+00 -8.4999989116015282e+00 +8.7650835912994824e-04 +0.0000000000000000e+00 +9.9999961586647412e-01
-8.5999999999999854e+00 +9.0411866247230854e+00 +0.0000000000000000e+00 -8.5999988727345009e+00 +8.8681978250751956e-04 +0.0000000000000000e+00 +9.9999960677525912e-01
-8.6999999999999851e+00 +9.0410974271741917e+00 +0.0000000000000000e+00 -8.6999988329530371e+00 +8.9713119326586481e-04 +0.0000000000000000e+00 +9.9999959757772983e-01
-8.7999999999999847e+00 +9.0410071984848575e+00 +0.0000000000000000e+00 -8.7999987922465035e+00 +9.0744259127644702e-04 +0.0000000000000000e+00 +9.9999958827388680e-01
-8.8999999999999844e+00 +9.0409159386563669e+00 +0.0000000000000000e+00 -8.8999987506042704e+00 +9.1775397636540453e-04 +0.0000000000000000e+00 +9.9999957886373059e-01
-8.9999999999999840e+00 +9.0408236476900221e+00 +0.0000000000000000e+00 -8.9999987080157062e+00 +9.2806534831355654e-04 +0.0000000000000000e+00 +9.9999956934726175e-01
-9.0999999999999837e+00 +9.0407303255871501e+00 +0.0000000000000000e+00 -9.0999986644701796e+00 +9.3837670685640922e-04 +0.0000000000000000e+00 +9.9999955972448096e-01
-9.1999999999999833e+00 +9.0406359723491079e+00 +0.0000000000000000e+00 -9.1999986199570589e+00 +9.4868805168416156e-04 +0.0000000000000000e+00 +9.9999954999538887e-01
-9.2999999999999829e+00 +9.0405405879772829e+00 +0.0000000000000000e+00 -9.2999985744657128e+00 +9.5899938244171153e-04 +0.0000000000000000e+00 +9.9999954015998638e-01
-9.3999999999999826e+00 +9.0404441724731015e+00 +0.0000000000000000e+00 -9.3999985279855114e+00 +9.6931069872866274e-04 +0.0000000000000000e+00 +9.9999953021827415e-01
-9.4999999999999822e+00 +9.0403467258380346e+00 +0.0000000000000000e+00 -9.4999984805058233e+00 +9.7962200009933079e-04 +0.0000000000000000e+00 +9.9999952017025318e-01
-9.5999999999999819e+00 +9.0402482480735955e+00 +0.0000000000000000e+00 -9.5999984320160188e+00 +9.8993328606629166e-04 +0.0000000000000000e+00 +9.9999951001592435e-01
-9.6999999999999815e+00 +9.0401487391813511e+00 +0.0000000000000000e+00 -9.6999983825054645e+00 +1.0002445561393485e-03 +0.0000000000000000e+00 +9.9999949975528868e-01
-9.7999999999999812e+00 +9.0400481991629125e+00 +0.0000000000000000e+00 -9.7999983319635326e+00 +1.0105558098645025e-03 +0.0000000000000000e+00 +9.9999948938834704e-01
-9.8999999999999808e+00 +9.0399466280199370e+00 +0.0000000000000000e+00 -9.8999982803795916e+00 +1.0208670468275084e-03 +0.0000000000000000e+00 +9.9999947891510044e-01
-9.9999999999999805e+00 +9.0398440257541193e+00 +0.0000000000000000e+00 -9.9999982277430099e+00 +1.0311782666538871e-03 +0.0000000000000000e+00 +9.9999946833554976e-01
-1.0099999999999980e+01 +9.0397403923671895e+00 +0.0000000000000000e+00 -1.0099998174043158e+01 +1.0414894690089398e-03 +0.0000000000000000e+00 +9.9999945764969578e-01
-1.0199999999999980e+01 +9.0396357278609099e+00 +0.0000000000000000e+00 -1.0199998119269406e+01 +1.0518006535977619e-03 +0.0000000000000000e+00 +9.9999944685753939e-01
-1.0299999999999979e+01 +9.0395300322370709e+00 +0.0000000000000000e+00 -1.0299998063411122e+01 +1.0621118201652575e-03 +0.0000000000000000e+00 +9.9999943595908147e-01
-1.0399999999999979e+01 +9.0394233054974844e+00 +0.0000000000000000e+00 -1.0399998006457679e+01 +1.0724229684961530e-03 +0.0000000000000000e+00 +9.9999942495432281e-01
-1.0499999999999979e+01 +9.0393155476439855e+00 +0.0000000000000000e+00 -1.0499997948398445e+01 +1.0827340984150132e-03 +0.0000000000000000e+00 +9.9999941384326407e-01
-1.0599999999999978e+01 +9.0392067586784197e+00 +0.0000000000000000e+00 -1.0599997889222790e+01 +1.0930452097862556e-03 +0.0000000000000000e+00 +9.9999940262590603e-01
-1.0699999999999978e+01 +9.0390969386026487e+00 +0.0000000000000000e+00 -1.0699997828920083e+01 +1.1033563025141661e-03 +0.0000000000000000e+00 +9.9999939130224935e-01
-1.0799999999999978e+01 +9.0389860874185395e+00 +0.0000000000000000e+00 -1.0799997767479695e+01 +1.1136673765429147e-03 +0.0000000000000000e+00 +9.9999937987229470e-01
-1.0899999999999977e+01 +9.0388742051279642e+00 +0.0000000000000000e+00 -1.0899997704890998e+01 +1.1239784318565716e-03 +0.0000000000000000e+00 +9.9999936833604264e-01
-1.0999999999999977e+01 +9.0387612917327917e+00 +0.0000000000000000e+00 -1.0999997641143361e+01 +1.1342894684791239e-03 +0.0000000000000000e+00 +9.9999935669349371e-01
-1.1099999999999977e+01 +9.0386473472348889e+00 +0.0000000000000000e+00 -1.1099997576226153e+01 +1.1446004864744913e-03 +0.0000000000000000e+00 +9.9999934494464837e-01
-1.1199999999999976e+01 +9.0385323716361139e+00 +0.0000000000000000e+00 -1.1199997510128746e+01 +1.1549114859465439e-03 +0.0000000000000000e+00 +9.9999933308950717e-01
-1.1299999999999976e+01 +9.0384163649383122e+00 +0.0000000000000000e+00 -1.1299997442840510e+01 +1.1652224670391192e-03 +0.0000000000000000e+00 +9.9999932112807044e-01
-1.1399999999999975e+01 +9.0382993271433119e+00 +0.0000000000000000e+00 -1.1399997374350816e+01 +1.1755334299360396e-03 +0.0000000000000000e+00 +9.9999930906033863e-01
-1.1499999999999975e+01 +9.0381812582529228e+00 +0.0000000000000000e+00 -1.1499997304649034e+01 +1.1858443748611297e-03 +0.0000000000000000e+00 +9.9999929688631184e-01
-1.1599999999999975e+01 +9.0380621582689304e+00 +0.0000000000000000e+00 -1.1599997233724535e+01 +1.1961553020757658e-03 +0.0000000000000000e+00 +9.9999928460599052e-01
-1.1699999999999974e+01 +9.0379420271930897e+00 +0.0000000000000000e+00 -1.1699997161566689e+01 +1.2064662118517248e-03 +0.0000000000000000e+00 +9.9999927221937479e-01
