# trajectory
# s[mm] rx[mm] ry[mm] rz[mm] px[rad] py[rad] pz[rad]
0.0000000000000000e+00 +9.1013000000000002e+00 +0.0000000000000000e+00 +0.0000000000000000e+00 +0.0000000000000000e+00 +0.0000000000000000e+00 +1.0000000000000000e+00
-1.0000000000000001e-01 +9.1012994842803749e+00 +0.0000000000000000e+00 -9.9999999998226896e-02 +1.0314385666879618e-05 +0.0000000000000000e+00 +9.9999999994680677e-01
-2.0000000000000001e-01 +9.1012979371242277e+00 +0.0000000000000000e+00 -1.9999999998581516e-01 +2.0628730488120957e-05 +0.0000000000000000e+00 +9.9999999978722776e-01
-3.0000000000000004e-01 +9.1012953585356300e+00 +0.0000000000000000e+00 -2.9999999995212628e-01 +3.0943034713449717e-05 +0.0000000000000000e+00 +9.9999999952126428e-01
-4.0000000000000002e-01 +9.1012917485186300e+00 +0.0000000000000000e+00 -3.9999999988652191e-01 +4.1257298568841540e-05 +0.0000000000000000e+00 +9.9999999914891768e-01
-5.0000000000000000e-01 +9.1012871070772547e+00 +0.0000000000000000e+00 -4.9999999977836374e-01 +5.1571522256524612e-05 +0.0000000000000000e+00 +9.9999999867018907e-01
-5.9999999999999998e-01 +9.1012814342155117e+00 +0.0000000000000000e+00 -5.9999999961701367e-01 +6.1885705954982292e-05 +0.0000000000000000e+00 +9.9999999808507978e-01
-6.9999999999999996e-01 +9.1012747299373924e+00 +0.0000000000000000e+00 -6.9999999939183366e-01 +7.2199849818955703e-05 +0.0000000000000000e+00 +9.9999999739359091e-01
-7.9999999999999993e-01 +9.1012669942468722e+00 +0.0000000000000000e+00 -7.9999999909218589e-01 +8.2513953979446329e-05 +0.0000000000000000e+00 +9.9999999659572381e-01
-8.9999999999999991e-01 +9.1012582271479161e+00 +0.0000000000000000e+00 -8.9999999870743252e-01 +9.2828018543718603e-05 +0.0000000000000000e+00 +9.9999999569147957e-01
-9.9999999999999989e-01 +9.1012484286444799e+00 +0.0000000000000000e+00 -9.9999999822693597e-01 +1.0314204359530245e-04 +0.0000000000000000e+00 +9.9999999468085954e-01
-1.0999999999999999e+00 +9.1012375987405125e+00 +0.0000000000000000e+00 -1.0999999976400587e+00 +1.1345602919399586e-04 +0.0000000000000000e+00 +9.9999999356386482e-01
-1.2000000000000000e+00 +9.1012257374399557e+00 +0.0000000000000000e+00 -1.1999999969361632e+00 +1.2376997537586739e-04 +0.0000000000000000e+00 +9.9999999234049664e-01
-1.3000000000000000e+00 +9.1012128447467511e+00 +0.0000000000000000e+00 -1.2999999961046123e+00 +1.3408388215325874e-04 +0.0000000000000000e+00 +9.9999999101075632e-01
-1.4000000000000001e+00 +9.1011989206648387e+00 +0.0000000000000000e+00 -1.3999999951347688e+00 +1.4439774951478722e-04 +0.0000000000000000e+00 +9.9999998957464498e-01
-1.5000000000000002e+00 +9.1011839651981621e+00 +0.0000000000000000e+00 -1.4999999940159956e+00 +1.5471157742534826e-04 +0.0000000000000000e+00 +9.9999998803216394e-01
-1.6000000000000003e+00 +9.1011679783506700e+00 +0.0000000000000000e+00 -1.5999999927376558e+00 +1.6502536582558552e-04 +0.0000000000000000e+00 +9.9999998638331433e-01
-1.7000000000000004e+00 +9.1011509601263167e+00 +0.0000000000000000e+00 -1.6999999912891128e+00 +1.7533911462603633e-04 +0.0000000000000000e+00 +9.9999998462809747e-01
-1.8000000000000005e+00 +9.1011329105290688e+00 +0.0000000000000000e+00 -1.7999999896597298e+00 +1.8565282370127555e-04 +0.0000000000000000e+00 +9.9999998276651447e-01
-1.9000000000000006e+00 +9.1011138295629053e+00 +0.0000000000000000e+00 -1.8999999878388703e+00 +1.9596649288938244e-04 +0.0000000000000000e+00 +9.9999998079856678e-01
-2.0000000000000004e+00 +9.1010937172318265e+00 +0.0000000000000000e+00 -1.9999999858158977e+00 +2.0628012199193921e-04 +0.0000000000000000e+00 +9.9999997872425550e-01
-2.1000000000000005e+00 +9.1010725735398506e+00 +0.0000000000000000e+00 -2.0999999835801759e+00 +2.1659371077402943e-04 +0.0000000000000000e+00 +9.9999997654358208e-01
-2.2000000000000006e+00 +9.1010503984910240e+00 +0.0000000000000000e+00 -2.1999999811210689e+00 +2.2690725896423579e-04 +0.0000000000000000e+00 +9.9999997425654774e-01
-2.3000000000000007e+00 +9.1010271920894201e+00 +0.0000000000000000e+00 -2.2999999784279401e+00 +2.3722076625463744e-04 +0.0000000000000000e+00 +9.9999997186315381e-01
-2.4000000000000008e+00 +9.1010029543391475e+00 +0.0000000000000000e+00 -2.3999999754901542e+00 +2.4753423230080700e-04 +0.0000000000000000e+00 +9.9999996936340163e-01
-2.5000000000000009e+00 +9.1009776852443487e+00 +0.0000000000000000e+00 -2.4999999722970752e+00 +2.5784765672180689e-04 +0.0000000000000000e+00 +9.9999996675729264e-01
-2.6000000000000010e+00 +9.1009513848092052e+00 +0.0000000000000000e+00 -2.5999999688380675e+00 +2.6816103910018549e-04 +0.0000000000000000e+00 +9.9999996404482816e-01
-2.7000000000000011e+00 +9.1009240530379447e+00 +0.0000000000000000e+00 -2.6999999651024957e+00 +2.7847437898197256e-04 +0.0000000000000000e+00 +9.9999996122600965e-01
-2.8000000000000012e+00 +9.1008956899348412e+00 +0.0000000000000000e+00 -2.7999999610797244e+00 +2.8878767587667444e-04 +0.0000000000000000e+00 +9.9999995830083854e-01
-2.9000000000000012e+00 +9.1008662955042201e+00 +0.0000000000000000e+00 -2.8999999567591184e+00 +2.9910092925726863e-04 +0.0000000000000000e+00 +9.9999995526931629e-01
-3.0000000000000013e+00 +9.1008358697504601e+00 +0.0000000000000000e+00 -2.9999999521300427e+00 +3.0941413856019819e-04 +0.0000000000000000e+00 +9.9999995213144455e-01
-3.1000000000000014e+00 +9.1008044126779986e+00 +0.0000000000000000e+00 -3.0999999471818622e+00 +3.1972730318536528e-04 +0.0000000000000000e+00 +9.9999994888722477e-01
-3.2000000000000015e+00 +9.1007719242913350e+00 +0.0000000000000000e+00 -3.1999999419039424e+00 +3.3004042249612465e-04 +0.0000000000000000e+00 +9.9999994553665850e-01
-3.3000000000000016e+00 +9.1007384045950328e+00 +0.0000000000000000e+00 -3.2999999362856491e+00 +3.4035349581927631e-04 +0.0000000000000000e+00 +9.9999994207974752e-01
-3.4000000000000017e+00 +9.1007038535937266e+00 +0.0000000000000000e+00 -3.3999999303163473e+00 +3.5066652244505816e-04 +0.0000000000000000e+00 +9.9999993851649338e-01
-3.5000000000000018e+00 +9.1006682712921236e+00 +0.0000000000000000e+00 -3.4999999239854032e+00 +3.6097950162713776e-04 +0.0000000000000000e+00 +9.9999993484689786e-01
-3.6000000000000019e+00 +9.1006316576950077e+00 +0.0000000000000000e+00 -3.5999999172821822e+00 +3.7129243258628700e-04 +0.0000000000000000e+00 +9.9999993107096263e-01
-3.7000000000000020e+00 +9.1005940128072389e+00 +0.0000000000000000e+00 -3.6999999101960510e+00 +3.8160531455088808e-04 +0.0000000000000000e+00 +9.9999992718868957e-01
-3.8000000000000020e+00 +9.1005553366337537e+00 +0.0000000000000000e+00 -3.7999999027163756e+00 +3.9191814679744719e-04 +0.0000000000000000e+00 +9.9999992320008046e-01
-3.9000000000000021e+00 +9.1005156291795579e+00 +0.0000000000000000e+00 -3.8999998948325225e+00 +4.0223092865428265e-04 +0.0000000000000000e+00 +9.9999991910513708e-01
-4.0000000000000018e+00 +9.1004748904497230e+00 +0.0000000000000000e+00 -3.9999998865338586e+00 +4.1254365950153045e-04 +0.0000000000000000e+00 +9.9999991490386120e-01
-4.1000000000000014e+00 +9.1004331204493774e+00 +0.0000000000000000e+00 -4.0999998778097506e+00 +4.2285633877115061e-04 +0.0000000000000000e+00 +9.9999991059625470e-01
-4.2000000000000011e+00 +9.1003903191837061e+00 +0.0000000000000000e+00 -4.1999998686495656e+00 +4.3316896594693382e-04 +0.0000000000000000e+00 +9.9999990618231938e-01
-4.3000000000000007e+00 +9.1003464866579407e+00 +0.0000000000000000e+00 -4.2999998590426705e+00 +4.4348154056450886e-04 +0.0000000000000000e+00 +9.9999990166205710e-01
-4.4000000000000004e+00 +9.1003016228773586e+00 +0.0000000000000000e+00 -4.3999998489784327e+00 +4.5379406221135026e-04 +0.0000000000000000e+00 +9.9999989703546954e-01
-4.5000000000000000e+00 +9.1002557278472764e+00 +0.0000000000000000e+00 -4.4999998384462199e+00 +4.6410653052678672e-04 +0.0000000000000000e+00 +9.9999989230255870e-01
-4.5999999999999996e+00 +9.1002088015730411e+00 +0.0000000000000000e+00 -4.5999998274353997e+00 +4.7441894520200992e-04 +0.0000000000000000e+00 +9.9999988746332624e-01
-4.6999999999999993e+00 +9.1001608440600315e+00 +0.0000000000000000e+00 -4.6999998159353407e+00 +4.8473130598008384e-04 +0.0000000000000000e+00 +9.9999988251777394e-01
-4.7999999999999989e+00 +9.1001118553136475e+00 +0.0000000000000000e+00 -4.7999998039354104e+00 +4.9504361265595475e-04 +0.0000000000000000e+00 +9.9999987746590357e-01
-4.8999999999999986e+00 +9.1000618353393090e+00 +0.0000000000000000e+00 -4.8999997914249773e+00 +5.0535586507646129e-04 +0.0000000000000000e+00 +9.9999987230771692e-01
-4.9999999999999982e+00 +9.1000107841424445e+00 +0.0000000000000000e+00 -4.9999997783934100e+00 +5.1566806314034587e-04 +0.0000000000000000e+00 +9.9999986704321575e-01
-5.0999999999999979e+00 +9.0999587017284949e+00 +0.0000000000000000e+00 -5.0999997648300770e+00 +5.2598020679826580e-04 +0.0000000000000000e+00 +9.9999986167240174e-01
-5.1999999999999975e+00 +9.0999055881028994e+00 +0.0000000000000000e+00 -5.1999997507243467e+00 +5.3629229605280527e-04 +0.0000000000000000e+00 +9.9999985619527654e-01
-5.2999999999999972e+00 +9.0998514432710955e+00 +0.0000000000000000e+00 -5.2999997360655886e+00 +5.4660433095848784e-04 +0.0000000000000000e+00 +9.9999985061184182e-01
-5.3999999999999968e+00 +9.0997962672385153e+00 +0.0000000000000000e+00 -5.3999997208431711e+00 +5.5691631162178954e-04 +0.0000000000000000e+00 +9.9999984492209915e-01
-5.4999999999999964e+00 +9.0997400600105749e+00 +0.0000000000000000e+00 -5.4999997050464646e+00 +5.6722823820115230e-04 +0.0000000000000000e+00 +9.9999983912605017e-01
-5.5999999999999961e+00 +9.0996828215926708e+00 +0.0000000000000000e+00 -5.5999996886648375e+00 +5.7754011091012817e-04 +0.0000000000000000e+00 +9.9999983322369645e-01
-5.6999999999999957e+00 +9.0996245519901784e+00 +0.0000000000000000e+00 -5.6999996716876602e+00 +5.8785193005182594e-04 +0.0000000000000000e+00 +9.9999982721503944e-01
-5.7999999999999954e+00 +9.0995652512084320e+00 +0.0000000000000000e+00 -5.7999996541043020e+00 +5.9816369605335815e-04 +0.0000000000000000e+00 +9.9999982110008057e-01
-5.8999999999999950e+00 +9.0995049192527198e+00 +0.0000000000000000e+00 -5.8999996359041331e+00 +6.0847540946898653e-04 +0.0000000000000000e+00 +9.9999981487882106e-01
-5.9999999999999947e+00 +9.0994435561282678e+00 +0.0000000000000000e+00 -5.9999996170765231e+00 +6.1878707098013722e-04 +0.0000000000000000e+00 +9.9999980855126225e-01
-6.0999999999999943e+00 +9.0993811618402276e+00 +0.0000000000000000e+00 -6.0999995976108421e+00 +6.2909868139541733e-04 +0.0000000000000000e+00 +9.9999980211740513e-01
-6.1999999999999940e+00 +9.0993177363936617e+00 +0.0000000000000000e+00 -6.1999995774964605e+00 +6.3941024165063080e-04 +0.0000000000000000e+00 +9.9999979557725072e-01
-6.2999999999999936e+00 +9.0992532797935350e+00 +0.0000000000000000e+00 -6.2999995567227485e+00 +6.4972175280879601e-04 +0.0000000000000000e+00 +9.9999978893079988e-01
-6.3999999999999932e+00 +9.0991877920446971e+00 +0.0000000000000000e+00 -6.3999995352790773e+00 +6.6003321606016290e-04 +0.0000000000000000e+00 +9.9999978217805330e-01
-6.4999999999999929e+00 +9.0991212731518747e+00 +0.0000000000000000e+00 -6.4999995131548163e+00 +6.7034463272223129e-04 +0.0000000000000000e+00 +9.9999977531901163e-01
-6.5999999999999925e+00 +9.0990537231196562e+00 +0.0000000000000000e+00 -6.5999994903393366e+00 +6.8065600423976910e-04 +0.0000000000000000e+00 +9.9999976835367532e-01
-6.6999999999999922e+00 +9.0989851419524790e+00 +0.0000000000000000e+00 -6.6999994668220086e+00 +6.9096733218483141e-04 +0.0000000000000000e+00 +9.9999976128204460e-01
-6.7999999999999918e+00 +9.0989155296546151e+00 +0.0000000000000000e+00 -6.7999994425922026e+00 +7.0127861825678003e-04 +0.0000000000000000e+00 +9.9999975410411968e-01
-6.8999999999999915e+00 +9.0988448862301627e+00 +0.0000000000000000e+00 -6.8999994176392896e+00 +7.1158986428230360e-04 +0.0000000000000000e+00 +9.9999974681990056e-01
-6.9999999999999911e+00 +9.0987732116830298e+00 +0.0000000000000000e+00 -6.9999993919526400e+00 +7.2190107221543778e-04 +0.0000000000000000e+00 +9.9999973942938714e-01
-7.0999999999999908e+00 +9.0987005060169217e+00 +0.0000000000000000e+00 -7.0999993655216240e+00 +7.3221224413758644e-04 +0.0000000000000000e+00 +9.9999973193257896e-01
-7.1999999999999904e+00 +9.0986267692353291e+00 +0.0000000000000000e+00 -7.1999993383356129e+00 +7.4252338225754293e-04 +0.0000000000000000e+00 +9.9999972432947548e-01
-7.2999999999999901e+00 +9.0985520013415186e+00 +0.0000000000000000e+00 -7.2999993103839760e+00 +7.5283448891151226e-04 +0.0000000000000000e+00 +9.9999971662007603e-01
-7.3999999999999897e+00 +9.0984762023385137e+00 +0.0000000000000000e+00 -7.3999992816560844e+00 +7.6314556656313334e-04 +0.0000000000000000e+00 +9.9999970880437972e-01
-7.4999999999999893e+00 +9.0983993722290872e+00 +0.0000000000000000e+00 -7.4999992521413086e+00 +7.7345661780350210e-04 +0.0000000000000000e+00 +9.9999970088238543e-01
-7.5999999999999890e+00 +9.0983215110157438e+00 +0.0000000000000000e+00 -7.5999992218290187e+00 +7.8376764534087372e-04 +0.0000000000000000e+00 +9.9999969285409185e-01
-7.6999999999999886e+00 +9.0982426187007182e+00 +0.0000000000000000e+00 -7.6999991907085841e+00 +7.9407865188714456e-04 +0.0000000000000000e+00 +9.9999968471949752e-01
-7.7999999999999883e+00 +9.0981626952859784e+00 +0.0000000000000000e+00 -7.7999991587693751e+00 +8.0438964004430344e-04 +0.0000000000000000e+00 +9.9999967647860111e-01
-7.8999999999999879e+00 +9.0980817407732388e+00 +0.0000000000000000e+00 -7.8999991260007612e+00 +8.1470061229408047e-04 +0.0000000000000000e+00 +9.9999966813140106e-01
-7.9999999999999876e+00 +9.0979997551639702e+00 +0.0000000000000000e+00 -7.9999990923921116e+00 +8.2501157099791557e-04 +0.0000000000000000e+00 +9.9999965967789595e-01
-8.0999999999999872e+00 +9.0979167384594160e+00 +0.0000000000000000e+00 -8.0999990579327967e+00 +8.3532251839692618e-04 +0.0000000000000000e+00 +9.9999965111808431e-01
-8.1999999999999869e+00 +9.0978326906605975e+00 +0.0000000000000000e+00 -8.1999990226121859e+00 +8.4563345661187313e-04 +0.0000000000000000e+00 +9.9999964245196460e-01
-8.2999999999999865e+00 +9.0977476117683320e+00 +0.0000000000000000e+00 -8.2999989864196468e+00 +8.5594438764312558e-04 +0.0000000000000000e+00 +9.9999963367953548e-01
-8.3999999999999861e+00 +9.0976615017832447e+00 +0.0000000000000000e+00 -8.3999989493445497e+00 +8.6625531337062450e-04 +0.0000000000000000e+00 +9.9999962480079563e-01
-8.4999999999999858e+00 +9.0975743607057762e+00 +0.0000000000000000e+00 -8.4999989113762631e+00 +8.7656623555384537e-04 +0.0000000000000000e+00 +9.9999961581574348e-01
-8.5999999999999854e+00 +9.0974861885361982e+00 +0.0000000000000000e+00 -8.5999988725041554e+00 +8.8687715583175885e-04 +0.0000000000000000e+00 +9.9999960672437782e-01
-8.6999999999999851e+00 +9.0973969852746226e+00 +0.0000000000000000e+00 -8.6999988327175952e+00 +8.9718807572279104e-04 +0.0000000000000000e+00 +9.9999959752669731e-01
-8.7999999999999847e+00 +9.0973067509210193e+00 +0.0000000000000000e+00 -8.7999987920059510e+00 +9.0749899662478180e-04 +0.0000000000000000e+00 +9.9999958822270074e-01
-8.8999999999999844e+00 +9.0972154854752212e+00 +0.0000000000000000e+00 -8.8999987503585913e+00 +9.1780991981494232e-04 +0.0000000000000000e+00 +9.9999957881238677e-01
-8.9999999999999840e+00 +9.0971231889369406e+00 +0.0000000000000000e+00 -8.9999987077648846e+00 +9.2812084644981101e-04 +0.0000000000000000e+00 +9.9999956929575440e-01
-9.0999999999999837e+00 +9.0970298613057814e+00 +0.0000000000000000e+00 -9.0999986642141977e+00 +9.3843177756520861e-04 +0.0000000000000000e+00 +9.9999955967280241e-01
-9.1999999999999833e+00 +9.0969355025812479e+00 +0.0000000000000000e+00 -9.1999986196959007e+00 +9.4874271407619133e-04 +0.0000000000000000e+00 +9.9999954994352991e-01
-9.2999999999999829e+00 +9.0968401127627594e+00 +0.0000000000000000e+00 -9.2999985741993605e+00 +9.5905365677700384e-04 +0.0000000000000000e+00 +9.9999954010793590e-01
-9.3999999999999826e+00 +9.0967436918496638e+00 +0.0000000000000000e+00 -9.3999985277139437e+00 +9.6936460634102970e-04 +0.0000000000000000e+00 +9.9999953016601950e-01
-9.4999999999999822e+00 +9.0966462398412453e+00 +0.0000000000000000e+00 -9.4999984802290189e+00 +9.7967556332074178e-04 +0.0000000000000000e+00 +9.9999952011778004e-01
-9.5999999999999819e+00 +9.0965477567367383e+00 +0.0000000000000000e+00 -9.5999984317339546e+00 +9.8998652815303822e-04 +0.0000000000000000e+00 +9.9999950996321685e-01
-9.6999999999999815e+00 +9.0964482425353399e+00 +0.0000000000000000e+00 -9.6999983822181175e+00 +1.0002975012184665e-03 +0.0000000000000000e+00 +9.9999949970232926e-01
-9.7999999999999812e+00 +9.0963476972362081e+00 +0.0000000000000000e+00 -9.7999983316708761e+00 +1.0106084829004755e-03 +0.0000000000000000e+00 +9.9999948933511662e-01
-9.8999999999999808e+00 +9.0962461208384600e+00 +0.0000000000000000e+00 -9.8999982800815971e+00 +1.0209194735908002e-03 +0.0000000000000000e+00 +9.9999947886157825e-01
-9.9999999999999805e+00 +9.0961435133411754e+00 +0.0000000000000000e+00 -9.9999982274396473e+00 +1.0312304736894576e-03 +0.0000000000000000e+00 +9.9999946828171349e-01
-1.0099999999999980e+01 +9.0960398747433935e+00 +0.0000000000000000e+00 -1.0099998173734395e+01 +1.0415414836047441e-03 +0.0000000000000000e+00 +9.9999945759552167e-01
-1.0199999999999980e+01 +9.0959352050441122e+00 +0.0000000000000000e+00 -1.0199998118955207e+01 +1.0518525037532314e-03 +0.0000000000000000e+00 +9.9999944680300201e-01
-1.0299999999999979e+01 +9.0958295042422872e+00 +0.0000000000000000e+00 -1.0299998063091451e+01 +1.0621635345597644e-03 +0.0000000000000000e+00 +9.9999943590415363e-01
-1.0399999999999979e+01 +9.0957227723368312e+00 +0.0000000000000000e+00 -1.0399998006132494e+01 +1.0724745764574565e-03 +0.0000000000000000e+00 +9.9999942489897586e-01
-1.0499999999999979e+01 +9.0956150093266128e+00 +0.0000000000000000e+00 -1.0499997948067701e+01 +1.0827856298876880e-03 +0.0000000000000000e+00 +9.9999941378746782e-01
-1.0599999999999978e+01 +9.0955062152104560e+00 +0.0000000000000000e+00 -1.0599997888886442e+01 +1.0930966953001020e-03 +0.0000000000000000e+00 +9.9999940256962871e-01
-1.0699999999999978e+01 +9.0953963899871386e+00 +0.0000000000000000e+00 -1.0699997828578082e+01 +1.1034077731526014e-03 +0.0000000000000000e+00 +9.9999939124545756e-01
-1.0799999999999978e+01 +9.0952855336553942e+00 +0.0000000000000000e+00 -1.0799997767131989e+01 +1.1137188639113468e-03 +0.0000000000000000e+00 +9.9999937981495357e-01
-1.0899999999999977e+01 +9.0951736462139099e+00 +0.0000000000000000e+00 -1.0899997704537530e+01 +1.1240299680507523e-03 +0.0000000000000000e+00 +9.9999936827811575e-01
-1.0999999999999977e+01 +9.0950607276613216e+00 +0.0000000000000000e+00 -1.0999997640784068e+01 +1.1343410860534836e-03 +0.0000000000000000e+00 +9.9999935663494310e-01
-1.1099999999999977e+01 +9.0949467779962205e+00 +0.0000000000000000e+00 -1.1099997575860973e+01 +1.1446522184104550e-03 +0.0000000000000000e+00 +9.9999934488543463e-01
-1.1199999999999976e+01 +9.0948317972171449e+00 +0.0000000000000000e+00 -1.1199997509757610e+01 +1.1549633656208261e-03 +0.0000000000000000e+00 +9.9999933302958943e-01
-1.1299999999999976e+01 +9.0947157853225846e+00 +0.0000000000000000e+00 -1.1299997442463345e+01 +1.1652745281919997e-03 +0.0000000000000000e+00 +9.9999932106740630e-01
-1.1399999999999975e+01 +9.0945987423109766e+00 +0.0000000000000000e+00 -1.1399997373967546e+01 +1.1755857066396186e-03 +0.0000000000000000e+00 +9.9999930899888423e-01
-1.1499999999999975e+01 +9.0944806681807098e+00 +0.0000000000000000e+00 -1.1499997304259578e+01 +1.1858969014875637e-03 +0.0000000000000000e+00 +9.9999929682402211e-01
-1.1599999999999975e+01 +9.0943615629301160e+00 +0.0000000000000000e+00 -1.1599997233328807e+01 +1.1962081132659806e-03 +0.0000000000000000e+00 +9.9999928454281872e-01
-1.1699999999999974e+01 +9.0942414265574758e+00 +0.0000000000000000e+00 -1.1699997161164598e+01 +1.2065193424896027e-03 +0.0000000000000000e+00 +9.9999927215527296e-01
