# trajectory
# s[mm] rx[mm] ry[mm] rz[mm] px[rad] py[rad] pz[rad]
0.0000000000000000e+00 +9.0958000000000006e+00 +0.0000000000000000e+00 +0.0000000000000000e+00 +0.0000000000000000e+00 +0.0000000000000000e+00 +1.0000000000000000e+00
-1.0000000000000001e-01 +9.0957994835539360e+00 +0.0000000000000000e+00 -9.9999999998221900e-02 +1.0328932308705394e-05 +0.0000000000000000e+00 +9.9999999994665656e-01
-2.0000000000000001e-01 +9.0957979342113280e+00 +0.0000000000000000e+00 -1.9999999998577506e-01 +2.0657930922911459e-05 +0.0000000000000000e+00 +9.9999999978662490e-01
-3.0000000000000004e-01 +9.0957953519655295e+00 +0.0000000000000000e+00 -2.9999999995199056e-01 +3.0986996193457388e-05 +0.0000000000000000e+00 +9.9999999951990304e-01
-4.0000000000000002e-01 +9.0957917368098613e+00 +0.0000000000000000e+00 -3.9999999988619928e-01 +4.1316128313435664e-05 +0.0000000000000000e+00 +9.9999999914648874e-01
-5.0000000000000000e-01 +9.0957870887376373e+00 +0.0000000000000000e+00 -4.9999999977773185e-01 +5.1645327318198415e-05 +0.0000000000000000e+00 +9.9999999866638001e-01
-5.9999999999999998e-01 +9.0957814077421730e+00 +0.0000000000000000e+00 -5.9999999961591877e-01 +6.1974593085360391e-05 +0.0000000000000000e+00 +9.9999999807957485e-01
-6.9999999999999996e-01 +9.0957746938168036e+00 +0.0000000000000000e+00 -6.9999999939009028e-01 +7.2303925334798560e-05 +0.0000000000000000e+00 +9.9999999738607115e-01
-7.9999999999999993e-01 +9.0957669469549032e+00 +0.0000000000000000e+00 -7.9999999908957631e-01 +8.2633323628648341e-05 +0.0000000000000000e+00 +9.9999999658586691e-01
-8.9999999999999991e-01 +9.0957581671498957e+00 +0.0000000000000000e+00 -8.9999999870370684e-01 +9.2962787371296467e-05 +0.0000000000000000e+00 +9.9999999567896003e-01
-9.9999999999999989e-01 +9.0957483543952726e+00 +0.0000000000000000e+00 -9.9999999822181151e-01 +1.0329231580937045e-04 +0.0000000000000000e+00 +9.9999999466534872e-01
-1.0999999999999999e+00 +9.0957375086846071e+00 +0.0000000000000000e+00 -1.0999999976332198e+00 +1.1362190803172471e-04 +0.0000000000000000e+00 +9.9999999354503100e-01
-1.2000000000000000e+00 +9.0957256300115752e+00 +0.0000000000000000e+00 -1.1999999969272608e+00 +1.2395156296942330e-04 +0.0000000000000000e+00 +9.9999999231800496e-01
-1.3000000000000000e+00 +9.0957127183699633e+00 +0.0000000000000000e+00 -1.2999999960932638e+00 +1.3428127939571924e-04 +0.0000000000000000e+00 +9.9999999098426895e-01
-1.4000000000000001e+00 +9.0956987737536927e+00 +0.0000000000000000e+00 -1.3999999951205575e+00 +1.4461105592603057e-04 +0.0000000000000000e+00 +9.9999998954382119e-01
-1.5000000000000002e+00 +9.0956837961568269e+00 +0.0000000000000000e+00 -1.4999999939984709e+00 +1.5494089101791294e-04 +0.0000000000000000e+00 +9.9999998799666001e-01
-1.6000000000000003e+00 +9.0956677855735943e+00 +0.0000000000000000e+00 -1.5999999927163324e+00 +1.6527078298421671e-04 +0.0000000000000000e+00 +9.9999998634278398e-01
-1.7000000000000004e+00 +9.0956507419983907e+00 +0.0000000000000000e+00 -1.6999999912634705e+00 +1.7560073013812429e-04 +0.0000000000000000e+00 +9.9999998458219164e-01
-1.8000000000000005e+00 +9.0956326654257786e+00 +0.0000000000000000e+00 -1.7999999896292134e+00 +1.8593073093820265e-04 +0.0000000000000000e+00 +9.9999998271488144e-01
-1.9000000000000006e+00 +9.0956135558504627e+00 +0.0000000000000000e+00 -1.8999999878028895e+00 +1.9626078400158668e-04 +0.0000000000000000e+00 +9.9999998074085206e-01
-2.0000000000000004e+00 +9.0955934132672773e+00 +0.0000000000000000e+00 -1.9999999857738264e+00 +2.0659088810397663e-04 +0.0000000000000000e+00 +9.9999997866010215e-01
-2.1000000000000005e+00 +9.0955722376711758e+00 +0.0000000000000000e+00 -2.0999999835313523e+00 +2.1692104217963711e-04 +0.0000000000000000e+00 +9.9999997647263039e-01
-2.2000000000000006e+00 +9.0955500290572058e+00 +0.0000000000000000e+00 -2.1999999810647948e+00 +2.2725124532139759e-04 +0.0000000000000000e+00 +9.9999997417843534e-01
-2.3000000000000007e+00 +9.0955267874204999e+00 +0.0000000000000000e+00 -2.2999999783634819e+00 +2.3758149678065448e-04 +0.0000000000000000e+00 +9.9999997177751576e-01
-2.4000000000000008e+00 +9.0955025127562585e+00 +0.0000000000000000e+00 -2.3999999754167405e+00 +2.4791179596737471e-04 +0.0000000000000000e+00 +9.9999996926987023e-01
-2.5000000000000009e+00 +9.0954772050597299e+00 +0.0000000000000000e+00 -2.4999999722138981e+00 +2.5824214245010081e-04 +0.0000000000000000e+00 +9.9999996665549740e-01
-2.6000000000000010e+00 +9.0954508643262013e+00 +0.0000000000000000e+00 -2.5999999687442821e+00 +2.6857253595595758e-04 +0.0000000000000000e+00 +9.9999996393439583e-01
-2.7000000000000011e+00 +9.0954234905509761e+00 +0.0000000000000000e+00 -2.6999999649972195e+00 +2.7890297637066030e-04 +0.0000000000000000e+00 +9.9999996110656419e-01
-2.8000000000000012e+00 +9.0953950837293629e+00 +0.0000000000000000e+00 -2.7999999609620372e+00 +2.8923346373852437e-04 +0.0000000000000000e+00 +9.9999995817200094e-01
-2.9000000000000012e+00 +9.0953656438566579e+00 +0.0000000000000000e+00 -2.8999999566280619e+00 +2.9956399826247673e-04 +0.0000000000000000e+00 +9.9999995513070450e-01
-3.0000000000000013e+00 +9.0953351709281272e+00 +0.0000000000000000e+00 -2.9999999519846203e+00 +3.0989458030406843e-04 +0.0000000000000000e+00 +9.9999995198267344e-01
-3.1000000000000014e+00 +9.0953036649389958e+00 +0.0000000000000000e+00 -3.0999999470210389e+00 +3.2022521038348905e-04 +0.0000000000000000e+00 +9.9999994872790610e-01
-3.2000000000000015e+00 +9.0952711258844268e+00 +0.0000000000000000e+00 -3.1999999417266438e+00 +3.3055588917958251e-04 +0.0000000000000000e+00 +9.9999994536640069e-01
-3.3000000000000016e+00 +9.0952375537595085e+00 +0.0000000000000000e+00 -3.2999999360907610e+00 +3.4088661752986453e-04 +0.0000000000000000e+00 +9.9999994189815544e-01
-3.4000000000000017e+00 +9.0952029485592369e+00 +0.0000000000000000e+00 -3.3999999301027168e+00 +3.5121739643054141e-04 +0.0000000000000000e+00 +9.9999993832316847e-01
-3.5000000000000018e+00 +9.0951673102784998e+00 +0.0000000000000000e+00 -3.4999999237518367e+00 +3.6154822703653064e-04 +0.0000000000000000e+00 +9.9999993464143777e-01
-3.6000000000000019e+00 +9.0951306389120621e+00 +0.0000000000000000e+00 -3.5999999170274464e+00 +3.7187911065087131e-04 +0.0000000000000000e+00 +9.9999993085296124e-01
-3.7000000000000020e+00 +9.0950929344545575e+00 +0.0000000000000000e+00 -3.6999999099188710e+00 +3.8221004860802040e-04 +0.0000000000000000e+00 +9.9999992695773676e-01
-3.8000000000000020e+00 +9.0950541969004881e+00 +0.0000000000000000e+00 -3.7999999024154354e+00 +3.9254104215713802e-04 +0.0000000000000000e+00 +9.9999992295576223e-01
-3.9000000000000021e+00 +9.0950144262442354e+00 +0.0000000000000000e+00 -3.8999998945064647e+00 +4.0287209245148009e-04 +0.0000000000000000e+00 +9.9999991884703532e-01
-4.0000000000000018e+00 +9.0949736224800706e+00 +0.0000000000000000e+00 -3.9999998861812838e+00 +4.1320320054840233e-04 +0.0000000000000000e+00 +9.9999991463155391e-01
-4.1000000000000014e+00 +9.0949317856021654e+00 +0.0000000000000000e+00 -4.0999998774292168e+00 +4.2353436740936393e-04 +0.0000000000000000e+00 +9.9999991030931579e-01
-4.2000000000000011e+00 +9.0948889156045993e+00 +0.0000000000000000e+00 -4.1999998682395878e+00 +4.3386559389993164e-04 +0.0000000000000000e+00 +9.9999990588031873e-01
-4.3000000000000007e+00 +9.0948450124813718e+00 +0.0000000000000000e+00 -4.2999998586017218e+00 +4.4419688078978377e-04 +0.0000000000000000e+00 +9.9999990134456063e-01
-4.4000000000000004e+00 +9.0948000762264058e+00 +0.0000000000000000e+00 -4.3999998485049412e+00 +4.5452822875271414e-04 +0.0000000000000000e+00 +9.9999989670203926e-01
-4.5000000000000000e+00 +9.0947541068335660e+00 +0.0000000000000000e+00 -4.4999998379385708e+00 +4.6485963836663627e-04 +0.0000000000000000e+00 +9.9999989195275241e-01
-4.5999999999999996e+00 +9.0947071042966616e+00 +0.0000000000000000e+00 -4.5999998268919331e+00 +4.7519111011358765e-04 +0.0000000000000000e+00 +9.9999988709669796e-01
-4.6999999999999993e+00 +9.0946590686094595e+00 +0.0000000000000000e+00 -4.6999998153543512e+00 +4.8552264437973393e-04 +0.0000000000000000e+00 +9.9999988213387381e-01
-4.7999999999999989e+00 +9.0946099997656926e+00 +0.0000000000000000e+00 -4.7999998033151483e+00 +4.9585424145537316e-04 +0.0000000000000000e+00 +9.9999987706427795e-01
-4.8999999999999986e+00 +9.0945598977590691e+00 +0.0000000000000000e+00 -4.8999997907636477e+00 +5.0618590153494027e-04 +0.0000000000000000e+00 +9.9999987188790829e-01
-4.9999999999999982e+00 +9.0945087625832830e+00 +0.0000000000000000e+00 -4.9999997776891707e+00 +5.1651762471701139e-04 +0.0000000000000000e+00 +9.9999986660476270e-01
-5.0999999999999979e+00 +9.0944565942320228e+00 +0.0000000000000000e+00 -5.0999997640810406e+00 +5.2684941100430841e-04 +0.0000000000000000e+00 +9.9999986121483930e-01
-5.1999999999999975e+00 +9.0944033926989825e+00 +0.0000000000000000e+00 -5.1999997499285788e+00 +5.3718126030370369e-04 +0.0000000000000000e+00 +9.9999985571813621e-01
-5.2999999999999972e+00 +9.0943491579778684e+00 +0.0000000000000000e+00 -5.2999997352211077e+00 +5.4751317242622435e-04 +0.0000000000000000e+00 +9.9999985011465164e-01
-5.3999999999999968e+00 +9.0942938900624117e+00 +0.0000000000000000e+00 -5.3999997199479495e+00 +5.5784514708705722e-04 +0.0000000000000000e+00 +9.9999984440438372e-01
-5.4999999999999964e+00 +9.0942375889463776e+00 +0.0000000000000000e+00 -5.4999997040984248e+00 +5.6817718390555355e-04 +0.0000000000000000e+00 +9.9999983858733066e-01
-5.5999999999999961e+00 +9.0941802546235735e+00 +0.0000000000000000e+00 -5.5999996876618559e+00 +5.7850928240671428e-04 +0.0000000000000000e+00 +9.9999983266349091e-01
-5.6999999999999957e+00 +9.0941218870878586e+00 +0.0000000000000000e+00 -5.6999996706275633e+00 +5.8884144203748072e-04 +0.0000000000000000e+00 +9.9999982663286291e-01
-5.7999999999999954e+00 +9.0940624863331490e+00 +0.0000000000000000e+00 -5.7999996529848685e+00 +5.9917366218301550e-04 +0.0000000000000000e+00 +9.9999982049544500e-01
-5.8999999999999950e+00 +9.0940020523534280e+00 +0.0000000000000000e+00 -5.8999996347230921e+00 +6.0950594216817159e-04 +0.0000000000000000e+00 +9.9999981425123585e-01
-5.9999999999999947e+00 +9.0939405851427466e+00 +0.0000000000000000e+00 -5.9999996158315554e+00 +6.1983828125747971e-04 +0.0000000000000000e+00 +9.9999980790023402e-01
-6.0999999999999943e+00 +9.0938780846952341e+00 +0.0000000000000000e+00 -6.0999995962995790e+00 +6.3017067865513436e-04 +0.0000000000000000e+00 +9.9999980144243805e-01
-6.1999999999999940e+00 +9.0938145510051012e+00 +0.0000000000000000e+00 -6.1999995761164834e+00 +6.4050313350498046e-04 +0.0000000000000000e+00 +9.9999979487784685e-01
-6.2999999999999936e+00 +9.0937499840666494e+00 +0.0000000000000000e+00 -6.2999995552715884e+00 +6.5083564489049799e-04 +0.0000000000000000e+00 +9.9999978820645918e-01
-6.3999999999999932e+00 +9.0936843838742725e+00 +0.0000000000000000e+00 -6.3999995337542153e+00 +6.6116821183478675e-04 +0.0000000000000000e+00 +9.9999978142827384e-01
-6.4999999999999929e+00 +9.0936177504224656e+00 +0.0000000000000000e+00 -6.4999995115536837e+00 +6.7150083330055053e-04 +0.0000000000000000e+00 +9.9999977454328992e-01
-6.5999999999999925e+00 +9.0935500837058321e+00 +0.0000000000000000e+00 -6.5999994886593134e+00 +6.8183350819008004e-04 +0.0000000000000000e+00 +9.9999976755150644e-01
-6.6999999999999922e+00 +9.0934813837190855e+00 +0.0000000000000000e+00 -6.6999994650604249e+00 +6.9216623534523551e-04 +0.0000000000000000e+00 +9.9999976045292249e-01
-6.7999999999999918e+00 +9.0934116504570603e+00 +0.0000000000000000e+00 -6.7999994407463378e+00 +7.0249901354742900e-04 +0.0000000000000000e+00 +9.9999975324753743e-01
-6.8999999999999915e+00 +9.0933408839147170e+00 +0.0000000000000000e+00 -6.8999994157063718e+00 +7.1283184151760509e-04 +0.0000000000000000e+00 +9.9999974593535046e-01
-6.9999999999999911e+00 +9.0932690840871437e+00 +0.0000000000000000e+00 -6.9999993899298474e+00 +7.2316471791622201e-04 +0.0000000000000000e+00 +9.9999973851636104e-01
-7.0999999999999908e+00 +9.0931962509695659e+00 +0.0000000000000000e+00 -7.0999993634060843e+00 +7.3349764134323129e-04 +0.0000000000000000e+00 +9.9999973099056871e-01
-7.1999999999999904e+00 +9.0931223845573559e+00 +0.0000000000000000e+00 -7.1999993361244012e+00 +7.4383061033805712e-04 +0.0000000000000000e+00 +9.9999972335797316e-01
-7.2999999999999901e+00 +9.0930474848460303e+00 +0.0000000000000000e+00 -7.2999993080741188e+00 +7.5416362337957514e-04 +0.0000000000000000e+00 +9.9999971561857404e-01
-7.3999999999999897e+00 +9.0929715518312637e+00 +0.0000000000000000e+00 -7.3999992792445557e+00 +7.6449667888609006e-04 +0.0000000000000000e+00 +9.9999970777237113e-01
-7.4999999999999893e+00 +9.0928945855088923e+00 +0.0000000000000000e+00 -7.4999992496250325e+00 +7.7482977521531337e-04 +0.0000000000000000e+00 +9.9999969981936454e-01
-7.5999999999999890e+00 +9.0928165858749175e+00 +0.0000000000000000e+00 -7.5999992192048689e+00 +7.8516291067057124e-04 +0.0000000000000000e+00 +9.9999969175955428e-01
-7.6999999999999886e+00 +9.0927375529255112e+00 +0.0000000000000000e+00 -7.6999991879733836e+00 +7.9549608356933410e-04 +0.0000000000000000e+00 +9.9999968359294034e-01
-7.7999999999999883e+00 +9.0926574866570089e+00 +0.0000000000000000e+00 -7.7999991559198971e+00 +8.0582929231177145e-04 +0.0000000000000000e+00 +9.9999967531952305e-01
-7.8999999999999879e+00 +9.0925763870659040e+00 +0.0000000000000000e+00 -7.8999991230337283e+00 +8.1616253538700420e-04 +0.0000000000000000e+00 +9.9999966693930242e-01
-7.9999999999999876e+00 +9.0924942541488338e+00 +0.0000000000000000e+00 -7.9999990893041977e+00 +8.2649581137312614e-04 +0.0000000000000000e+00 +9.9999965845227856e-01
-8.0999999999999872e+00 +9.0924110879025761e+00 +0.0000000000000000e+00 -8.0999990547206249e+00 +8.3682911893722637e-04 +0.0000000000000000e+00 +9.9999964985845158e-01
-8.1999999999999869e+00 +9.0923268883240347e+00 +0.0000000000000000e+00 -8.1999990192723278e+00 +8.4716245683541253e-04 +0.0000000000000000e+00 +9.9999964115782147e-01
-8.2999999999999865e+00 +9.0922416554102359e+00 +0.0000000000000000e+00 -8.2999989829486278e+00 +8.5749582391283520e-04 +0.0000000000000000e+00 +9.9999963235038836e-01
-8.3999999999999861e+00 +9.0921553891583144e+00 +0.0000000000000000e+00 -8.3999989457388455e+00 +8.6782921910371236e-04 +0.0000000000000000e+00 +9.9999962343615234e-01
-8.4999999999999858e+00 +9.0920680895655099e+00 +0.0000000000000000e+00 -8.4999989076322997e+00 +8.7816264143135523e-04 +0.0000000000000000e+00 +9.9999961441511331e-01
-8.5999999999999854e+00 +9.0919797566291525e+00 +0.0000000000000000e+00 -8.5999988686183091e+00 +8.8849609000819492e-04 +0.0000000000000000e+00 +9.9999960528727116e-01
-8.6999999999999851e+00 +9.0918903903466592e+00 +0.0000000000000000e+00 -8.6999988286861942e+00 +8.9882956403580946e-04 +0.0000000000000000e+00 +9.9999959605262589e-01
-8.7999999999999847e+00 +9.0917999907155203e+00 +0.0000000000000000e+00 -8.7999987878252739e+00 +9.0916306280495194e-04 +0.0000000000000000e+00 +9.9999958671117728e-01
-8.8999999999999844e+00 +9.0917085577332948e+00 +0.0000000000000000e+00 -8.8999987460248686e+00 +9.1949658569557928e-04 +0.0000000000000000e+00 +9.9999957726292521e-01
-8.9999999999999840e+00 +9.0916160913975954e+00 +0.0000000000000000e+00 -8.9999987032742990e+00 +9.2983013217688205e-04 +0.0000000000000000e+00 +9.9999956770786935e-01
-9.0999999999999837e+00 +9.0915225917060880e+00 +0.0000000000000000e+00 -9.0999986595628837e+00 +9.4016370180731489e-04 +0.0000000000000000e+00 +9.9999955804600937e-01
-9.1999999999999833e+00 +9.0914280586564740e+00 +0.0000000000000000e+00 -9.1999986148799415e+00 +9.5049729423462767e-04 +0.0000000000000000e+00 +9.9999954827734494e-01
-9.2999999999999829e+00 +9.0913324922464902e+00 +0.0000000000000000e+00 -9.2999985692147931e+00 +9.6083090919589747e-04 +0.0000000000000000e+00 +9.9999953840187561e-01
-9.3999999999999826e+00 +9.0912358924738896e+00 +0.0000000000000000e+00 -9.3999985225567571e+00 +9.7116454651756151e-04 +0.0000000000000000e+00 +9.9999952841960082e-01
-9.4999999999999822e+00 +9.0911382593364429e+00 +0.0000000000000000e+00 -9.4999984748951540e+00 +9.8149820611545101e-04 +0.0000000000000000e+00 +9.9999951833051992e-01
-9.5999999999999819e+00 +9.0910395928319243e+00 +0.0000000000000000e+00 -9.5999984262193010e+00 +9.9183188799021140e-04 +0.0000000000000000e+00 +9.9999950813463223e-01
-9.6999999999999815e+00 +9.0909398929581027e+00 +0.0000000000000000e+00 -9.6999983765185203e+00 +1.0021655921765755e-03 +0.0000000000000000e+00 +9.9999949783193709e-01
-9.7999999999999812e+00 +9.0908391597127451e+00 +0.0000000000000000e+00 -9.7999983257821288e+00 +1.0124993186925958e-03 +0.0000000000000000e+00 +9.9999948742243372e-01
-9.8999999999999808e+00 +9.0907373930936206e+00 +0.0000000000000000e+00 -9.8999982739994472e+00 +1.0228330675349944e-03 +0.0000000000000000e+00 +9.9999947690612145e-01
-9.9999999999999805e+00 +9.0906345930984962e+00 +0.0000000000000000e+00 -9.9999982211597942e+00 +1.0331668386791254e-03 +0.0000000000000000e+00 +9.9999946628299963e-01
-1.0099999999999980e+01 +9.0905307597251443e+00 +0.0000000000000000e+00 -1.0099998167252487e+01 +1.0435006320789354e-03 +0.0000000000000000e+00 +9.9999945555306757e-01
-1.0199999999999980e+01 +9.0904258929713411e+00 +0.0000000000000000e+00 -1.0199998112266847e+01 +1.0538344476669242e-03 +0.0000000000000000e+00 +9.9999944471632463e-01
-1.0299999999999979e+01 +9.0903199928348730e+00 +0.0000000000000000e+00 -1.0299998056192193e+01 +1.0641682853541033e-03 +0.0000000000000000e+00 +9.9999943377277023e-01
-1.0399999999999979e+01 +9.0902130593135357e+00 +0.0000000000000000e+00 -1.0399997999017842e+01 +1.0745021450299544e-03 +0.0000000000000000e+00 +9.9999942272240383e-01
-1.0499999999999979e+01 +9.0901050924051372e+00 +0.0000000000000000e+00 -1.0499997940733113e+01 +1.0848360265623854e-03 +0.0000000000000000e+00 +9.9999941156522487e-01
-1.0599999999999978e+01 +9.0899960921074996e+00 +0.0000000000000000e+00 -1.0599997881327326e+01 +1.0951699297976868e-03 +0.0000000000000000e+00 +9.9999940030123291e-01
-1.0699999999999978e+01 +9.0898860584184611e+00 +0.0000000000000000e+00 -1.0699997820789799e+01 +1.1055038545604865e-03 +0.0000000000000000e+00 +9.9999938893042739e-01
-1.0799999999999978e+01 +9.0897749913358776e+00 +0.0000000000000000e+00 -1.0799997759109850e+01 +1.1158378006537026e-03 +0.0000000000000000e+00 +9.9999937745280787e-01
-1.0899999999999977e+01 +9.0896628908576265e+00 +0.0000000000000000e+00 -1.0899997696276799e+01 +1.1261717678584971e-03 +0.0000000000000000e+00 +9.9999936586837390e-01
-1.0999999999999977e+01 +9.0895497569816097e+00 +0.0000000000000000e+00 -1.0999997632279964e+01 +1.1365057559342266e-03 +0.0000000000000000e+00 +9.9999935417712515e-01
-1.1099999999999977e+01 +9.0894355897057526e+00 +0.0000000000000000e+00 -1.1099997567108664e+01 +1.1468397646183929e-03 +0.0000000000000000e+00 +9.9999934237906130e-01
-1.1199999999999976e+01 +9.0893203890280088e+00 +0.0000000000000000e+00 -1.1199997500752216e+01 +1.1571737936265929e-03 +0.0000000000000000e+00 +9.9999933047418188e-01
-1.1299999999999976e+01 +9.0892041549463602e+00 +0.0000000000000000e+00 -1.1299997433199939e+01 +1.1675078426524662e-03 +0.0000000000000000e+00 +9.9999931846248680e-01
-1.1399999999999975e+01 +9.0890868874588211e+00 +0.0000000000000000e+00 -1.1399997364441152e+01 +1.1778419113676428e-03 +0.0000000000000000e+00 +9.9999930634397571e-01
-1.1499999999999975e+01 +9.0889685865634409e+00 +0.0000000000000000e+00 -1.1499997294465173e+01 +1.1881759994216894e-03 +0.0000000000000000e+00 +9.9999929411864841e-01
-1.1599999999999975e+01 +9.0888492522583046e+00 +0.0000000000000000e+00 -1.1599997223261321e+01 +1.1985101064434147e-03 +0.0000000000000000e+00 +9.9999928178650477e-01
-1.1699999999999974e+01 +9.0887288845415330e+00 +0.0000000000000000e+00 -1.1699997150818913e+01 +1.2088442320557960e-03 +0.0000000000000000e+00 +9.9999926934754468e-01
