# trajectory
# s[mm] rx[mm] ry[mm] rz[mm] px[rad] py[rad] pz[rad]
0.0000000000000000e+00 +9.1905000000000001e+00 +0.0000000000000000e+00 +0.0000000000000000e+00 +0.0000000000000000e+00 +0.0000000000000000e+00 +1.0000000000000000e+00
1.0000000000000001e-01 +9.1904994840072778e+00 +0.0000000000000000e+00 +9.9999999998225009e-02 -1.0319857192002615e-05 +0.0000000000000000e+00 +9.9999999994675026e-01
2.0000000000000001e-01 +9.1904979360279988e+00 +0.0000000000000000e+00 +1.9999999998580006e-01 -2.0639731282465948e-05 +0.0000000000000000e+00 +9.9999999978700072e-01
3.0000000000000004e-01 +9.1904953560604241e+00 +0.0000000000000000e+00 +2.9999999995207516e-01 -3.0959623299530410e-05 +0.0000000000000000e+00 +9.9999999952075080e-01
4.0000000000000002e-01 +9.1904917441027081e+00 +0.0000000000000000e+00 +3.9999999988640023e-01 -4.1279534242875249e-05 +0.0000000000000000e+00 +9.9999999914799997e-01
5.0000000000000000e-01 +9.1904871001529109e+00 +0.0000000000000000e+00 +4.9999999977812515e-01 -5.1599465083709167e-05 +0.0000000000000000e+00 +9.9999999866874756e-01
5.9999999999999998e-01 +9.1904814242089952e+00 +0.0000000000000000e+00 +5.9999999961659967e-01 -6.1919416763947153e-05 +0.0000000000000000e+00 +9.9999999808299289e-01
6.9999999999999996e-01 +9.1904747162688327e+00 +0.0000000000000000e+00 +6.9999999939117363e-01 -7.2239390187256255e-05 +0.0000000000000000e+00 +9.9999999739073520e-01
7.9999999999999993e-01 +9.1904669763302049e+00 +0.0000000000000000e+00 +7.9999999909119657e-01 -8.2559386210103916e-05 +0.0000000000000000e+00 +9.9999999659197381e-01
8.9999999999999991e-01 +9.1904582043908114e+00 +0.0000000000000000e+00 +8.9999999870601821e-01 -9.2879405640939637e-05 +0.0000000000000000e+00 +9.9999999568670794e-01
9.9999999999999989e-01 +9.1904484004482718e+00 +0.0000000000000000e+00 +9.9999999822498797e-01 -1.0319944924019111e-04 +0.0000000000000000e+00 +9.9999999467493672e-01
1.0999999999999999e+00 +9.1904375645001348e+00 +0.0000000000000000e+00 +1.0999999976374553e+00 -1.1351951772026166e-04 +0.0000000000000000e+00 +9.9999999355665947e-01
1.2000000000000000e+00 +9.1904256965438762e+00 +0.0000000000000000e+00 +1.1999999969327695e+00 -1.2383961174552901e-04 +0.0000000000000000e+00 +9.9999999233187520e-01
1.3000000000000000e+00 +9.1904127965769131e+00 +0.0000000000000000e+00 +1.2999999961002799e+00 -1.3415973193234531e-04 +0.0000000000000000e+00 +9.9999999100058312e-01
1.4000000000000001e+00 +9.1903988645965988e+00 +0.0000000000000000e+00 +1.3999999951293358e+00 -1.4447987884903850e-04 +0.0000000000000000e+00 +9.9999998956278224e-01
1.5000000000000002e+00 +9.1903839006002350e+00 +0.0000000000000000e+00 +1.4999999940092861e+00 -1.5480005301591495e-04 +0.0000000000000000e+00 +9.9999998801847167e-01
1.6000000000000003e+00 +9.1903679045850719e+00 +0.0000000000000000e+00 +1.5999999927294797e+00 -1.6512025490526345e-04 +0.0000000000000000e+00 +9.9999998636765053e-01
1.7000000000000004e+00 +9.1903508765483153e+00 +0.0000000000000000e+00 +1.6999999912792656e+00 -1.7544048494136044e-04 +0.0000000000000000e+00 +9.9999998461031792e-01
1.8000000000000005e+00 +9.1903328164871319e+00 +0.0000000000000000e+00 +1.7999999896479928e+00 -1.8576074350047661e-04 +0.0000000000000000e+00 +9.9999998274647284e-01
1.9000000000000006e+00 +9.1903137243986528e+00 +0.0000000000000000e+00 +1.8999999878250098e+00 -1.9608103091088474e-04 +0.0000000000000000e+00 +9.9999998077611441e-01
2.0000000000000004e+00 +9.1902936002799791e+00 +0.0000000000000000e+00 +1.9999999857996653e+00 -2.0640134745286888e-04 +0.0000000000000000e+00 +9.9999997869924162e-01
2.1000000000000005e+00 +9.1902724441281833e+00 +0.0000000000000000e+00 +2.0999999835613079e+00 -2.1672169335873481e-04 +0.0000000000000000e+00 +9.9999997651585348e-01
2.2000000000000006e+00 +9.1902502559403221e+00 +0.0000000000000000e+00 +2.1999999810992859e+00 -2.2704206881282184e-04 +0.0000000000000000e+00 +9.9999997422594911e-01
2.3000000000000007e+00 +9.1902270357134324e+00 +0.0000000000000000e+00 +2.2999999784029472e+00 -2.3736247395151594e-04 +0.0000000000000000e+00 +9.9999997182952749e-01
2.4000000000000008e+00 +9.1902027834445406e+00 +0.0000000000000000e+00 +2.3999999754616406e+00 -2.4768290886326399e-04 +0.0000000000000000e+00 +9.9999996932658775e-01
2.5000000000000009e+00 +9.1901774991306660e+00 +0.0000000000000000e+00 +2.4999999722647139e+00 -2.5800337358858967e-04 +0.0000000000000000e+00 +9.9999996671712899e-01
2.6000000000000010e+00 +9.1901511827688296e+00 +0.0000000000000000e+00 +2.5999999688015154e+00 -2.6832386812212583e-04 +0.0000000000000000e+00 +9.9999996400115021e-01
2.7000000000000011e+00 +9.1901238343560490e+00 +0.0000000000000000e+00 +2.6999999650613931e+00 -2.7864439243480312e-04 +0.0000000000000000e+00 +9.9999996117865053e-01
2.8000000000000012e+00 +9.1900954538893505e+00 +0.0000000000000000e+00 +2.7999999610336945e+00 -2.8896494649603227e-04 +0.0000000000000000e+00 +9.9999995824962895e-01
2.9000000000000012e+00 +9.1900660413657587e+00 +0.0000000000000000e+00 +2.8999999567077679e+00 -2.9928553027572745e-04 +0.0000000000000000e+00 +9.9999995521408469e-01
3.0000000000000013e+00 +9.1900355967823053e+00 +0.0000000000000000e+00 +2.9999999520729608e+00 -3.0960614374431363e-04 +0.0000000000000000e+00 +9.9999995207201675e-01
3.1000000000000014e+00 +9.1900041201360221e+00 +0.0000000000000000e+00 +3.0999999471186204e+00 -3.1992678687273385e-04 +0.0000000000000000e+00 +9.9999994882342425e-01
3.2000000000000015e+00 +9.1899716114239443e+00 +0.0000000000000000e+00 +3.1999999418340948e+00 -3.3024745963245724e-04 +0.0000000000000000e+00 +9.9999994546830628e-01
3.3000000000000016e+00 +9.1899380706431089e+00 +0.0000000000000000e+00 +3.2999999362087307e+00 -3.4056816199548644e-04 +0.0000000000000000e+00 +9.9999994200666187e-01
3.4000000000000017e+00 +9.1899034977905583e+00 +0.0000000000000000e+00 +3.3999999302318762e+00 -3.5088889393436565e-04 +0.0000000000000000e+00 +9.9999993843849022e-01
3.5000000000000018e+00 +9.1898678928633366e+00 +0.0000000000000000e+00 +3.4999999238928781e+00 -3.6120965542218861e-04 +0.0000000000000000e+00 +9.9999993476379034e-01
3.6000000000000019e+00 +9.1898312558584898e+00 +0.0000000000000000e+00 +3.5999999171810835e+00 -3.7153044643260661e-04 +0.0000000000000000e+00 +9.9999993098256135e-01
3.7000000000000020e+00 +9.1897935867730673e+00 +0.0000000000000000e+00 +3.6999999100858396e+00 -3.8185126693983688e-04 +0.0000000000000000e+00 +9.9999992709480234e-01
3.8000000000000020e+00 +9.1897548856041205e+00 +0.0000000000000000e+00 +3.7999999025964932e+00 -3.9217211691867075e-04 +0.0000000000000000e+00 +9.9999992310051244e-01
3.9000000000000021e+00 +9.1897151523487022e+00 +0.0000000000000000e+00 +3.8999998947023911e+00 -4.0249299634448230e-04 +0.0000000000000000e+00 +9.9999991899969076e-01
4.0000000000000018e+00 +9.1896743870038708e+00 +0.0000000000000000e+00 +3.9999998863928803e+00 -4.1281390519323671e-04 +0.0000000000000000e+00 +9.9999991479233630e-01
4.1000000000000014e+00 +9.1896325895666848e+00 +0.0000000000000000e+00 +4.0999998776573072e+00 -4.2313484344149924e-04 +0.0000000000000000e+00 +9.9999991047844816e-01
4.2000000000000011e+00 +9.1895897600342042e+00 +0.0000000000000000e+00 +4.1999998684850191e+00 -4.3345581106644373e-04 +0.0000000000000000e+00 +9.9999990605802558e-01
4.3000000000000007e+00 +9.1895458984034928e+00 +0.0000000000000000e+00 +4.2999998588653616e+00 -4.4377680804586183e-04 +0.0000000000000000e+00 +9.9999990153106755e-01
4.4000000000000004e+00 +9.1895010046716177e+00 +0.0000000000000000e+00 +4.3999998487876812e+00 -4.5409783435817184e-04 +0.0000000000000000e+00 +9.9999989689757318e-01
4.5000000000000000e+00 +9.1894550788356444e+00 +0.0000000000000000e+00 +4.4999998382413251e+00 -4.6441888998242795e-04 +0.0000000000000000e+00 +9.9999989215754159e-01
4.5999999999999996e+00 +9.1894081208926437e+00 +0.0000000000000000e+00 +4.5999998272156386e+00 -4.7473997489824341e-04 +0.0000000000000000e+00 +9.9999988731097189e-01
4.6999999999999993e+00 +9.1893601308396882e+00 +0.0000000000000000e+00 +4.6999998156999681e+00 -4.8506108908485051e-04 +0.0000000000000000e+00 +9.9999988235786308e-01
4.7999999999999989e+00 +9.1893111086738521e+00 +0.0000000000000000e+00 +4.7999998036836597e+00 -4.9538223252015054e-04 +0.0000000000000000e+00 +9.9999987729821438e-01
4.8999999999999986e+00 +9.1892610543922100e+00 +0.0000000000000000e+00 +4.8999997911560600e+00 -5.0570340518061869e-04 +0.0000000000000000e+00 +9.9999987213202490e-01
4.9999999999999982e+00 +9.1892099679918413e+00 +0.0000000000000000e+00 +4.9999997781065142e+00 -5.1602460704129420e-04 +0.0000000000000000e+00 +9.9999986685929365e-01
5.0999999999999979e+00 +9.1891578494698276e+00 +0.0000000000000000e+00 +5.0999997645243678e+00 -5.2634583807576916e-04 +0.0000000000000000e+00 +9.9999986148001985e-01
5.1999999999999975e+00 +9.1891046988232539e+00 +0.0000000000000000e+00 +5.1999997503989670e+00 -5.3666709825617674e-04 +0.0000000000000000e+00 +9.9999985599420249e-01
5.2999999999999972e+00 +9.1890505160492051e+00 +0.0000000000000000e+00 +5.2999997357196573e+00 -5.4698838755317866e-04 +0.0000000000000000e+00 +9.9999985040184081e-01
5.3999999999999968e+00 +9.1889953011447734e+00 +0.0000000000000000e+00 +5.3999997204757841e+00 -5.5730970593595181e-04 +0.0000000000000000e+00 +9.9999984470293379e-01
5.4999999999999964e+00 +9.1889390541070508e+00 +0.0000000000000000e+00 +5.4999997046566929e+00 -5.6763105337217352e-04 +0.0000000000000000e+00 +9.9999983889748068e-01
5.5999999999999961e+00 +9.1888817749331331e+00 +0.0000000000000000e+00 +5.5999996882517289e+00 -5.7795242982800670e-04 +0.0000000000000000e+00 +9.9999983298548056e-01
5.6999999999999957e+00 +9.1888234636201194e+00 +0.0000000000000000e+00 +5.6999996712502377e+00 -5.8827383526808370e-04 +0.0000000000000000e+00 +9.9999982696693246e-01
5.7999999999999954e+00 +9.1887641201651142e+00 +0.0000000000000000e+00 +5.7999996536415637e+00 -5.9859526965548950e-04 +0.0000000000000000e+00 +9.9999982084183558e-01
5.8999999999999950e+00 +9.1887037445652240e+00 +0.0000000000000000e+00 +5.8999996354150532e+00 -6.0891673295174382e-04 +0.0000000000000000e+00 +9.9999981461018905e-01
5.9999999999999947e+00 +9.1886423368175603e+00 +0.0000000000000000e+00 +5.9999996165600500e+00 -6.1923822511678257e-04 +0.0000000000000000e+00 +9.9999980827199197e-01
6.0999999999999943e+00 +9.1885798969192383e+00 +0.0000000000000000e+00 +6.0999995970658993e+00 -6.2955974610893843e-04 +0.0000000000000000e+00 +9.9999980182724346e-01
6.1999999999999940e+00 +9.1885164248673785e+00 +0.0000000000000000e+00 +6.1999995769219467e+00 -6.3988129588492086e-04 +0.0000000000000000e+00 +9.9999979527594274e-01
6.2999999999999936e+00 +9.1884519206591033e+00 +0.0000000000000000e+00 +6.2999995561175366e+00 -6.5020287439979444e-04 +0.0000000000000000e+00 +9.9999978861808880e-01
6.3999999999999932e+00 +9.1883863842915421e+00 +0.0000000000000000e+00 +6.3999995346420127e+00 -6.6052448160695723e-04 +0.0000000000000000e+00 +9.9999978185368088e-01
6.4999999999999929e+00 +9.1883198157618278e+00 +0.0000000000000000e+00 +6.4999995124847203e+00 -6.7084611745811778e-04 +0.0000000000000000e+00 +9.9999977498271808e-01
6.5999999999999925e+00 +9.1882522150670987e+00 +0.0000000000000000e+00 +6.5999994896350040e+00 -6.8116778190073491e-04 +0.0000000000000000e+00 +9.9999976800519963e-01
6.6999999999999922e+00 +9.1881835822044984e+00 +0.0000000000000000e+00 +6.6999994660822084e+00 -6.9148947485008925e-04 +0.0000000000000000e+00 +9.9999976092112464e-01
6.7999999999999918e+00 +9.1881139171711830e+00 +0.0000000000000000e+00 +6.7999994418156771e+00 -7.0181119616136687e-04 +0.0000000000000000e+00 +9.9999975373049232e-01
6.8999999999999915e+00 +9.1880432199643263e+00 +0.0000000000000000e+00 +6.8999994168247545e+00 -7.1213294562711739e-04 +0.0000000000000000e+00 +9.9999974643330192e-01
6.9999999999999911e+00 +9.1879714905811269e+00 +0.0000000000000000e+00 +6.9999993910987852e+00 -7.2245472297725031e-04 +0.0000000000000000e+00 +9.9999973902955275e-01
7.0999999999999908e+00 +9.1878987290188121e+00 +0.0000000000000000e+00 +7.0999993646271129e+00 -7.3277652787903072e-04 +0.0000000000000000e+00 +9.9999973151924426e-01
7.1999999999999904e+00 +9.1878249352746462e+00 +0.0000000000000000e+00 +7.1999993373990820e+00 -7.4309835993707546e-04 +0.0000000000000000e+00 +9.9999972390237579e-01
7.2999999999999901e+00 +9.1877501093459344e+00 +0.0000000000000000e+00 +7.2999993094040363e+00 -7.5342021869334889e-04 +0.0000000000000000e+00 +9.9999971617894690e-01
7.3999999999999897e+00 +9.1876742512300336e+00 +0.0000000000000000e+00 +7.3999992806313193e+00 -7.6374210362715848e-04 +0.0000000000000000e+00 +9.9999970834895724e-01
7.4999999999999893e+00 +9.1875973609243555e+00 +0.0000000000000000e+00 +7.4999992510702755e+00 -7.7406401415515099e-04 +0.0000000000000000e+00 +9.9999970041240627e-01
7.5999999999999890e+00 +9.1875194384263708e+00 +0.0000000000000000e+00 +7.5999992207102487e+00 -7.8438594963130780e-04 +0.0000000000000000e+00 +9.9999969236929387e-01
7.6999999999999886e+00 +9.1874404837336208e+00 +0.0000000000000000e+00 +7.6999991895405824e+00 -7.9470790934694103e-04 +0.0000000000000000e+00 +9.9999968421961971e-01
7.7999999999999883e+00 +9.1873604968437199e+00 +0.0000000000000000e+00 +7.7999991575506202e+00 -8.0502989253068886e-04 +0.0000000000000000e+00 +9.9999967596338368e-01
7.8999999999999879e+00 +9.1872794777543607e+00 +0.0000000000000000e+00 +7.8999991247297068e+00 -8.1535189834851121e-04 +0.0000000000000000e+00 +9.9999966760058578e-01
7.9999999999999876e+00 +9.1871974264633245e+00 +0.0000000000000000e+00 +7.9999990910671857e+00 -8.2567392590368561e-04 +0.0000000000000000e+00 +9.9999965913122602e-01
8.0999999999999872e+00 +9.1871143429684867e+00 +0.0000000000000000e+00 +8.0999990565524005e+00 -8.3599597423680231e-04 +0.0000000000000000e+00 +9.9999965055530460e-01
8.1999999999999869e+00 +9.1870302272678188e+00 +0.0000000000000000e+00 +8.1999990211746940e+00 -8.4631804232576018e-04 +0.0000000000000000e+00 +9.9999964187282164e-01
8.2999999999999865e+00 +9.1869450793593987e+00 +0.0000000000000000e+00 +8.2999989849234126e+00 -8.5664012908576192e-04 +0.0000000000000000e+00 +9.9999963308377748e-01
8.3999999999999861e+00 +9.1868588992414164e+00 +0.0000000000000000e+00 +8.3999989477878980e+00 -8.6696223336930943e-04 +0.0000000000000000e+00 +9.9999962418817256e-01
8.4999999999999858e+00 +9.1867716869121807e+00 +0.0000000000000000e+00 +8.4999989097574957e+00 -8.7728435396619954e-04 +0.0000000000000000e+00 +9.9999961518600733e-01
8.5999999999999854e+00 +9.1866834423701214e+00 +0.0000000000000000e+00 +8.5999988708215476e+00 -8.8760648961036482e-04 +0.0000000000000000e+00 +9.9999960607728244e-01
8.6999999999999851e+00 +9.1865941656137977e+00 +0.0000000000000000e+00 +8.6999988309693990e+00 -8.9792863905517671e-04 +0.0000000000000000e+00 +9.9999959686199857e-01
8.7999999999999847e+00 +9.1865038566418882e+00 +0.0000000000000000e+00 +8.7999987901903953e+00 -9.0825080114876212e-04 +0.0000000000000000e+00 +9.9999958754015628e-01
8.8999999999999844e+00 +9.1864125154531813e+00 +0.0000000000000000e+00 +8.8999987484738785e+00 -9.1857297484086503e-04 +0.0000000000000000e+00 +9.9999957811175622e-01
8.9999999999999840e+00 +9.1863201420465650e+00 +0.0000000000000000e+00 +8.9999987058091939e+00 -9.2889515918286307e-04 +0.0000000000000000e+00 +9.9999956857679884e-01
9.0999999999999837e+00 +9.1862267364210179e+00 +0.0000000000000000e+00 +9.0999986621856852e+00 -9.3921735332778435e-04 +0.0000000000000000e+00 +9.9999955893528458e-01
9.1999999999999833e+00 +9.1861322985755969e+00 +0.0000000000000000e+00 +9.1999986175926978e+00 -9.4953955653032519e-04 +0.0000000000000000e+00 +9.9999954918721390e-01
9.2999999999999829e+00 +9.1860368285094314e+00 +0.0000000000000000e+00 +9.2999985720195752e+00 -9.5986176814686795e-04 +0.0000000000000000e+00 +9.9999953933258712e-01
9.3999999999999826e+00 +9.1859403262217061e+00 +0.0000000000000000e+00 +9.3999985254556631e+00 -9.7018398763549997e-04 +0.0000000000000000e+00 +9.9999952937140457e-01
9.4999999999999822e+00 +9.1858427917116572e+00 +0.0000000000000000e+00 +9.4999984778903048e+00 -9.8050621455603236e-04 +0.0000000000000000e+00 +9.9999951930366637e-01
9.5999999999999819e+00 +9.1857442249785581e+00 +0.0000000000000000e+00 +9.5999984293128442e+00 -9.9082844857001969e-04 +0.0000000000000000e+00 +9.9999950912937252e-01
9.6999999999999815e+00 +9.1856446260217144e+00 +0.0000000000000000e+00 +9.6999983797126266e+00 -1.0011506894407804e-03 +0.0000000000000000e+00 +9.9999949884852324e-01
9.7999999999999812e+00 +9.1855439948404456e+00 +0.0000000000000000e+00 +9.7999983290789974e+00 -1.0114729370334177e-03 +0.0000000000000000e+00 +9.9999948846111830e-01
9.8999999999999808e+00 +9.1854423314340838e+00 +0.0000000000000000e+00 +9.8999982774012985e+00 -1.0217951913148401e-03 +0.0000000000000000e+00 +9.9999947796715760e-01
9.9999999999999805e+00 +9.1853396358019577e+00 +0.0000000000000000e+00 +9.9999982246688770e+00 -1.0321174523537844e-03 +0.0000000000000000e+00 +9.9999946736664080e-01
1.0099999999999980e+01 +9.1852359079433832e+00 +0.0000000000000000e+00 +1.0099998170871075e+01 -1.0424397203208371e-03 +0.0000000000000000e+00 +9.9999945665956746e-01
1.0199999999999980e+01 +9.1851311478576534e+00 +0.0000000000000000e+00 +1.0199998115997237e+01 -1.0527619954884577e-03 +0.0000000000000000e+00 +9.9999944584593725e-01
1.0299999999999979e+01 +9.1850253555440329e+00 +0.0000000000000000e+00 +1.0299998060036710e+01 -1.0630842782310018e-03 +0.0000000000000000e+00 +9.9999943492574939e-01
1.0399999999999979e+01 +9.1849185310017400e+00 +0.0000000000000000e+00 +1.0399998002978835e+01 -1.0734065690247458e-03 +0.0000000000000000e+00 +9.9999942389900320e-01
1.0499999999999979e+01 +9.1848106742299418e+00 +0.0000000000000000e+00 +1.0499997944812957e+01 -1.0837288684479108e-03 +0.0000000000000000e+00 +9.9999941276569781e-01
1.0599999999999978e+01 +9.1847017852277411e+00 +0.0000000000000000e+00 +1.0599997885528422e+01 -1.0940511771740298e-03 +0.0000000000000000e+00 +9.9999940152583222e-01
1.0699999999999978e+01 +9.1845918639941733e+00 +0.0000000000000000e+00 +1.0699997825114572e+01 -1.1043734958987293e-03 +0.0000000000000000e+00 +9.9999939017940531e-01
1.0799999999999978e+01 +9.1844809105282064e+00 +0.0000000000000000e+00 +1.0799997763560752e+01 -1.1146958252664793e-03 +0.0000000000000000e+00 +9.9999937872641609e-01
1.0899999999999977e+01 +9.1843689248287461e+00 +0.0000000000000000e+00 +1.0899997700856304e+01 -1.1250181658639109e-03 +0.0000000000000000e+00 +9.9999936716686355e-01
1.0999999999999977e+01 +9.1842559068946414e+00 +0.0000000000000000e+00 +1.0999997636990573e+01 -1.1353405182197927e-03 +0.0000000000000000e+00 +9.9999935550074670e-01
1.1099999999999977e+01 +9.1841418567246933e+00 +0.0000000000000000e+00 +1.1099997571952901e+01 -1.1456628828050049e-03 +0.0000000000000000e+00 +9.9999934372806465e-01
1.1199999999999976e+01 +9.1840267743176582e+00 +0.0000000000000000e+00 +1.1199997505732632e+01 -1.1559852600325129e-03 +0.0000000000000000e+00 +9.9999933184881662e-01
1.1299999999999976e+01 +9.1839106596722537e+00 +0.0000000000000000e+00 +1.1299997438319112e+01 -1.1663076502573420e-03 +0.0000000000000000e+00 +9.9999931986300172e-01
1.1399999999999975e+01 +9.1837935127871635e+00 +0.0000000000000000e+00 +1.1399997369701682e+01 -1.1766300537765491e-03 +0.0000000000000000e+00 +9.9999930777061918e-01
1.1499999999999975e+01 +9.1836753336610464e+00 +0.0000000000000000e+00 +1.1499997299869683e+01 -1.1869524708291955e-03 +0.0000000000000000e+00 +9.9999929557166833e-01
1.1599999999999975e+01 +9.1835561222925399e+00 +0.0000000000000000e+00 +1.1599997228812462e+01 -1.1972749015963186e-03 +0.0000000000000000e+00 +9.9999928326614862e-01
1.1699999999999974e+01 +9.1834358786802657e+00 +0.0000000000000000e+00 +1.1699997156519361e+01 -1.2075973462009023e-03 +0.0000000000000000e+00 +9.9999927085405937e-01
1.1799999999999974e+01 +9.1833146028228363e+00 +0.0000000000000000e+00 +1.1799997082979722e+01 -1.2179198047078479e-03 +0.0000000000000000e+00 +9.9999925833540004e-01
