# field on trajectory
# s[mm] rx[mm] ry[mm] rz[mm] bx[T] by[T] bz[T]
0.0000000000000000e+00 +9.1013000000000002e+00 +0.0000000000000000e+00 +0.0000000000000000e+00 +3.3271739642858544e-03 -6.1909709550428620e-02 -5.4602894770473961e-04
-1.0000000000000001e-01 +9.1012994835895604e+00 +0.0000000000000000e+00 -9.9999999998222136e-02 +3.3271823017129677e-03 -6.1909747231855945e-02 -5.4603609704433379e-04
-2.0000000000000001e-01 +9.1012979343578202e+00 +0.0000000000000000e+00 -1.9999999998577705e-01 +3.3271912552698011e-03 -6.1909784657464495e-02 -5.4604386371809787e-04
-3.0000000000000004e-01 +9.1012953523041578e+00 +0.0000000000000000e+00 -2.9999999995199755e-01 +3.3272007608617501e-03 -6.1909821820177846e-02 -5.4605213098302618e-04
-4.0000000000000002e-01 +9.1012917374279514e+00 +0.0000000000000000e+00 -3.9999999988621643e-01 +3.3272107543964292e-03 -6.1909858712916072e-02 -5.4606078208976926e-04
-5.0000000000000000e-01 +9.1012870897285882e+00 +0.0000000000000000e+00 -4.9999999977776644e-01 +3.3272211717833241e-03 -6.1909895328595456e-02 -5.4606970028259032e-04
-5.9999999999999998e-01 +9.1012814092054555e+00 +0.0000000000000000e+00 -5.9999999961598027e-01 +3.3272319489334365e-03 -6.1909931660128190e-02 -5.4607876879932018e-04
-6.9999999999999996e-01 +9.1012746958579491e+00 +0.0000000000000000e+00 -6.9999999939019064e-01 +3.3272430217589255e-03 -6.1909967700421800e-02 -5.4608787087131105e-04
-7.9999999999999993e-01 +9.1012669496854688e+00 +0.0000000000000000e+00 -7.9999999908973018e-01 +3.3272543261727541e-03 -6.1910003442379014e-02 -5.4609688972339341e-04
-8.9999999999999991e-01 +9.1012581706874194e+00 +0.0000000000000000e+00 -8.9999999870393166e-01 +3.3272657980883335e-03 -6.1910038878897275e-02 -5.4610570857382848e-04
-9.9999999999999989e-01 +9.1012483588632094e+00 +0.0000000000000000e+00 -9.9999999822212771e-01 +3.3272773734191706e-03 -6.1910074002868389e-02 -5.4611421063426632e-04
-1.0999999999999999e+00 +9.1012375142122544e+00 +0.0000000000000000e+00 -1.0999999976336510e+00 +3.3272889880785056e-03 -6.1910108807178184e-02 -5.4612227910969772e-04
-1.2000000000000000e+00 +9.1012256367339752e+00 +0.0000000000000000e+00 -1.1999999969278341e+00 +3.3273005779789673e-03 -6.1910143284706183e-02 -5.4612979719841233e-04
-1.3000000000000000e+00 +9.1012127264277964e+00 +0.0000000000000000e+00 -1.2999999960940096e+00 +3.3273120790322094e-03 -6.1910177428325101e-02 -5.4613664809195132e-04
-1.4000000000000001e+00 +9.1011987832931514e+00 +0.0000000000000000e+00 -1.3999999951215101e+00 +3.3273234271485575e-03 -6.1910211230900659e-02 -5.4614271497506418e-04
-1.5000000000000002e+00 +9.1011838073294786e+00 +0.0000000000000000e+00 -1.4999999939996682e+00 +3.3273345582366552e-03 -6.1910244685291146e-02 -5.4614788102566386e-04
-1.6000000000000003e+00 +9.1011677985362205e+00 +0.0000000000000000e+00 -1.5999999927178163e+00 +3.3273454082031104e-03 -6.1910277784346997e-02 -5.4615202941478088e-04
-1.7000000000000004e+00 +9.1011507569128263e+00 +0.0000000000000000e+00 -1.6999999912652872e+00 +3.3273559129521333e-03 -6.1910310520910491e-02 -5.4615504330652014e-04
-1.8000000000000005e+00 +9.1011326824587506e+00 +0.0000000000000000e+00 -1.7999999896314132e+00 +3.3273660083851897e-03 -6.1910342887815419e-02 -5.4615680585801639e-04
-1.9000000000000006e+00 +9.1011135751734571e+00 +0.0000000000000000e+00 -1.8999999878055269e+00 +3.3273756304006375e-03 -6.1910374877886663e-02 -5.4615720021938818e-04
-2.0000000000000004e+00 +9.1010934350564145e+00 +0.0000000000000000e+00 -1.9999999857769608e+00 +3.3273847148933785e-03 -6.1910406483939882e-02 -5.4615610953369646e-04
-2.1000000000000005e+00 +9.1010722621070954e+00 +0.0000000000000000e+00 -2.0999999835350476e+00 +3.3273932068895091e-03 -6.1910437699180233e-02 -5.4615345094537930e-04
-2.2000000000000006e+00 +9.1010500563249828e+00 +0.0000000000000000e+00 -2.1999999810691193e+00 +3.3274010879518106e-03 -6.1910468518401984e-02 -5.4614927762848650e-04
-2.3000000000000007e+00 +9.1010268177095650e+00 +0.0000000000000000e+00 -2.2999999783685086e+00 +3.3274083487759014e-03 -6.1910498936794629e-02 -5.4614367676644412e-04
-2.4000000000000008e+00 +9.1010025462603377e+00 +0.0000000000000000e+00 -2.3999999754225478e+00 +3.3274149800553228e-03 -6.1910528949544560e-02 -5.4613673554510932e-04
-2.5000000000000009e+00 +9.1009772419768016e+00 +0.0000000000000000e+00 -2.4999999722205692e+00 +3.3274209724814719e-03 -6.1910558551835637e-02 -5.4612854115369455e-04
-2.6000000000000010e+00 +9.1009509048584665e+00 +0.0000000000000000e+00 -2.5999999687519058e+00 +3.3274263167435239e-03 -6.1910587738849339e-02 -5.4611918078568847e-04
-2.7000000000000011e+00 +9.1009235349048474e+00 +0.0000000000000000e+00 -2.6999999650058895e+00 +3.3274310035283556e-03 -6.1910616505765403e-02 -5.4610874163977911e-04
-2.8000000000000012e+00 +9.1008951321154683e+00 +0.0000000000000000e+00 -2.7999999609718524e+00 +3.3274350235204795e-03 -6.1910644847762097e-02 -5.4609731092077594e-04
-2.9000000000000012e+00 +9.1008656964898584e+00 +0.0000000000000000e+00 -2.8999999566391277e+00 +3.3274383674019559e-03 -6.1910672760016640e-02 -5.4608497584053258e-04
-3.0000000000000013e+00 +9.1008352280275560e+00 +0.0000000000000000e+00 -2.9999999519970473e+00 +3.3274410258523307e-03 -6.1910700237705653e-02 -5.4607182361886806e-04
-3.1000000000000014e+00 +9.1008037267281061e+00 +0.0000000000000000e+00 -3.0999999470349433e+00 +3.3274429895485541e-03 -6.1910727276005495e-02 -5.4605794148449060e-04
-3.2000000000000015e+00 +9.1007711925910595e+00 +0.0000000000000000e+00 -3.1999999417421483e+00 +3.3274442491649093e-03 -6.1910753870092670e-02 -5.4604341667591758e-04
-3.3000000000000016e+00 +9.1007376256159773e+00 +0.0000000000000000e+00 -3.2999999361079944e+00 +3.3274447953729400e-03 -6.1910780015144350e-02 -5.4602833644240057e-04
-3.4000000000000017e+00 +9.1007030258024262e+00 +0.0000000000000000e+00 -3.3999999301218140e+00 +3.3274446188413663e-03 -6.1910805706338591e-02 -5.4601278804484457e-04
-3.5000000000000018e+00 +9.1006673931499815e+00 +0.0000000000000000e+00 -3.4999999237729398e+00 +3.3274437102360239e-03 -6.1910830938854876e-02 -5.4599685875673205e-04
-3.6000000000000019e+00 +9.1006307276582277e+00 +0.0000000000000000e+00 -3.5999999170507038e+00 +3.3274420602197826e-03 -6.1910855707874468e-02 -5.4598063586504275e-04
-3.7000000000000020e+00 +9.1005930293267525e+00 +0.0000000000000000e+00 -3.6999999099444381e+00 +3.3274396594524707e-03 -6.1910880008580804e-02 -5.4596420667117770e-04
-3.8000000000000020e+00 +9.1005542981551564e+00 +0.0000000000000000e+00 -3.7999999024434752e+00 +3.3274364985908041e-03 -6.1910903836159915e-02 -5.4594765849188035e-04
-3.9000000000000021e+00 +9.1005145341430467e+00 +0.0000000000000000e+00 -3.8999998945371472e+00 +3.3274325682883096e-03 -6.1910927185800796e-02 -5.4593107866015699e-04
-4.0000000000000018e+00 +9.1004737372900362e+00 +0.0000000000000000e+00 -3.9999998862147863e+00 +3.3274278591952536e-03 -6.1910950052695882e-02 -5.4591455452619969e-04
-4.1000000000000014e+00 +9.1004319075957483e+00 +0.0000000000000000e+00 -4.0999998774657245e+00 +3.3274223803944972e-03 -6.1910972433753424e-02 -5.4589815763039405e-04
-4.2000000000000011e+00 +9.1003890450598153e+00 +0.0000000000000000e+00 -4.1999998682792947e+00 +3.3274162147161222e-03 -6.1910994332732054e-02 -5.4588189621406174e-04
-4.3000000000000007e+00 +9.1003451496818748e+00 +0.0000000000000000e+00 -4.2999998586448287e+00 +3.3274094634416248e-03 -6.1911015755100642e-02 -5.4586576269283562e-04
-4.4000000000000004e+00 +9.1003002214615751e+00 +0.0000000000000000e+00 -4.3999998485516585e+00 +3.3274022278705971e-03 -6.1911036706325771e-02 -5.4584974948298126e-04
-4.5000000000000000e+00 +9.1002542603985717e+00 +0.0000000000000000e+00 -4.4999998379891171e+00 +3.3273946093218517e-03 -6.1911057191871739e-02 -5.4583384900119293e-04
-4.5999999999999996e+00 +9.1002072664925269e+00 +0.0000000000000000e+00 -4.5999998269465356e+00 +3.3273867091345526e-03 -6.1911077217200482e-02 -5.4581805366439096e-04
-4.6999999999999993e+00 +9.1001592397431121e+00 +0.0000000000000000e+00 -4.6999998154132472e+00 +3.3273786286693420e-03 -6.1911096787771597e-02 -5.4580235588951921e-04
-4.7999999999999989e+00 +9.1001101801500059e+00 +0.0000000000000000e+00 -4.7999998033785838e+00 +3.3273704693094698e-03 -6.1911115909042393e-02 -5.4578674809334328e-04
-4.8999999999999986e+00 +9.1000600877128957e+00 +0.0000000000000000e+00 -4.8999997908318775e+00 +3.3273623324619203e-03 -6.1911134586467777e-02 -5.4577122269224660e-04
-4.9999999999999982e+00 +9.1000089624314739e+00 +0.0000000000000000e+00 -4.9999997777624605e+00 +3.3273543195585470e-03 -6.1911152825500387e-02 -5.4575577210202856e-04
-5.0999999999999979e+00 +9.0999568043054424e+00 +0.0000000000000000e+00 -5.0999997641596648e+00 +3.3273465320571923e-03 -6.1911170631590469e-02 -5.4574038873770095e-04
-5.1999999999999975e+00 +9.0999036133345079e+00 +0.0000000000000000e+00 -5.1999997500128226e+00 +3.3273390714428264e-03 -6.1911188010185934e-02 -5.4572506501328571e-04
-5.2999999999999972e+00 +9.0998493895183881e+00 +0.0000000000000000e+00 -5.2999997353112658e+00 +3.3273320392286630e-03 -6.1911204966732317e-02 -5.4570979334161269e-04
-5.3999999999999968e+00 +9.0997941328568039e+00 +0.0000000000000000e+00 -5.3999997200443266e+00 +3.3273255369573058e-03 -6.1911221506672838e-02 -5.4569456613411582e-04
-5.4999999999999964e+00 +9.0997378433494873e+00 +0.0000000000000000e+00 -5.4999997042013380e+00 +3.3273196662018563e-03 -6.1911237635448341e-02 -5.4567937580063028e-04
-5.5999999999999961e+00 +9.0996805209961753e+00 +0.0000000000000000e+00 -5.5999996877716312e+00 +3.3273145285670604e-03 -6.1911253358497301e-02 -5.4566421474919115e-04
-5.6999999999999957e+00 +9.0996221657966103e+00 +0.0000000000000000e+00 -5.6999996707445391e+00 +3.3273102256904264e-03 -6.1911268681255814e-02 -5.4564907538582816e-04
-5.7999999999999954e+00 +9.0995627777505437e+00 +0.0000000000000000e+00 -5.7999996531093929e+00 +3.3273068592433574e-03 -6.1911283609157597e-02 -5.4563395011436523e-04
-5.8999999999999950e+00 +9.0995023568577320e+00 +0.0000000000000000e+00 -5.8999996348555257e+00 +3.3273045309322809e-03 -6.1911298147634040e-02 -5.4561883133621601e-04
-5.9999999999999947e+00 +9.0994409031179391e+00 +0.0000000000000000e+00 -5.9999996159722686e+00 +3.3273033424997727e-03 -6.1911312302114122e-02 -5.4560371145018162e-04
-6.0999999999999943e+00 +9.0993784165309375e+00 +0.0000000000000000e+00 -6.0999995964489546e+00 +3.3273033567196670e-03 -6.1911326091272784e-02 -5.4558859637661623e-04
-6.1999999999999940e+00 +9.0993148970965017e+00 +0.0000000000000000e+00 -6.1999995762749149e+00 +3.3273044803619743e-03 -6.1911339586784159e-02 -5.4557354612931499e-04
-6.2999999999999936e+00 +9.0992503448144131e+00 +0.0000000000000000e+00 -6.2999995554394825e+00 +3.3273065811835522e-03 -6.1911352873589745e-02 -5.4555863423891965e-04
-6.3999999999999932e+00 +9.0991847596844568e+00 +0.0000000000000000e+00 -6.3999995339319895e+00 +3.3273095269301884e-03 -6.1911366036652433e-02 -5.4554393422743316e-04
-6.4999999999999929e+00 +9.0991181417064215e+00 +0.0000000000000000e+00 -6.4999995117417679e+00 +3.3273131853357300e-03 -6.1911379160957396e-02 -5.4552951960781272e-04
-6.5999999999999925e+00 +9.0990504908800940e+00 +0.0000000000000000e+00 -6.5999994888581490e+00 +3.3273174241212401e-03 -6.1911392331513139e-02 -5.4551546388356773e-04
-6.6999999999999922e+00 +9.0989818072052628e+00 +0.0000000000000000e+00 -6.6999994652704657e+00 +3.3273221109941234e-03 -6.1911405633352207e-02 -5.4550184054835184e-04
-6.7999999999999918e+00 +9.0989120906817131e+00 +0.0000000000000000e+00 -6.7999994409680502e+00 +3.3273271136472649e-03 -6.1911419151532254e-02 -5.4548872308555888e-04
-6.8999999999999915e+00 +9.0988413413092246e+00 +0.0000000000000000e+00 -6.8999994159402345e+00 +3.3273322997581767e-03 -6.1911432971136895e-02 -5.4547618496791699e-04
-6.9999999999999911e+00 +9.0987695590875770e+00 +0.0000000000000000e+00 -6.9999993901763498e+00 +3.3273375369881303e-03 -6.1911447177276605e-02 -5.4546429965708350e-04
-7.0999999999999908e+00 +9.0986967440165394e+00 +0.0000000000000000e+00 -7.0999993636657290e+00 +3.3273426929812978e-03 -6.1911461855089646e-02 -5.4545314060323955e-04
-7.1999999999999904e+00 +9.0986228960958737e+00 +0.0000000000000000e+00 -7.1999993363977035e+00 +3.3273476353638887e-03 -6.1911477089742935e-02 -5.4544278124468205e-04
-7.2999999999999901e+00 +9.0985480153253349e+00 +0.0000000000000000e+00 -7.2999993083616062e+00 +3.3273522317432956e-03 -6.1911492966433106e-02 -5.4543329500741976e-04
-7.3999999999999897e+00 +9.0984721017046652e+00 +0.0000000000000000e+00 -7.3999992795467682e+00 +3.3273563497072216e-03 -6.1911509570387206e-02 -5.4542475530476586e-04
-7.4999999999999893e+00 +9.0983951552335967e+00 +0.0000000000000000e+00 -7.4999992499425225e+00 +3.3273598568228269e-03 -6.1911526986863710e-02 -5.4541723553693184e-04
-7.5999999999999890e+00 +9.0983171759118466e+00 +0.0000000000000000e+00 -7.5999992195382005e+00 +3.3273626206358699e-03 -6.1911545301153476e-02 -5.4541080909062032e-04
-7.6999999999999886e+00 +9.0982381637391168e+00 +0.0000000000000000e+00 -7.6999991883231340e+00 +3.3273645086698373e-03 -6.1911564598580576e-02 -5.4540554933861919e-04
-7.7999999999999883e+00 +9.0981581187150944e+00 +0.0000000000000000e+00 -7.7999991562866553e+00 +3.3273653884250899e-03 -6.1911584964503177e-02 -5.4540152963939326e-04
-7.8999999999999879e+00 +9.0980770408394473e+00 +0.0000000000000000e+00 -7.8999991234180955e+00 +3.3273651273780032e-03 -6.1911606484314624e-02 -5.4539882333667791e-04
-7.9999999999999876e+00 +9.0979949301118257e+00 +0.0000000000000000e+00 -7.9999990897067876e+00 +3.3273635929800972e-03 -6.1911629243444129e-02 -5.4539750375907155e-04
-8.0999999999999872e+00 +9.0979117865318582e+00 +0.0000000000000000e+00 -8.0999990551420620e+00 +3.3273606736562433e-03 -6.1911653290401360e-02 -5.4539761333275501e-04
-8.1999999999999869e+00 +9.0978276100991522e+00 +0.0000000000000000e+00 -8.1999990197132515e+00 +3.3273563418022962e-03 -6.1911678525889108e-02 -5.4539907092983960e-04
-8.2999999999999865e+00 +9.0977424008132974e+00 +0.0000000000000000e+00 -8.2999989834096883e+00 +3.3273505907841362e-03 -6.1911704813649063e-02 -5.4540176455310490e-04
-8.3999999999999861e+00 +9.0976561586738622e+00 +0.0000000000000000e+00 -8.3999989462207036e+00 +3.3273434139362659e-03 -6.1911732017416093e-02 -5.4540558222845696e-04
-8.4999999999999858e+00 +9.0975688836804043e+00 +0.0000000000000000e+00 -8.4999989081356286e+00 +3.3273348045608679e-03 -6.1911760000918026e-02 -5.4541041200570177e-04
-8.5999999999999854e+00 +9.0974805758324653e+00 +0.0000000000000000e+00 -8.5999988691437963e+00 +3.3273247559268428e-03 -6.1911788627874879e-02 -5.4541614195931611e-04
-8.6999999999999851e+00 +9.0973912351295780e+00 +0.0000000000000000e+00 -8.6999988292345378e+00 +3.3273132612688708e-03 -6.1911817761998687e-02 -5.4542266018922062e-04
-8.7999999999999847e+00 +9.0973008615712665e+00 +0.0000000000000000e+00 -8.7999987883971844e+00 +3.3273003137864556e-03 -6.1911847266992892e-02 -5.4542985482155333e-04
-8.8999999999999844e+00 +9.0972094551570475e+00 +0.0000000000000000e+00 -8.8999987466210690e+00 +3.3272859066429709e-03 -6.1911877006552006e-02 -5.4543761400943993e-04
-8.9999999999999840e+00 +9.0971170158864343e+00 +0.0000000000000000e+00 -8.9999987038955211e+00 +3.3272700329647215e-03 -6.1911906844361049e-02 -5.4544582593377079e-04
-9.0999999999999837e+00 +9.0970235437589402e+00 +0.0000000000000000e+00 -9.0999986602098737e+00 +3.3272526858399805e-03 -6.1911936644095181e-02 -5.4545437880397171e-04
-9.1999999999999833e+00 +9.0969290387740767e+00 +0.0000000000000000e+00 -9.1999986155534579e+00 +3.3272338583180466e-03 -6.1911966269419194e-02 -5.4546316085877882e-04
-9.2999999999999829e+00 +9.0968335009313606e+00 +0.0000000000000000e+00 -9.2999985699156067e+00 +3.3272135434082961e-03 -6.1911995583987189e-02 -5.4547206036701431e-04
-9.3999999999999826e+00 +9.0967369302303140e+00 +0.0000000000000000e+00 -9.3999985232856496e+00 +3.3271917340792281e-03 -6.1912024451441963e-02 -5.4548096562835797e-04
-9.4999999999999822e+00 +9.0966393266704664e+00 +0.0000000000000000e+00 -9.4999984756529194e+00 +3.3271684232575173e-03 -6.1912052735414627e-02 -5.4548976497412465e-04
-9.5999999999999819e+00 +9.0965406902513539e+00 +0.0000000000000000e+00 -9.5999984270067475e+00 +3.3271436038270681e-03 -6.1912080299524247e-02 -5.4549834676803903e-04
-9.6999999999999815e+00 +9.0964410209725290e+00 +0.0000000000000000e+00 -9.6999983773364651e+00 +3.3271172686280609e-03 -6.1912107007377204e-02 -5.4550659940700999e-04
-9.7999999999999812e+00 +9.0963403188335583e+00 +0.0000000000000000e+00 -9.7999983266314032e+00 +3.3270894104560026e-03 -6.1912132722567015e-02 -5.4551441132190826e-04
-9.8999999999999808e+00 +9.0962385838340225e+00 +0.0000000000000000e+00 -9.8999982748808950e+00 +3.3270600220607822e-03 -6.1912157308673617e-02 -5.4552167097834177e-04
-9.9999999999999805e+00 +9.0961358159735219e+00 +0.0000000000000000e+00 -9.9999982220742716e+00 +3.3270290961457177e-03 -6.1912180629263090e-02 -5.4552826687743257e-04
-1.0099999999999980e+01 +9.0960320152516783e+00 +0.0000000000000000e+00 -1.0099998168200862e+01 +3.3269966507228684e-03 -6.1912202613273806e-02 -5.4553411000498589e-04
-1.0199999999999980e+01 +9.0959271816681362e+00 +0.0000000000000000e+00 -1.0199998113250002e+01 +3.3269628052059051e-03 -6.1912223451163782e-02 -5.4553920115961939e-04
-1.0299999999999979e+01 +9.0958213152225600e+00 +0.0000000000000000e+00 -1.0299998057211020e+01 +3.3269277043727129e-03 -6.1912243398696380e-02 -5.4554356356563405e-04
-1.0399999999999979e+01 +9.0957144159146264e+00 +0.0000000000000000e+00 -1.0399998000073250e+01 +3.3268914930117636e-03 -6.1912262711537935e-02 -5.4554722041575841e-04
-1.0499999999999979e+01 +9.0956064837440245e+00 +0.0000000000000000e+00 -1.0499997941826020e+01 +3.3268543159226094e-03 -6.1912281645255224e-02 -5.4555019487024972e-04
-1.0599999999999978e+01 +9.0954975187104505e+00 +0.0000000000000000e+00 -1.0599997882458666e+01 +3.3268163179163797e-03 -6.1912300455313131e-02 -5.4555251005599390e-04
-1.0699999999999978e+01 +9.0953875208136008e+00 +0.0000000000000000e+00 -1.0699997821960517e+01 +3.3267776438162789e-03 -6.1912319397072285e-02 -5.4555418906560829e-04
-1.0799999999999978e+01 +9.0952764900531715e+00 +0.0000000000000000e+00 -1.0799997760320904e+01 +3.3267384384580725e-03 -6.1912338725786602e-02 -5.4555525495654186e-04
-1.0899999999999977e+01 +9.0951644264288500e+00 +0.0000000000000000e+00 -1.0899997697529161e+01 +3.3266988466905930e-03 -6.1912358696600805e-02 -5.4555573075017595e-04
-1.0999999999999977e+01 +9.0950513299403166e+00 +0.0000000000000000e+00 -1.0999997633574617e+01 +3.3266590133762251e-03 -6.1912379564548280e-02 -5.4555563943092811e-04
-1.1099999999999977e+01 +9.0949372005872338e+00 +0.0000000000000000e+00 -1.1099997568446605e+01 +3.3266190833914034e-03 -6.1912401584548367e-02 -5.4555500394534988e-04
-1.1199999999999976e+01 +9.0948220383692480e+00 +0.0000000000000000e+00 -1.1199997502134456e+01 +3.3265792016271066e-03 -6.1912425011404162e-02 -5.4555384720123153e-04
-1.1299999999999976e+01 +9.0947058432859773e+00 +0.0000000000000000e+00 -1.1299997434627501e+01 +3.3265395129893475e-03 -6.1912450099800009e-02 -5.4555219206670080e-04
-1.1399999999999975e+01 +9.0945886153370186e+00 +0.0000000000000000e+00 -1.1399997365915073e+01 +3.3265001623996688e-03 -6.1912477104299174e-02 -5.4555006136932640e-04
-1.1499999999999975e+01 +9.0944703545219312e+00 +0.0000000000000000e+00 -1.1499997295986502e+01 +3.3264612947956351e-03 -6.1912506279341327e-02 -5.4554747789521945e-04
-1.1599999999999975e+01 +9.0943510608402409e+00 +0.0000000000000000e+00 -1.1599997224831119e+01 +3.3264230551313229e-03 -6.1912537879240268e-02 -5.4554446438813355e-04
-1.1699999999999974e+01 +9.0942307342914326e+00 +0.0000000000000000e+00 -1.1699997152438257e+01 +3.3263855883778168e-03 -6.1912572158181446e-02 -5.4554104354856880e-04
