# multipoles
# s[mm] polynom_b[n=0][T/m^n] polynom_b[n=1][T/m^n] polynom_b[n=2][T/m^n] polynom_b[n=3][T/m^n] polynom_b[n=4][T/m^n] polynom_b[n=5][T/m^n] polynom_b[n=6][T/m^n] 
+0.0000000000000000e+00 -6.1909944932736875e-02 +1.3810483899010736e-01 +1.1530499149064339e+00 +9.1260034514738528e+00 +9.6020793692149709e+02 -3.4447205143971196e+03 -2.3944415887410310e+06 
-1.0000000000000001e-01 -6.1909980120435401e-02 +1.3810494735775547e-01 +1.1532163810824099e+00 +9.1439931467599038e+00 +9.5679168068673880e+02 -3.6071560120821764e+03 -2.3685328967093509e+06 
-2.0000000000000001e-01 -6.1910014411513142e-02 +1.3810512074324655e-01 +1.1533935123125112e+00 +9.1697826039627390e+00 +9.5336952047725447e+02 -3.8253363413800594e+03 -2.3425846443761052e+06 
-3.0000000000000004e-01 -6.1910047853403656e-02 +1.3810536028451731e-01 +1.1535783887964013e+00 +9.2024216343648941e+00 +9.4995666231074119e+02 -4.0924480521145356e+03 -2.3166188967380356e+06 
-4.0000000000000002e-01 -6.1910080493536218e-02 +1.3810566711978101e-01 +1.1537680900615301e+00 +9.2409600343243046e+00 +9.4656832421287220e+02 -4.4016775830362649e+03 -2.2906577702381555e+06 
-5.0000000000000000e-01 -6.1910112379342602e-02 +1.3810604238802479e-01 +1.1539596957721245e+00 +9.2844475714785428e+00 +9.4321972126342757e+02 -4.7462111835555770e+03 -2.2647233633172610e+06 
-5.9999999999999998e-01 -6.1910143558256435e-02 +1.3810648722819016e-01 +1.1541502857909631e+00 +9.3319340118103078e+00 +9.3992606389431444e+02 -5.1192350819403318e+03 -2.2388377477523978e+06 
-6.9999999999999996e-01 -6.1910174077710066e-02 +1.3810700277988805e-01 +1.1543369397425212e+00 +9.3824690987036075e+00 +9.3670256647760596e+02 -5.5139353634918152e+03 -2.2130230105621843e+06 
-7.9999999999999993e-01 -6.1910203985138412e-02 +1.3810759018326615e-01 +1.1545167375824315e+00 +9.4351025600803844e+00 +9.3356443640718976e+02 -5.9234980215224041e+03 -2.1873012028489439e+06 
-8.9999999999999991e-01 -6.1910233327978022e-02 +1.3810825057870860e-01 +1.1546867595477919e+00 +9.4888841181047514e+00 +9.3052687465709198e+02 -6.3411090183881488e+03 -2.1616943417641548e+06 
-9.9999999999999989e-01 -6.1910262153666303e-02 +1.3810898510728420e-01 +1.1548440860043951e+00 +9.5428634772706680e+00 +9.2760507937891612e+02 -6.7599542189835875e+03 -2.1362244302727194e+06 
-1.0999999999999999e+00 -6.1910290509643799e-02 +1.3810979491031813e-01 +1.1549857978652660e+00 +9.5960903402178168e+00 +9.2481423729030507e+02 -7.1732194938744697e+03 -2.1109134150030464e+06 
-1.2000000000000000e+00 -6.1910318443352000e-02 +1.3811068112987135e-01 +1.1551089763386495e+00 +9.6476143934242096e+00 +9.2216952863526024e+02 -7.5740906353430855e+03 -2.0857832110494215e+06 
-1.3000000000000000e+00 -6.1910346002235474e-02 +1.3811164490835093e-01 +1.1552107031672088e+00 +9.6964853220921210e+00 +9.1968612300711698e+02 -7.9557534549265756e+03 -2.0608556836526606e+06 
-1.4000000000000001e+00 -6.1910373233741670e-02 +1.3811268738873755e-01 +1.1552880607468707e+00 +9.7417528040349008e+00 +9.1737917623674912e+02 -8.3113937497741299e+03 -2.0361526316148429e+06 
-1.5000000000000002e+00 -6.1910400185320430e-02 +1.3811380971446979e-01 +1.1553381320349008e+00 +9.7824665149487302e+00 +9.1526383294904065e+02 -8.6341973401214200e+03 -2.0116958026751282e+06 
-1.6000000000000003e+00 -6.1910426904424859e-02 +1.3811501302960369e-01 +1.1553580007275126e+00 +9.8176761258519836e+00 +9.1335522255603883e+02 -8.9173500599817089e+03 -1.9875068729070199e+06 
-1.7000000000000004e+00 -6.1910453438510378e-02 +1.3811629847867032e-01 +1.1553447511680617e+00 +9.8464313085983761e+00 +9.1166846134019875e+02 -9.1540377948355053e+03 -1.9636074585172308e+06 
-1.8000000000000005e+00 -6.1910479835039077e-02 +1.3811766720681989e-01 +1.1552954689462893e+00 +9.8677817333743931e+00 +9.1021864099455308e+02 -9.3374464722603134e+03 -1.9400190617686147e+06 
-1.9000000000000006e+00 -6.1910506141473601e-02 +1.3811912035997292e-01 +1.1552072401775655e+00 +9.8807770659207748e+00 +9.0902084201571586e+02 -9.4607620506702351e+03 -1.9167631343346548e+06 
-2.0000000000000004e+00 -6.1910532405281798e-02 +1.3812065908407326e-01 +1.1550771520719798e+00 +9.8844669926510829e+00 +9.0809012346546774e+02 -9.5171706741085036e+03 -1.8938610307387938e+06 
-2.1000000000000005e+00 -6.1910558667294162e-02 +1.3812228370753571e-01 +1.1549039903299374e+00 +9.8781547275781261e+00 +9.0742430984879695e+02 -9.5016874615475081e+03 -1.8712889795943841e+06 
-2.2000000000000006e+00 -6.1910584939840092e-02 +1.3812399080285190e-01 +1.1546930779593532e+00 +9.8621352809320566e+00 +9.0695171715820436e+02 -9.4164952488458603e+03 -1.8488257491724528e+06 
-2.3000000000000007e+00 -6.1910611227650562e-02 +1.3812577587232794e-01 +1.1544513114421857e+00 +9.8369468582736115e+00 +9.0658312200649982e+02 -9.2655372596418201e+03 -1.8261964662924826e+06 
-2.4000000000000008e+00 -6.1910637535458404e-02 +1.3812763441696405e-01 +1.1541855874829730e+00 +9.8031277142730815e+00 +9.0622929699773215e+02 -9.0527570271348141e+03 -1.8031262396098804e+06 
-2.5000000000000009e+00 -6.1910663867995715e-02 +1.3812956193549764e-01 +1.1539028027556388e+00 +9.7612161838691947e+00 +9.0580101514551700e+02 -8.7820985840069588e+03 -1.7793401795928597e+06 
-2.6000000000000010e+00 -6.1910690229994014e-02 +1.3813155392518886e-01 +1.1536098537717339e+00 +9.7117506564681140e+00 +9.0520905338040131e+02 -8.4575063023216408e+03 -1.7545634176489473e+06 
-2.7000000000000011e+00 -6.1910716626184428e-02 +1.3813360588073179e-01 +1.1533136369592965e+00 +9.6552696103324234e+00 +9.0436419043129638e+02 -8.0829251007401390e+03 -1.7285210939482143e+06 
-2.8000000000000012e+00 -6.1910743061296507e-02 +1.3813571329454427e-01 +1.1530210484792531e+00 +9.5923116028528810e+00 +9.0317721070813025e+02 -7.6623003824990938e+03 -1.7009383770329650e+06 
-2.9000000000000012e+00 -6.1910769540060535e-02 +1.3813787165645541e-01 +1.1527389845118654e+00 +9.5234152812176305e+00 +9.0155889885898068e+02 -7.1995781019190772e+03 -1.6715404375456972e+06 
-3.0000000000000013e+00 -6.1910796067204080e-02 +1.3814007645361828e-01 +1.1524743407294464e+00 +9.4491193836249128e+00 +8.9942005003750580e+02 -6.6987047656484528e+03 -1.6400524973589783e+06 
-3.1000000000000014e+00 -6.1910822647451444e-02 +1.3814232316993422e-01 +1.1522340122842383e+00 +9.3699627579016660e+00 +8.9667147021194137e+02 -6.1636275462516160e+03 -1.6061998313581692e+06 
-3.2000000000000015e+00 -6.1910849285528063e-02 +1.3814460728628428e-01 +1.1520248942968476e+00 +9.2864843539902431e+00 +8.9322396681228690e+02 -5.5982942344158364e+03 -1.5697077222241580e+06 
-3.3000000000000016e+00 -6.1910875986156223e-02 +1.3814692427994571e-01 +1.1518538813260413e+00 +9.1992232421608389e+00 +8.8898835893066916e+02 -5.0066533480962671e+03 -1.5303015092139489e+06 
-3.4000000000000017e+00 -6.1910902754054982e-02 +1.3814926962458704e-01 +1.1517278672855931e+00 +9.1087186119048269e+00 +8.8387547931745439e+02 -4.3926541209162078e+03 -1.4877065984645246e+06 
-3.5000000000000018e+00 -6.1910929593941399e-02 +1.3815163879016296e-01 +1.1516537456356870e+00 +9.0155097772616610e+00 +8.7779617044270799e+02 -3.7602465390328102e+03 -1.4416484433866302e+06 
-3.6000000000000019e+00 -6.1910956510529934e-02 +1.3815402724241804e-01 +1.1516384092365382e+00 +8.9201361892095292e+00 +8.7066128761571906e+02 -3.1133814062746123e+03 -1.3918525598592027e+06 
-3.7000000000000020e+00 -6.1910983508529534e-02 +1.3815643044282758e-01 +1.1516887499896173e+00 +8.8231374406223200e+00 +8.6238170589361584e+02 -2.4560103809304378e+03 -1.3380445594740529e+06 
-3.8000000000000020e+00 -6.1911010592649925e-02 +1.3815884384853397e-01 +1.1518116595938033e+00 +8.7250532650958235e+00 +8.5286830567692846e+02 -1.7920859593309085e+03 -1.2799500804128414e+06 
-3.9000000000000021e+00 -6.1911037767592769e-02 +1.3816126291202283e-01 +1.1520140284230915e+00 +8.6264235491681980e+00 +8.4203199425733771e+02 -1.1255615544699606e+03 -1.2172948904732564e+06 
-4.0000000000000018e+00 -6.1911065038059078e-02 +1.3816368308044485e-01 +1.1523027463894568e+00 +8.5277883485464105e+00 +8.2978368942387056e+02 -4.6039157625388253e+02 -1.1498048082878571e+06 
-4.1000000000000014e+00 -6.1911092404119239e-02 +1.3816610038554952e-01 +1.1526820592208691e+00 +8.4296236798887545e+00 +8.1607798793369420e+02 +1.9989759175996039e+02 -1.0773727013853460e+06 
-4.2000000000000011e+00 -6.1911119851042744e-02 +1.3816851513929654e-01 +1.1531461227684623e+00 +8.3321470342212951e+00 +8.0103669318588993e+02 +8.5330772685959982e+02 -1.0005267360987799e+06 
-4.3000000000000007e+00 -6.1911147361188017e-02 +1.3817092919374771e-01 +1.1536866659404068e+00 +8.2355108647906530e+00 +7.8482195303240587e+02 +1.4981749882999407e+03 -9.1994716005399416e+05 
-4.4000000000000004e+00 -6.1911174916909277e-02 +1.3817334440362061e-01 +1.1542954167566941e+00 +8.1398675166025054e+00 +7.6759593575899919e+02 +2.1328362641800131e+03 -8.3631432620756526e+05 
-4.5000000000000000e+00 -6.1911202500560578e-02 +1.3817576262624121e-01 +1.1549641028883917e+00 +8.0453692246079722e+00 +7.4952081991839930e+02 +2.7556291997230319e+03 -7.5030864564440644e+05 
-4.5999999999999996e+00 -6.1911230094488880e-02 +1.3817818572139162e-01 +1.1556844507494513e+00 +7.9521681141214851e+00 +7.3075881183236652e+02 +3.3648922074942066e+03 -6.6261067141193268e+05 
-4.6999999999999993e+00 -6.1911257681038362e-02 +1.3818061555239911e-01 +1.1564481859893914e+00 +7.8604161674574646e+00 +7.1147213675162857e+02 +3.9589646666045751e+03 -5.7390105800532014e+05 
-4.7999999999999989e+00 -6.1911285242551149e-02 +1.3818305398565214e-01 +1.1572470336261200e+00 +7.7702652359482896e+00 +6.9182303586792955e+02 +4.5361868589663045e+03 -4.8486054560343333e+05 
-4.8999999999999986e+00 -6.1911312761362913e-02 +1.3818550289112444e-01 +1.1580727174299990e+00 +7.6818670206852611e+00 +6.7197377880408521e+02 +5.0949000938771687e+03 -3.9617002182463027e+05 
-4.9999999999999982e+00 -6.1911340219807508e-02 +1.3818796414275825e-01 +1.1589169605195149e+00 +7.5953730602979199e+00 +6.5208665202278780e+02 +5.6334467821244716e+03 -3.0851046573689103e+05 
-5.0999999999999979e+00 -6.1911367600212042e-02 +1.3819043961834959e-01 +1.1597714847023306e+00 +7.5109347307286596e+00 +6.3232397188985112e+02 +6.1501704482942996e+03 -2.2256301147411074e+05 
-5.1999999999999975e+00 -6.1911394884903236e-02 +1.3819293119998916e-01 +1.1606280112866734e+00 +7.4287032302980176e+00 +6.1284806908260862e+02 +6.6434158241366822e+03 -1.3900887340171772e+05 
-5.2999999999999972e+00 -6.1911422056198234e-02 +1.3819544077452117e-01 +1.1614782598661271e+00 +7.3488295648947064e+00 +5.9382131215341053e+02 +7.1115289392864952e+03 -5.8529459702163804e+04 
-5.3999999999999968e+00 -6.1911449096415168e-02 +1.3819797023317676e-01 +1.1623139496839954e+00 +7.2714645537589728e+00 +5.7540608163387969e+02 +7.5528571022936521e+03 +1.8193750807397384e+04 
-5.4999999999999964e+00 -6.1911475987860308e-02 +1.3820052147264650e-01 +1.1631267979320403e+00 +7.1967587974367673e+00 +5.5776480274012908e+02 +7.9657490900017201e+03 +9.0479052362685048e+04 
-5.5999999999999961e+00 -6.1911502712841238e-02 +1.3820309639453143e-01 +1.1639085214728930e+00 +7.1248626913384756e+00 +5.4105991237550097e+02 +8.3485550758672325e+03 +1.5764466963619195e+05 
-5.6999999999999957e+00 -6.1911529253657907e-02 +1.3820569690592149e-01 +1.1646508356162921e+00 +7.0559264056100979e+00 +5.2545388310441490e+02 +8.6996267569925894e+03 +2.1900864195828623e+05 
-5.7999999999999954e+00 -6.1911555592604903e-02 +1.3820832492000598e-01 +1.1653454544550639e+00 +6.9900998643956287e+00 +5.1110921657746508e+02 +9.0173174842993703e+03 +2.7388885506864922e+05 
-5.8999999999999950e+00 -6.1911581711969206e-02 +1.3821098235557996e-01 +1.1659840905124519e+00 +6.9275327597507212e+00 +4.9818845070499231e+02 +9.2999821826186253e+03 +3.2160300573229633e+05 
-5.9999999999999947e+00 -6.1911607594037535e-02 +1.3821367113813515e-01 +1.1665584557423756e+00 +6.8683745072606319e+00 +4.8685413908319919e+02 +9.5459776428570876e+03 +3.6146870462242630e+05 
-6.0999999999999943e+00 -6.1911633227860190e-02 +1.3821638868550820e-01 +1.1670616203350241e+00 +6.8127930882822696e+00 +4.7723640228060094e+02 +9.7539430967624139e+03 +3.9296348547722935e+05 
-6.1999999999999940e+00 -6.1911658631434219e-02 +1.3821911172176160e-01 +1.1674927188660107e+00 +6.7611171433680823e+00 +4.6932789278346644e+02 +9.9232618926223895e+03 +4.1621478032287915e+05 
-6.2999999999999936e+00 -6.1911683830599980e-02 +1.3822181112613052e-01 +1.1678525910076583e+00 +6.7137349949710696e+00 +4.6308420457455804e+02 +1.0053431444442582e+04 +4.3151848503641313e+05 
-6.3999999999999932e+00 -6.1911708851191898e-02 +1.3822445777906647e-01 +1.1681420764081456e+00 +6.6710349296476350e+00 +4.5846092479605153e+02 +1.0143949375510525e+04 +4.3917054152309953e+05 
-6.4999999999999929e+00 -6.1911733719039547e-02 +1.3822702256265973e-01 +1.1683620149060558e+00 +6.6334051957427462e+00 +4.5541362820520749e+02 +1.0194313446031270e+04 +4.3946697398619872e+05 
-6.5999999999999925e+00 -6.1911758459967214e-02 +1.3822947635998825e-01 +1.1685132464151691e+00 +6.6012340200653092e+00 +4.5389788006618426e+02 +1.0204021459220454e+04 +4.3270387261710427e+05 
-6.6999999999999922e+00 -6.1911783099792603e-02 +1.3823179005572228e-01 +1.1685966108905663e+00 +6.5749095943347671e+00 +4.5386923521966327e+02 +1.0172571327018524e+04 +4.1917740281747666e+05 
-6.7999999999999918e+00 -6.1911807664330097e-02 +1.3823393453598876e-01 +1.1686129486670700e+00 +6.5548200778412378e+00 +4.5528323246659346e+02 +1.0099461054417505e+04 +3.9918382926885114e+05 
-6.8999999999999915e+00 -6.1911832179384625e-02 +1.3823588068830461e-01 +1.1685630998420748e+00 +6.5413536015508882e+00 +4.5809540489758149e+02 +9.9841887072778500e+03 +3.7301947071910085e+05 
-6.9999999999999911e+00 -6.1911856670759775e-02 +1.3823759940177291e-01 +1.1684479052251915e+00 +6.5348982628094108e+00 +4.6226126205966034e+02 +9.8262524389373702e+03 +3.4098078426533513e+05 
-7.0999999999999908e+00 -6.1911881164248436e-02 +1.3823906156670607e-01 +1.1682682052859970e+00 +6.5358421376567941e+00 +4.6773630920718517e+02 +9.6251504117043205e+03 +3.0336427555997937e+05 
-7.1999999999999904e+00 -6.1911905685641137e-02 +1.3824023807519703e-01 +1.1680248411696641e+00 +6.5445732643649688e+00 +4.7447602780145633e+02 +9.3803808901004104e+03 +2.6046659234290489e+05 
-7.2999999999999901e+00 -6.1911930260719339e-02 +1.3824109982058619e-01 +1.1677186539501945e+00 +6.5614796607316634e+00 +4.8243588922989886e+02 +9.0914421315305244e+03 +2.1258446010259251e+05 
-7.3999999999999897e+00 -6.1911954915260643e-02 +1.3824161769802160e-01 +1.1673504852624512e+00 +6.5869493089807634e+00 +4.9157134237960787e+02 +8.7578324686231990e+03 +1.6001474261843049e+05 
-7.4999999999999893e+00 -6.1911979675034111e-02 +1.3824176260400275e-01 +1.1669211768087140e+00 +6.6213701683281476e+00 +5.0183782266944638e+02 +8.3790502349189519e+03 +1.0305439960251351e+05 
-7.5999999999999890e+00 -6.1912004565805229e-02 +1.3824150543673311e-01 +1.1664315709483748e+00 +6.6651301676860877e+00 +5.1319074049948779e+02 +7.9545937962294820e+03 +4.2000542754272385e+04 
-7.6999999999999886e+00 -6.1912029613327695e-02 +1.3824081709575342e-01 +1.1658825097810388e+00 +6.7186172161136453e+00 +5.2558549812369472e+02 +7.4839614876836122e+03 -2.2849643213719341e+04 
-7.7999999999999883e+00 -6.1912054843353229e-02 +1.3823966848236674e-01 +1.1652748363638359e+00 +6.7822191912670151e+00 +5.3897746614700202e+02 +6.9666516758711314e+03 -9.1198787641366493e+04 
-7.8999999999999879e+00 -6.1912080281624232e-02 +1.3823803049960837e-01 +1.1646093938253772e+00 +6.8563239424576929e+00 +5.5332200015160709e+02 +6.4021627317822567e+03 -1.6274941256675043e+05 
-7.9999999999999876e+00 -6.1912105953878763e-02 +1.3823587405224064e-01 +1.1638870261901917e+00 +6.9413193174752301e+00 +5.6857442653024054e+02 +5.7899927322814583e+03 -2.3720387818350672e+05 
-8.0999999999999872e+00 -6.1912131875590297e-02 +1.3823318321829636e-01 +1.1631095466719954e+00 +7.0373577024401683e+00 +5.8467871327440253e+02 +5.1304919411627079e+03 -3.1424981018395495e+05 
-8.1999999999999869e+00 -6.1912158017720521e-02 +1.3822999380160547e-01 +1.1622808591457399e+00 +7.1435708199109635e+00 +6.0156779889159554e+02 +4.4281924150028717e+03 -3.9366038868033024e+05 
-8.2999999999999865e+00 -6.1912184339558619e-02 +1.3822635450638057e-01 +1.1614049925987942e+00 +7.2588117929574762e+00 +6.1918004854221829e+02 +3.6888704237408429e+03 -4.7526635142821312e+05 
-8.3999999999999861e+00 -6.1912210800410455e-02 +1.3822231403157886e-01 +1.1604859775306360e+00 +7.3819339338690169e+00 +6.3745380691207072e+02 +2.9183009995146281e+03 -5.5889836377607414e+05 
-8.4999999999999858e+00 -6.1912237359599644e-02 +1.3821792107026792e-01 +1.1595278461545477e+00 +7.5117907724750506e+00 +6.5632739263215353e+02 +2.1222577854345427e+03 -6.4438698988633102e+05 
-8.5999999999999854e+00 -6.1912263976470740e-02 +1.3821322430892818e-01 +1.1585346327444046e+00 +7.6472360798377581e+00 +6.7573909194260796e+02 +1.3065128878894116e+03 -7.3156266325161036e+05 
-8.6999999999999851e+00 -6.1912290610384293e-02 +1.3820827242767547e-01 +1.1575103730368597e+00 +7.7871238625052950e+00 +6.9562717026350811e+02 +4.7683690912403512e+02 -8.2025574268097756e+05 
-8.7999999999999847e+00 -6.1912317220725654e-02 +1.3820311410011468e-01 +1.1564591052813624e+00 +7.9303083676387249e+00 +7.1592985243447993e+02 -3.6100108407595889e+02 -9.1029641862185101e+05 
-8.8999999999999844e+00 -6.1912343766897394e-02 +1.3819779799257653e-01 +1.1553848692880784e+00 +8.0756441081597483e+00 +7.3658534114702286e+02 -1.2012337148900951e+03 -1.0015148021885616e+06 
-8.9999999999999840e+00 -6.1912370208323977e-02 +1.3819237276444299e-01 +1.1542917070084395e+00 +8.2219858539420816e+00 +7.5753180595630488e+02 -2.0380952463370277e+03 -1.0937408730616821e+06 
-9.0999999999999837e+00 -6.1912396504452807e-02 +1.3818688706792537e-01 +1.1531836625933281e+00 +8.3681886394670872e+00 +7.7870738284102788e+02 -2.8658216281105997e+03 -1.1868044792897566e+06 
-9.1999999999999833e+00 -6.1912422614753986e-02 +1.3818138954739670e-01 +1.1520647823896863e+00 +8.5131077861787574e+00 +8.0005017411569122e+02 -3.6786506346824140e+03 -1.2805353366077049e+06 
-9.2999999999999829e+00 -6.1912448498719547e-02 +1.3817592883964386e-01 +1.1509391148275514e+00 +8.6555988948752773e+00 +8.2149825085039470e+02 -4.4708218192568538e+03 -1.3747630408540932e+06 
-9.3999999999999826e+00 -6.1912474115865007e-02 +1.3817055357348285e-01 +1.1498107105356823e+00 +8.7945178601388285e+00 +8.4298965132446438e+02 -5.2365766064553645e+03 -1.4693170624775426e+06 
-9.4999999999999822e+00 -6.1912499425732591e-02 +1.3816531236971327e-01 +1.1486836228006445e+00 +8.9287208714445985e+00 +8.6446237198999563e+02 -5.9701582973175873e+03 -1.5640267029054342e+06 
-9.5999999999999819e+00 -6.1912524387888052e-02 +1.3816025384052008e-01 +1.1475619071027066e+00 +9.0570644331475005e+00 +8.8585437690785466e+02 -6.6658121922605114e+03 -1.6587211411287156e+06 
-9.6999999999999815e+00 -6.1912548961923622e-02 +1.3815542658975025e-01 +1.1464496214547435e+00 +9.1784053588751959e+00 +9.0710359157009816e+02 -7.3177855646544813e+03 -1.7532294052831982e+06 
-9.7999999999999812e+00 -6.1912573107455904e-02 +1.3815087921221855e-01 +1.1453508261596894e+00 +9.2916007904806754e+00 +9.2814790749879546e+02 -7.9203277667880966e+03 -1.8473803944931107e+06 
-9.8999999999999808e+00 -6.1912596784130899e-02 +1.3814666029398714e-01 +1.1442695844034838e+00 +9.3955081943726153e+00 +9.4892517131598481e+02 -8.4676902207474104e+03 -1.9410028280428641e+06 
-9.9999999999999805e+00 -6.1912619951615198e-02 +1.3814281841058390e-01 +1.1432099608168336e+00 +9.4889853798579562e+00 +9.6937321078518187e+02 -8.9541263846065376e+03 -2.0339253583098389e+06 
-1.0099999999999980e+01 -6.1912642599208347e-02 +1.3813938894149907e-01 +1.1421760213696404e+00 +9.5711598321298865e+00 +9.8943011666645475e+02 -9.3751680767369980e+03 -2.1259544917939254e+06 
