# trajectory
# s[mm] rx[mm] ry[mm] rz[mm] px[rad] py[rad] pz[rad]
0.0000000000000000e+00 +9.1013000000000002e+00 +0.0000000000000000e+00 +0.0000000000000000e+00 +0.0000000000000000e+00 +0.0000000000000000e+00 +1.0000000000000000e+00
-1.0000000000000001e-01 +9.1012994835895604e+00 +0.0000000000000000e+00 -9.9999999998222136e-02 +1.0328209855271786e-05 +0.0000000000000000e+00 +9.9999999994666400e-01
-2.0000000000000001e-01 +9.1012979343578202e+00 +0.0000000000000000e+00 -1.9999999998577705e-01 +2.0656425974478259e-05 +0.0000000000000000e+00 +9.9999999978665599e-01
-3.0000000000000004e-01 +9.1012953523041578e+00 +0.0000000000000000e+00 -2.9999999995199755e-01 +3.0984648313250002e-05 +0.0000000000000000e+00 +9.9999999951997576e-01
-4.0000000000000002e-01 +9.1012917374279514e+00 +0.0000000000000000e+00 -3.9999999988621643e-01 +4.1312876826036766e-05 +0.0000000000000000e+00 +9.9999999914662308e-01
-5.0000000000000000e-01 +9.1012870897285882e+00 +0.0000000000000000e+00 -4.9999999977776644e-01 +5.1641111466106868e-05 +0.0000000000000000e+00 +9.9999999866659772e-01
-5.9999999999999998e-01 +9.1012814092054555e+00 +0.0000000000000000e+00 -5.9999999961598027e-01 +6.1969352185546530e-05 +0.0000000000000000e+00 +9.9999999807989959e-01
-6.9999999999999996e-01 +9.1012746958579491e+00 +0.0000000000000000e+00 -6.9999999939019064e-01 +7.2297598935259138e-05 +0.0000000000000000e+00 +9.9999999738652845e-01
-7.9999999999999993e-01 +9.1012669496854688e+00 +0.0000000000000000e+00 -7.9999999908973018e-01 +8.2625851664964479e-05 +0.0000000000000000e+00 +9.9999999658648420e-01
-8.9999999999999991e-01 +9.1012581706874194e+00 +0.0000000000000000e+00 -8.9999999870393166e-01 +9.2954110323197861e-05 +0.0000000000000000e+00 +9.9999999567976661e-01
-9.9999999999999989e-01 +9.1012483588632094e+00 +0.0000000000000000e+00 -9.9999999822212771e-01 +1.0328237485730926e-04 +0.0000000000000000e+00 +9.9999999466637546e-01
-1.0999999999999999e+00 +9.1012375142122544e+00 +0.0000000000000000e+00 -1.0999999976336510e+00 +1.1361064521346229e-04 +0.0000000000000000e+00 +9.9999999354631053e-01
-1.2000000000000000e+00 +9.1012256367339752e+00 +0.0000000000000000e+00 -1.1999999969278341e+00 +1.2393892133663321e-04 +0.0000000000000000e+00 +9.9999999231957171e-01
-1.3000000000000000e+00 +9.1012127264277964e+00 +0.0000000000000000e+00 -1.2999999960940096e+00 +1.3426720317060985e-04 +0.0000000000000000e+00 +9.9999999098615888e-01
-1.4000000000000001e+00 +9.1011987832931514e+00 +0.0000000000000000e+00 -1.3999999951215101e+00 +1.4459549065799039e-04 +0.0000000000000000e+00 +9.9999998954607183e-01
-1.5000000000000002e+00 +9.1011838073294786e+00 +0.0000000000000000e+00 -1.4999999939996682e+00 +1.5492378374018224e-04 +0.0000000000000000e+00 +9.9999998799931034e-01
-1.6000000000000003e+00 +9.1011677985362205e+00 +0.0000000000000000e+00 -1.5999999927178163e+00 +1.6525208235740072e-04 +0.0000000000000000e+00 +9.9999998634587439e-01
-1.7000000000000004e+00 +9.1011507569128263e+00 +0.0000000000000000e+00 -1.6999999912652872e+00 +1.7558038644866771e-04 +0.0000000000000000e+00 +9.9999998458576367e-01
-1.8000000000000005e+00 +9.1011326824587506e+00 +0.0000000000000000e+00 -1.7999999896314132e+00 +1.8590869595181030e-04 +0.0000000000000000e+00 +9.9999998271897805e-01
-1.9000000000000006e+00 +9.1011135751734571e+00 +0.0000000000000000e+00 -1.8999999878055269e+00 +1.9623701080345932e-04 +0.0000000000000000e+00 +9.9999998074551744e-01
-2.0000000000000004e+00 +9.1010934350564145e+00 +0.0000000000000000e+00 -1.9999999857769608e+00 +2.0656533093904781e-04 +0.0000000000000000e+00 +9.9999997866538159e-01
-2.1000000000000005e+00 +9.1010722621070954e+00 +0.0000000000000000e+00 -2.0999999835350476e+00 +2.1689365629282617e-04 +0.0000000000000000e+00 +9.9999997647857042e-01
-2.2000000000000006e+00 +9.1010500563249828e+00 +0.0000000000000000e+00 -2.1999999810691193e+00 +2.2722198679804367e-04 +0.0000000000000000e+00 +9.9999997418508380e-01
-2.3000000000000007e+00 +9.1010268177095650e+00 +0.0000000000000000e+00 -2.2999999783685086e+00 +2.3755032238713069e-04 +0.0000000000000000e+00 +9.9999997178492150e-01
-2.4000000000000008e+00 +9.1010025462603377e+00 +0.0000000000000000e+00 -2.3999999754225478e+00 +2.4787866299171490e-04 +0.0000000000000000e+00 +9.9999996927808343e-01
-2.5000000000000009e+00 +9.1009772419768016e+00 +0.0000000000000000e+00 -2.4999999722205692e+00 +2.5820700854262065e-04 +0.0000000000000000e+00 +9.9999996666456947e-01
-2.6000000000000010e+00 +9.1009509048584665e+00 +0.0000000000000000e+00 -2.5999999687519058e+00 +2.6853535896986867e-04 +0.0000000000000000e+00 +9.9999996394437951e-01
-2.7000000000000011e+00 +9.1009235349048474e+00 +0.0000000000000000e+00 -2.6999999650058895e+00 +2.7886371420267559e-04 +0.0000000000000000e+00 +9.9999996111751333e-01
-2.8000000000000012e+00 +9.1008951321154683e+00 +0.0000000000000000e+00 -2.7999999609718524e+00 +2.8919207416945385e-04 +0.0000000000000000e+00 +9.9999995818397092e-01
-2.9000000000000012e+00 +9.1008656964898584e+00 +0.0000000000000000e+00 -2.8999999566391277e+00 +2.9952043879781141e-04 +0.0000000000000000e+00 +9.9999995514375206e-01
-3.0000000000000013e+00 +9.1008352280275560e+00 +0.0000000000000000e+00 -2.9999999519970473e+00 +3.0984880801455147e-04 +0.0000000000000000e+00 +9.9999995199685665e-01
-3.1000000000000014e+00 +9.1008037267281061e+00 +0.0000000000000000e+00 -3.0999999470349433e+00 +3.2017718174567265e-04 +0.0000000000000000e+00 +9.9999994874328457e-01
-3.2000000000000015e+00 +9.1007711925910595e+00 +0.0000000000000000e+00 -3.1999999417421483e+00 +3.3050555991636884e-04 +0.0000000000000000e+00 +9.9999994538303572e-01
-3.3000000000000016e+00 +9.1007376256159773e+00 +0.0000000000000000e+00 -3.2999999361079944e+00 +3.4083394245102929e-04 +0.0000000000000000e+00 +9.9999994191610997e-01
-3.4000000000000017e+00 +9.1007030258024262e+00 +0.0000000000000000e+00 -3.3999999301218140e+00 +3.5116232927323874e-04 +0.0000000000000000e+00 +9.9999993834250722e-01
-3.5000000000000018e+00 +9.1006673931499815e+00 +0.0000000000000000e+00 -3.4999999237729398e+00 +3.6149072030577760e-04 +0.0000000000000000e+00 +9.9999993466222725e-01
-3.6000000000000019e+00 +9.1006307276582277e+00 +0.0000000000000000e+00 -3.5999999170507038e+00 +3.7181911547062223e-04 +0.0000000000000000e+00 +9.9999993087527017e-01
-3.7000000000000020e+00 +9.1005930293267525e+00 +0.0000000000000000e+00 -3.6999999099444381e+00 +3.8214751468894522e-04 +0.0000000000000000e+00 +9.9999992698163576e-01
-3.8000000000000020e+00 +9.1005542981551564e+00 +0.0000000000000000e+00 -3.7999999024434752e+00 +3.9247591788111593e-04 +0.0000000000000000e+00 +9.9999992298132390e-01
-3.9000000000000021e+00 +9.1005145341430467e+00 +0.0000000000000000e+00 -3.8999998945371472e+00 +4.0280432496670083e-04 +0.0000000000000000e+00 +9.9999991887433448e-01
-4.0000000000000018e+00 +9.1004737372900362e+00 +0.0000000000000000e+00 -3.9999998862147863e+00 +4.1313273586446401e-04 +0.0000000000000000e+00 +9.9999991466066751e-01
-4.1000000000000014e+00 +9.1004319075957483e+00 +0.0000000000000000e+00 -4.0999998774657245e+00 +4.2346115049243929e-04 +0.0000000000000000e+00 +9.9999991034032287e-01
-4.2000000000000011e+00 +9.1003890450598153e+00 +0.0000000000000000e+00 -4.1999998682792947e+00 +4.3378956876871622e-04 +0.0000000000000000e+00 +9.9999990591330046e-01
-4.3000000000000007e+00 +9.1003451496818748e+00 +0.0000000000000000e+00 -4.2999998586448287e+00 +4.4411799061222539e-04 +0.0000000000000000e+00 +9.9999990137960026e-01
-4.4000000000000004e+00 +9.1003002214615751e+00 +0.0000000000000000e+00 -4.3999998485516585e+00 +4.5444641594280961e-04 +0.0000000000000000e+00 +9.9999989673922207e-01
-4.5000000000000000e+00 +9.1002542603985717e+00 +0.0000000000000000e+00 -4.4999998379891171e+00 +4.6477484468122340e-04 +0.0000000000000000e+00 +9.9999989199216588e-01
-4.5999999999999996e+00 +9.1002072664925269e+00 +0.0000000000000000e+00 -4.5999998269465356e+00 +4.7510327674913277e-04 +0.0000000000000000e+00 +9.9999988713843169e-01
-4.6999999999999993e+00 +9.1001592397431121e+00 +0.0000000000000000e+00 -4.6999998154132472e+00 +4.8543171206911470e-04 +0.0000000000000000e+00 +9.9999988217801938e-01
-4.7999999999999989e+00 +9.1001101801500059e+00 +0.0000000000000000e+00 -4.7999998033785838e+00 +4.9576015056465670e-04 +0.0000000000000000e+00 +9.9999987711092886e-01
-4.8999999999999986e+00 +9.1000600877128957e+00 +0.0000000000000000e+00 -4.8999997908318775e+00 +5.0608859216015665e-04 +0.0000000000000000e+00 +9.9999987193716011e-01
-4.9999999999999982e+00 +9.1000089624314739e+00 +0.0000000000000000e+00 -4.9999997777624605e+00 +5.1641703678092219e-04 +0.0000000000000000e+00 +9.9999986665671303e-01
-5.0999999999999979e+00 +9.0999568043054424e+00 +0.0000000000000000e+00 -5.0999997641596648e+00 +5.2674548435317043e-04 +0.0000000000000000e+00 +9.9999986126958762e-01
-5.1999999999999975e+00 +9.0999036133345079e+00 +0.0000000000000000e+00 -5.1999997500128226e+00 +5.3707393480402748e-04 +0.0000000000000000e+00 +9.9999985577578376e-01
-5.2999999999999972e+00 +9.0998493895183881e+00 +0.0000000000000000e+00 -5.2999997353112658e+00 +5.4740238806152812e-04 +0.0000000000000000e+00 +9.9999985017530146e-01
-5.3999999999999968e+00 +9.0997941328568039e+00 +0.0000000000000000e+00 -5.3999997200443266e+00 +5.5773084405461547e-04 +0.0000000000000000e+00 +9.9999984446814061e-01
-5.4999999999999964e+00 +9.0997378433494873e+00 +0.0000000000000000e+00 -5.4999997042013380e+00 +5.6805930271314046e-04 +0.0000000000000000e+00 +9.9999983865430120e-01
-5.5999999999999961e+00 +9.0996805209961753e+00 +0.0000000000000000e+00 -5.5999996877716312e+00 +5.7838776396786150e-04 +0.0000000000000000e+00 +9.9999983273378312e-01
-5.6999999999999957e+00 +9.0996221657966103e+00 +0.0000000000000000e+00 -5.6999996707445391e+00 +5.8871622775044413e-04 +0.0000000000000000e+00 +9.9999982670658649e-01
-5.7999999999999954e+00 +9.0995627777505437e+00 +0.0000000000000000e+00 -5.7999996531093929e+00 +5.9904469399346065e-04 +0.0000000000000000e+00 +9.9999982057271108e-01
-5.8999999999999950e+00 +9.0995023568577320e+00 +0.0000000000000000e+00 -5.8999996348555257e+00 +6.0937316263038937e-04 +0.0000000000000000e+00 +9.9999981433215701e-01
-5.9999999999999947e+00 +9.0994409031179391e+00 +0.0000000000000000e+00 -5.9999996159722686e+00 +6.1970163359561484e-04 +0.0000000000000000e+00 +9.9999980798492416e-01
-6.0999999999999943e+00 +9.0993784165309375e+00 +0.0000000000000000e+00 -6.0999995964489546e+00 +6.3003010682497948e-04 +0.0000000000000000e+00 +9.9999980153101253e-01
-6.1999999999999940e+00 +9.0993148970965017e+00 +0.0000000000000000e+00 -6.1999995762749149e+00 +6.4035858226186182e-04 +0.0000000000000000e+00 +9.9999979497042202e-01
-6.2999999999999936e+00 +9.0992503448144131e+00 +0.0000000000000000e+00 -6.2999995554394825e+00 +6.5068705986325666e-04 +0.0000000000000000e+00 +9.9999978830315261e-01
-6.3999999999999932e+00 +9.0991847596844568e+00 +0.0000000000000000e+00 -6.3999995339319895e+00 +6.6101553960033115e-04 +0.0000000000000000e+00 +9.9999978152920432e-01
-6.4999999999999929e+00 +9.0991181417064215e+00 +0.0000000000000000e+00 -6.4999995117417679e+00 +6.7134402145842839e-04 +0.0000000000000000e+00 +9.9999977464857703e-01
-6.5999999999999925e+00 +9.0990504908800940e+00 +0.0000000000000000e+00 -6.5999994888581490e+00 +6.8167250543707124e-04 +0.0000000000000000e+00 +9.9999976766127063e-01
-6.6999999999999922e+00 +9.0989818072052628e+00 +0.0000000000000000e+00 -6.6999994652704657e+00 +6.9200099154996617e-04 +0.0000000000000000e+00 +9.9999976056728512e-01
-6.7999999999999918e+00 +9.0989120906817131e+00 +0.0000000000000000e+00 -6.7999994409680502e+00 +7.0232947982500754e-04 +0.0000000000000000e+00 +9.9999975336662039e-01
-6.8999999999999915e+00 +9.0988413413092246e+00 +0.0000000000000000e+00 -6.8999994159402345e+00 +7.1265797030428170e-04 +0.0000000000000000e+00 +9.9999974605927633e-01
-6.9999999999999911e+00 +9.0987695590875770e+00 +0.0000000000000000e+00 -6.9999993901763498e+00 +7.2298646304407152e-04 +0.0000000000000000e+00 +9.9999973864525282e-01
-7.0999999999999908e+00 +9.0986967440165394e+00 +0.0000000000000000e+00 -7.0999993636657290e+00 +7.3331495811486088e-04 +0.0000000000000000e+00 +9.9999973112454976e-01
-7.1999999999999904e+00 +9.0986228960958737e+00 +0.0000000000000000e+00 -7.1999993363977035e+00 +7.4364345560133931e-04 +0.0000000000000000e+00 +9.9999972349716704e-01
-7.2999999999999901e+00 +9.0985480153253349e+00 +0.0000000000000000e+00 -7.2999993083616062e+00 +7.5397195560240697e-04 +0.0000000000000000e+00 +9.9999971576310454e-01
-7.3999999999999897e+00 +9.0984721017046652e+00 +0.0000000000000000e+00 -7.3999992795467682e+00 +7.6430045823117955e-04 +0.0000000000000000e+00 +9.9999970792236192e-01
-7.4999999999999893e+00 +9.0983951552335967e+00 +0.0000000000000000e+00 -7.4999992499425225e+00 +7.7462896361499376e-04 +0.0000000000000000e+00 +9.9999969997493920e-01
-7.5999999999999890e+00 +9.0983171759118466e+00 +0.0000000000000000e+00 -7.5999992195382005e+00 +7.8495747189541215e-04 +0.0000000000000000e+00 +9.9999969192083604e-01
-7.6999999999999886e+00 +9.0982381637391168e+00 +0.0000000000000000e+00 -7.6999991883231340e+00 +7.9528598322822894e-04 +0.0000000000000000e+00 +9.9999968376005233e-01
-7.7999999999999883e+00 +9.0981581187150944e+00 +0.0000000000000000e+00 -7.7999991562866553e+00 +8.0561449778347542e-04 +0.0000000000000000e+00 +9.9999967549258773e-01
-7.8999999999999879e+00 +9.0980770408394473e+00 +0.0000000000000000e+00 -7.8999991234180955e+00 +8.1594301574542598e-04 +0.0000000000000000e+00 +9.9999966711844201e-01
-7.9999999999999876e+00 +9.0979949301118257e+00 +0.0000000000000000e+00 -7.9999990897067876e+00 +8.2627153731260376e-04 +0.0000000000000000e+00 +9.9999965863761497e-01
-8.0999999999999872e+00 +9.0979117865318582e+00 +0.0000000000000000e+00 -8.0999990551420620e+00 +8.3660006269624561e-04 +0.0000000000000000e+00 +9.9999965005010627e-01
-8.1999999999999869e+00 +9.0978276100991522e+00 +0.0000000000000000e+00 -8.1999990197132515e+00 +8.4692859210335240e-04 +0.0000000000000000e+00 +9.9999964135591557e-01
-8.2999999999999865e+00 +9.0977424008132974e+00 +0.0000000000000000e+00 -8.2999989834096883e+00 +8.5725712571973545e-04 +0.0000000000000000e+00 +9.9999963255504265e-01
-8.3999999999999861e+00 +9.0976561586738622e+00 +0.0000000000000000e+00 -8.3999989462207036e+00 +8.6758566370847374e-04 +0.0000000000000000e+00 +9.9999962364748718e-01
-8.4999999999999858e+00 +9.0975688836804043e+00 +0.0000000000000000e+00 -8.4999989081356286e+00 +8.7791420620991312e-04 +0.0000000000000000e+00 +9.9999961463324893e-01
-8.5999999999999854e+00 +9.0974805758324653e+00 +0.0000000000000000e+00 -8.5999988691437963e+00 +8.8824275334166490e-04 +0.0000000000000000e+00 +9.9999960551232769e-01
-8.6999999999999851e+00 +9.0973912351295780e+00 +0.0000000000000000e+00 -8.6999988292345378e+00 +8.9857130519860448e-04 +0.0000000000000000e+00 +9.9999959628472312e-01
-8.7999999999999847e+00 +9.0973008615712665e+00 +0.0000000000000000e+00 -8.7999987883971844e+00 +9.0889986185287023e-04 +0.0000000000000000e+00 +9.9999958695043512e-01
-8.8999999999999844e+00 +9.0972094551570475e+00 +0.0000000000000000e+00 -8.8999987466210690e+00 +9.1922842335386164e-04 +0.0000000000000000e+00 +9.9999957750946344e-01
-8.9999999999999840e+00 +9.0971170158864343e+00 +0.0000000000000000e+00 -8.9999987038955211e+00 +9.2955698972823806e-04 +0.0000000000000000e+00 +9.9999956796180789e-01
-9.0999999999999837e+00 +9.0970235437589402e+00 +0.0000000000000000e+00 -9.0999986602098737e+00 +9.3988556097991715e-04 +0.0000000000000000e+00 +9.9999955830746834e-01
-9.1999999999999833e+00 +9.0969290387740767e+00 +0.0000000000000000e+00 -9.1999986155534579e+00 +9.5021413709007292e-04 +0.0000000000000000e+00 +9.9999954854644468e-01
-9.2999999999999829e+00 +9.0968335009313606e+00 +0.0000000000000000e+00 -9.2999985699156067e+00 +9.6054271801713413e-04 +0.0000000000000000e+00 +9.9999953867873681e-01
-9.3999999999999826e+00 +9.0967369302303140e+00 +0.0000000000000000e+00 -9.3999985232856496e+00 +9.7087130369678245e-04 +0.0000000000000000e+00 +9.9999952870434461e-01
-9.4999999999999822e+00 +9.0966393266704664e+00 +0.0000000000000000e+00 -9.4999984756529194e+00 +9.8119989404195059e-04 +0.0000000000000000e+00 +9.9999951862326797e-01
-9.5999999999999819e+00 +9.0965406902513539e+00 +0.0000000000000000e+00 -9.5999984270067475e+00 +9.9152848894282024e-04 +0.0000000000000000e+00 +9.9999950843550689e-01
-9.6999999999999815e+00 +9.0964410209725290e+00 +0.0000000000000000e+00 -9.6999983773364651e+00 +1.0018570882668202e-03 +0.0000000000000000e+00 +9.9999949814106126e-01
-9.7999999999999812e+00 +9.0963403188335583e+00 +0.0000000000000000e+00 -9.7999983266314032e+00 +1.0121856918586236e-03 +0.0000000000000000e+00 +9.9999948773993119e-01
-9.8999999999999808e+00 +9.0962385838340225e+00 +0.0000000000000000e+00 -9.8999982748808950e+00 +1.0225142995401470e-03 +0.0000000000000000e+00 +9.9999947723211680e-01
-9.9999999999999805e+00 +9.0961358159735219e+00 +0.0000000000000000e+00 -9.9999982220742716e+00 +1.0328429111105463e-03 +0.0000000000000000e+00 +9.9999946661761807e-01
-1.0099999999999980e+01 +9.0960320152516783e+00 +0.0000000000000000e+00 -1.0099998168200862e+01 +1.0431715263489432e-03 +0.0000000000000000e+00 +9.9999945589643513e-01
-1.0199999999999980e+01 +9.0959271816681362e+00 +0.0000000000000000e+00 -1.0199998113250002e+01 +1.0535001450444189e-03 +0.0000000000000000e+00 +9.9999944506856808e-01
-1.0299999999999979e+01 +9.0958213152225600e+00 +0.0000000000000000e+00 -1.0299998057211020e+01 +1.0638287670260032e-03 +0.0000000000000000e+00 +9.9999943413401693e-01
-1.0399999999999979e+01 +9.0957144159146264e+00 +0.0000000000000000e+00 -1.0399998000073250e+01 +1.0741573921653859e-03 +0.0000000000000000e+00 +9.9999942309278178e-01
-1.0499999999999979e+01 +9.0956064837440245e+00 +0.0000000000000000e+00 -1.0499997941826020e+01 +1.0844860203769006e-03 +0.0000000000000000e+00 +9.9999941194486264e-01
-1.0599999999999978e+01 +9.0954975187104505e+00 +0.0000000000000000e+00 -1.0599997882458666e+01 +1.0948146516175082e-03 +0.0000000000000000e+00 +9.9999940069025950e-01
-1.0699999999999978e+01 +9.0953875208136008e+00 +0.0000000000000000e+00 -1.0699997821960517e+01 +1.1051432858867785e-03 +0.0000000000000000e+00 +9.9999938932897214e-01
-1.0799999999999978e+01 +9.0952764900531715e+00 +0.0000000000000000e+00 -1.0799997760320904e+01 +1.1154719232268741e-03 +0.0000000000000000e+00 +9.9999937786100046e-01
-1.0899999999999977e+01 +9.0951644264288500e+00 +0.0000000000000000e+00 -1.0899997697529161e+01 +1.1258005637225317e-03 +0.0000000000000000e+00 +9.9999936628634434e-01
-1.0999999999999977e+01 +9.0950513299403166e+00 +0.0000000000000000e+00 -1.0999997633574617e+01 +1.1361292075010435e-03 +0.0000000000000000e+00 +9.9999935460500344e-01
-1.1099999999999977e+01 +9.0949372005872338e+00 +0.0000000000000000e+00 -1.1099997568446605e+01 +1.1464578547322386e-03 +0.0000000000000000e+00 +9.9999934281697744e-01
-1.1199999999999976e+01 +9.0948220383692480e+00 +0.0000000000000000e+00 -1.1199997502134456e+01 +1.1567865056284639e-03 +0.0000000000000000e+00 +9.9999933092226612e-01
-1.1299999999999976e+01 +9.0947058432859773e+00 +0.0000000000000000e+00 -1.1299997434627501e+01 +1.1671151604445646e-03 +0.0000000000000000e+00 +9.9999931892086891e-01
-1.1399999999999975e+01 +9.0945886153370186e+00 +0.0000000000000000e+00 -1.1399997365915073e+01 +1.1774438194778636e-03 +0.0000000000000000e+00 +9.9999930681278548e-01
-1.1499999999999975e+01 +9.0944703545219312e+00 +0.0000000000000000e+00 -1.1499997295986502e+01 +1.1877724830681418e-03 +0.0000000000000000e+00 +9.9999929459801518e-01
-1.1599999999999975e+01 +9.0943510608402409e+00 +0.0000000000000000e+00 -1.1599997224831119e+01 +1.1981011515976169e-03 +0.0000000000000000e+00 +9.9999928227655743e-01
-1.1699999999999974e+01 +9.0942307342914326e+00 +0.0000000000000000e+00 -1.1699997152438257e+01 +1.2084298254909222e-03 +0.0000000000000000e+00 +9.9999926984841159e-01
