# trajectory
# s[mm] rx[mm] ry[mm] rz[mm] px[rad] py[rad] pz[rad]
0.0000000000000000e+00 +9.1312999999999995e+00 +0.0000000000000000e+00 +0.0000000000000000e+00 +0.0000000000000000e+00 +0.0000000000000000e+00 +1.0000000000000000e+00
-1.0000000000000001e-01 +9.1312994837582853e+00 +0.0000000000000000e+00 -9.9999999998223288e-02 +1.0324840086586338e-05 +0.0000000000000000e+00 +9.9999999994669886e-01
-2.0000000000000001e-01 +9.1312979350308261e+00 +0.0000000000000000e+00 -1.9999999998578633e-01 +2.0649714823500764e-05 +0.0000000000000000e+00 +9.9999999978679466e-01
-3.0000000000000004e-01 +9.1312953538141777e+00 +0.0000000000000000e+00 -2.9999999995202875e-01 +3.0974623826525090e-05 +0.0000000000000000e+00 +9.9999999952028640e-01
-4.0000000000000002e-01 +9.1312917401049329e+00 +0.0000000000000000e+00 -3.9999999988629009e-01 +4.1299566662498343e-05 +0.0000000000000000e+00 +9.9999999914717297e-01
-5.0000000000000000e-01 +9.1312870938997328e+00 +0.0000000000000000e+00 -4.9999999977790976e-01 +5.1624542849314863e-05 +0.0000000000000000e+00 +9.9999999866745337e-01
-5.9999999999999998e-01 +9.1312814151952679e+00 +0.0000000000000000e+00 -5.9999999961622719e-01 +6.1949551855922287e-05 +0.0000000000000000e+00 +9.9999999808112661e-01
-6.9999999999999996e-01 +9.1312747039882858e+00 +0.0000000000000000e+00 -6.9999999939058155e-01 +7.2274593102319447e-05 +0.0000000000000000e+00 +9.9999999738819167e-01
-7.9999999999999993e-01 +9.1312669602755925e+00 +0.0000000000000000e+00 -7.9999999909031194e-01 +8.2599665959554131e-05 +0.0000000000000000e+00 +9.9999999658864769e-01
-8.9999999999999991e-01 +9.1312581840540616e+00 +0.0000000000000000e+00 -8.9999999870475744e-01 +9.2924769749720758e-05 +0.0000000000000000e+00 +9.9999999568249365e-01
-9.9999999999999989e-01 +9.1312483753206362e+00 +0.0000000000000000e+00 -9.9999999822325703e-01 +1.0324990374595793e-04 +0.0000000000000000e+00 +9.9999999466972878e-01
-1.0999999999999999e+00 +9.1312375340723317e+00 +0.0000000000000000e+00 -1.0999999976351496e+00 +1.1357506717244584e-04 +0.0000000000000000e+00 +9.9999999355035218e-01
-1.2000000000000000e+00 +9.1312256603062476e+00 +0.0000000000000000e+00 -1.1999999969297737e+00 +1.2390025920440366e-04 +0.0000000000000000e+00 +9.9999999232436299e-01
-1.3000000000000000e+00 +9.1312127540195664e+00 +0.0000000000000000e+00 -1.2999999960964683e+00 +1.3422547896808671e-04 +0.0000000000000000e+00 +9.9999999099176051e-01
-1.4000000000000001e+00 +9.1311988152095598e+00 +0.0000000000000000e+00 -1.3999999951245721e+00 +1.4455072554078356e-04 +0.0000000000000000e+00 +9.9999998955254399e-01
-1.5000000000000002e+00 +9.1311838438735968e+00 +0.0000000000000000e+00 -1.4999999940034234e+00 +1.5487599795081312e-04 +0.0000000000000000e+00 +9.9999998800671275e-01
-1.6000000000000003e+00 +9.1311678400091427e+00 +0.0000000000000000e+00 -1.5999999927223609e+00 +1.6520129518285062e-04 +0.0000000000000000e+00 +9.9999998635426612e-01
-1.7000000000000004e+00 +9.1311508036137656e+00 +0.0000000000000000e+00 -1.6999999912707229e+00 +1.7552661623654596e-04 +0.0000000000000000e+00 +9.9999998459520356e-01
-1.8000000000000005e+00 +9.1311327346851314e+00 +0.0000000000000000e+00 -1.7999999896378478e+00 +1.8585196018514378e-04 +0.0000000000000000e+00 +9.9999998272952451e-01
-1.9000000000000006e+00 +9.1311136332209930e+00 +0.0000000000000000e+00 -1.8999999878130740e+00 +1.9617732618081274e-04 +0.0000000000000000e+00 +9.9999998075722840e-01
-2.0000000000000004e+00 +9.1310934992191850e+00 +0.0000000000000000e+00 -1.9999999857857396e+00 +2.0650271345464601e-04 +0.0000000000000000e+00 +9.9999997867831469e-01
-2.1000000000000005e+00 +9.1310723326776149e+00 +0.0000000000000000e+00 -2.0999999835451830e+00 +2.1682812131666225e-04 +0.0000000000000000e+00 +9.9999997649278283e-01
-2.2000000000000006e+00 +9.1310501335942558e+00 +0.0000000000000000e+00 -2.1999999810807425e+00 +2.2715354915580678e-04 +0.0000000000000000e+00 +9.9999997420063247e-01
-2.3000000000000007e+00 +9.1310269019671360e+00 +0.0000000000000000e+00 -2.2999999783817557e+00 +2.3747899643995326e-04 +0.0000000000000000e+00 +9.9999997180186295e-01
-2.4000000000000008e+00 +9.1310026377943352e+00 +0.0000000000000000e+00 -2.3999999754375612e+00 +2.4780446271590570e-04 +0.0000000000000000e+00 +9.9999996929647383e-01
-2.5000000000000009e+00 +9.1309773410739723e+00 +0.0000000000000000e+00 -2.4999999722374966e+00 +2.5812994760940079e-04 +0.0000000000000000e+00 +9.9999996668446467e-01
-2.6000000000000010e+00 +9.1309510118042017e+00 +0.0000000000000000e+00 -2.5999999687708999e+00 +2.6845545082511071e-04 +0.0000000000000000e+00 +9.9999996396583501e-01
-2.7000000000000011e+00 +9.1309236499832025e+00 +0.0000000000000000e+00 -2.6999999650271094e+00 +2.7878097214664613e-04 +0.0000000000000000e+00 +9.9999996114058420e-01
-2.8000000000000012e+00 +9.1308952556091736e+00 +0.0000000000000000e+00 -2.7999999609954629e+00 +2.8910651143655974e-04 +0.0000000000000000e+00 +9.9999995820871179e-01
-2.9000000000000012e+00 +9.1308658286803190e+00 +0.0000000000000000e+00 -2.8999999566652979e+00 +2.9943206863635016e-04 +0.0000000000000000e+00 +9.9999995517021723e-01
-3.0000000000000013e+00 +9.1308353691948483e+00 +0.0000000000000000e+00 -2.9999999520259522e+00 +3.0975764376646605e-04 +0.0000000000000000e+00 +9.9999995202510006e-01
-3.1000000000000014e+00 +9.1308038771509636e+00 +0.0000000000000000e+00 -3.0999999470667636e+00 +3.2008323692631069e-04 +0.0000000000000000e+00 +9.9999994877335951e-01
-3.2000000000000015e+00 +9.1307713525468550e+00 +0.0000000000000000e+00 -3.1999999417770697e+00 +3.3040884829424705e-04 +0.0000000000000000e+00 +9.9999994541499515e-01
-3.3000000000000016e+00 +9.1307377953806892e+00 +0.0000000000000000e+00 -3.2999999361462082e+00 +3.4073447812760297e-04 +0.0000000000000000e+00 +9.9999994195000619e-01
-3.4000000000000017e+00 +9.1307032056506028e+00 +0.0000000000000000e+00 -3.3999999301635166e+00 +3.5106012676267684e-04 +0.0000000000000000e+00 +9.9999993837839196e-01
-3.5000000000000018e+00 +9.1306675833546969e+00 +0.0000000000000000e+00 -3.4999999238183324e+00 +3.6138579461474378e-04 +0.0000000000000000e+00 +9.9999993470015180e-01
-3.6000000000000019e+00 +9.1306309284910245e+00 +0.0000000000000000e+00 -3.5999999170999928e+00 +3.7171148217428758e-04 +0.0000000000000000e+00 +9.9999993091528483e-01
-3.7000000000000020e+00 +9.1305932410575892e+00 +0.0000000000000000e+00 -3.6999999099978349e+00 +3.8203718996548920e-04 +0.0000000000000000e+00 +9.9999992702379026e-01
-3.8000000000000020e+00 +9.1305545210523409e+00 +0.0000000000000000e+00 -3.7999999025011961e+00 +3.9236291850471282e-04 +0.0000000000000000e+00 +9.9999992302566731e-01
-3.9000000000000021e+00 +9.1305147684731800e+00 +0.0000000000000000e+00 -3.8999998945994139e+00 +4.0268866829673415e-04 +0.0000000000000000e+00 +9.9999991892091511e-01
-4.0000000000000018e+00 +9.1304739833179571e+00 +0.0000000000000000e+00 -3.9999998862818247e+00 +4.1301443983474297e-04 +0.0000000000000000e+00 +9.9999991470953276e-01
-4.1000000000000014e+00 +9.1304321655844731e+00 +0.0000000000000000e+00 -4.0999998775377655e+00 +4.2334023360034590e-04 +0.0000000000000000e+00 +9.9999991039151948e-01
-4.2000000000000011e+00 +9.1303893152704809e+00 +0.0000000000000000e+00 -4.1999998683565742e+00 +4.3366605006356899e-04 +0.0000000000000000e+00 +9.9999990596687427e-01
-4.3000000000000007e+00 +9.1303454323736890e+00 +0.0000000000000000e+00 -4.2999998587275865e+00 +4.4399188968286056e-04 +0.0000000000000000e+00 +9.9999990143559625e-01
-4.4000000000000004e+00 +9.1303005168917579e+00 +0.0000000000000000e+00 -4.3999998486401388e+00 +4.5431775290509394e-04 +0.0000000000000000e+00 +9.9999989679768453e-01
-4.5000000000000000e+00 +9.1302545688223073e+00 +0.0000000000000000e+00 -4.4999998380835686e+00 +4.6464364016557034e-04 +0.0000000000000000e+00 +9.9999989205313811e-01
-4.5999999999999996e+00 +9.1302075881629108e+00 +0.0000000000000000e+00 -4.5999998270472116e+00 +4.7496955188802172e-04 +0.0000000000000000e+00 +9.9999988720195609e-01
-4.6999999999999993e+00 +9.1301595749111009e+00 +0.0000000000000000e+00 -4.6999998155204050e+00 +4.8529548848461382e-04 +0.0000000000000000e+00 +9.9999988224413761e-01
-4.7999999999999989e+00 +9.1301105290643711e+00 +0.0000000000000000e+00 -4.7999998034924847e+00 +4.9562145035594895e-04 +0.0000000000000000e+00 +9.9999987717968153e-01
-4.8999999999999986e+00 +9.1300604506201744e+00 +0.0000000000000000e+00 -4.8999997909527870e+00 +5.0594743789106930e-04 +0.0000000000000000e+00 +9.9999987200858698e-01
-4.9999999999999982e+00 +9.1300093395759241e+00 +0.0000000000000000e+00 -4.9999997778906478e+00 +5.1627345146745991e-04 +0.0000000000000000e+00 +9.9999986673085295e-01
-5.0999999999999979e+00 +9.1299571959290002e+00 +0.0000000000000000e+00 -5.0999997642954034e+00 +5.2659949145105161e-04 +0.0000000000000000e+00 +9.9999986134647834e-01
-5.1999999999999975e+00 +9.1299040196767418e+00 +0.0000000000000000e+00 -5.1999997501563895e+00 +5.3692555819622443e-04 +0.0000000000000000e+00 +9.9999985585546225e-01
-5.2999999999999972e+00 +9.1298498108164576e+00 +0.0000000000000000e+00 -5.2999997354629418e+00 +5.4725165204581091e-04 +0.0000000000000000e+00 +9.9999985025780358e-01
-5.3999999999999968e+00 +9.1297945693454192e+00 +0.0000000000000000e+00 -5.3999997202043959e+00 +5.5757777333109899e-04 +0.0000000000000000e+00 +9.9999984455350144e-01
-5.4999999999999964e+00 +9.1297382952608661e+00 +0.0000000000000000e+00 -5.4999997043700874e+00 +5.6790392237183584e-04 +0.0000000000000000e+00 +9.9999983874255460e-01
-5.5999999999999961e+00 +9.1296809885600094e+00 +0.0000000000000000e+00 -5.5999996879493521e+00 +5.7823009947544231e-04 +0.0000000000000000e+00 +9.9999983282496219e-01
-5.6999999999999957e+00 +9.1296226492400265e+00 +0.0000000000000000e+00 -5.6999996709315255e+00 +5.8855630492834230e-04 +0.0000000000000000e+00 +9.9999982680072308e-01
-5.7999999999999954e+00 +9.1295632772980699e+00 +0.0000000000000000e+00 -5.7999996533059424e+00 +5.9888253898728993e-04 +0.0000000000000000e+00 +9.9999982066983628e-01
-5.8999999999999950e+00 +9.1295028727312673e+00 +0.0000000000000000e+00 -5.8999996350619384e+00 +6.0920880187858152e-04 +0.0000000000000000e+00 +9.9999981443230079e-01
-5.9999999999999947e+00 +9.1294414355367266e+00 +0.0000000000000000e+00 -5.9999996161888483e+00 +6.1953509379805553e-04 +0.0000000000000000e+00 +9.9999980808811550e-01
-6.0999999999999943e+00 +9.1293789657115347e+00 +0.0000000000000000e+00 -6.0999995966760068e+00 +6.2986141491109269e-04 +0.0000000000000000e+00 +9.9999980163727942e-01
-6.1999999999999940e+00 +9.1293154632527660e+00 +0.0000000000000000e+00 -6.1999995765127487e+00 +6.4018776535261566e-04 +0.0000000000000000e+00 +9.9999979507979164e-01
-6.2999999999999936e+00 +9.1292509281574823e+00 +0.0000000000000000e+00 -6.2999995556884096e+00 +6.5051414522708929e-04 +0.0000000000000000e+00 +9.9999978841565118e-01
-6.3999999999999932e+00 +9.1291853604227367e+00 +0.0000000000000000e+00 -6.3999995341923235e+00 +6.6084055460851991e-04 +0.0000000000000000e+00 +9.9999978164485703e-01
-6.4999999999999929e+00 +9.1291187600455750e+00 +0.0000000000000000e+00 -6.4999995120138259e+00 +6.7116699354045537e-04 +0.0000000000000000e+00 +9.9999977476740820e-01
-6.5999999999999925e+00 +9.1290511270230432e+00 +0.0000000000000000e+00 -6.5999994891422507e+00 +6.8149346203598426e-04 +0.0000000000000000e+00 +9.9999976778330379e-01
-6.6999999999999922e+00 +9.1289824613521837e+00 +0.0000000000000000e+00 -6.6999994655669317e+00 +6.9181996007773561e-04 +0.0000000000000000e+00 +9.9999976069254293e-01
-6.7999999999999918e+00 +9.1289127630300442e+00 +0.0000000000000000e+00 -6.7999994412772038e+00 +7.0214648761787821e-04 +0.0000000000000000e+00 +9.9999975349512471e-01
-6.8999999999999915e+00 +9.1288420320536794e+00 +0.0000000000000000e+00 -6.8999994162624017e+00 +7.1247304457811988e-04 +0.0000000000000000e+00 +9.9999974619104826e-01
-6.9999999999999911e+00 +9.1287702684201513e+00 +0.0000000000000000e+00 -6.9999993905118583e+00 +7.2279963084970666e-04 +0.0000000000000000e+00 +9.9999973878031279e-01
-7.0999999999999908e+00 +9.1286974721265359e+00 +0.0000000000000000e+00 -7.0999993640149084e+00 +7.3312624629342203e-04 +0.0000000000000000e+00 +9.9999973126291752e-01
-7.1999999999999904e+00 +9.1286236431699255e+00 +0.0000000000000000e+00 -7.1999993367608859e+00 +7.4345289073958563e-04 +0.0000000000000000e+00 +9.9999972363886158e-01
-7.2999999999999901e+00 +9.1285487815474280e+00 +0.0000000000000000e+00 -7.2999993087391246e+00 +7.5377956398805254e-04 +0.0000000000000000e+00 +9.9999971590814429e-01
-7.3999999999999897e+00 +9.1284728872561747e+00 +0.0000000000000000e+00 -7.3999992799389593e+00 +7.6410626580821199e-04 +0.0000000000000000e+00 +9.9999970807076488e-01
-7.4999999999999893e+00 +9.1283959602933216e+00 +0.0000000000000000e+00 -7.4999992503497221e+00 +7.7443299593898593e-04 +0.0000000000000000e+00 +9.9999970012672268e-01
-7.5999999999999890e+00 +9.1283180006560531e+00 +0.0000000000000000e+00 -7.5999992199607478e+00 +7.8475975409021193e-04 +0.0000000000000000e+00 +9.9999969207601702e-01
-7.6999999999999886e+00 +9.1282390083415805e+00 +0.0000000000000000e+00 -7.6999991887613701e+00 +7.9508653995786474e-04 +0.0000000000000000e+00 +9.9999968391864724e-01
-7.7999999999999883e+00 +9.1281589833471486e+00 +0.0000000000000000e+00 -7.7999991567409221e+00 +8.0541335323927555e-04 +0.0000000000000000e+00 +9.9999967565461279e-01
-7.8999999999999879e+00 +9.1280779256700288e+00 +0.0000000000000000e+00 -7.8999991238887377e+00 +8.1574019363450895e-04 +0.0000000000000000e+00 +9.9999966728391310e-01
-7.9999999999999876e+00 +9.1279958353075266e+00 +0.0000000000000000e+00 -7.9999990901941498e+00 +8.2606706084635605e-04 +0.0000000000000000e+00 +9.9999965880654751e-01
-8.0999999999999872e+00 +9.1279127122569754e+00 +0.0000000000000000e+00 -8.0999990556464923e+00 +8.3639395458032673e-04 +0.0000000000000000e+00 +9.9999965022251547e-01
-8.1999999999999869e+00 +9.1278285565157358e+00 +0.0000000000000000e+00 -8.1999990202350972e+00 +8.4672087454464224e-04 +0.0000000000000000e+00 +9.9999964153181631e-01
-8.2999999999999865e+00 +9.1277433680812017e+00 +0.0000000000000000e+00 -8.2999989839492994e+00 +8.5704782045022696e-04 +0.0000000000000000e+00 +9.9999963273444958e-01
-8.3999999999999861e+00 +9.1276571469507921e+00 +0.0000000000000000e+00 -8.3999989467784317e+00 +8.6737479201070048e-04 +0.0000000000000000e+00 +9.9999962383041463e-01
-8.4999999999999858e+00 +9.1275698931219544e+00 +0.0000000000000000e+00 -8.4999989087118273e+00 +8.7770178894236884e-04 +0.0000000000000000e+00 +9.9999961481971100e-01
-8.5999999999999854e+00 +9.1274816065921662e+00 +0.0000000000000000e+00 -8.5999988697388190e+00 +8.8802881096421594e-04 +0.0000000000000000e+00 +9.9999960570233803e-01
-8.6999999999999851e+00 +9.1273922873589335e+00 +0.0000000000000000e+00 -8.6999988298487398e+00 +8.9835585779789455e-04 +0.0000000000000000e+00 +9.9999959647829528e-01
-8.7999999999999847e+00 +9.1273019354197888e+00 +0.0000000000000000e+00 -8.7999987890309228e+00 +9.0868292916771712e-04 +0.0000000000000000e+00 +9.9999958714758219e-01
-8.8999999999999844e+00 +9.1272105507722916e+00 +0.0000000000000000e+00 -8.8999987472747009e+00 +9.1901002480064607e-04 +0.0000000000000000e+00 +9.9999957771019832e-01
-8.9999999999999840e+00 +9.1271181334140294e+00 +0.0000000000000000e+00 -8.9999987045694070e+00 +9.2933714442628421e-04 +0.0000000000000000e+00 +9.9999956816614310e-01
-9.0999999999999837e+00 +9.1270246833426167e+00 +0.0000000000000000e+00 -9.0999986609043741e+00 +9.3966428777686462e-04 +0.0000000000000000e+00 +9.9999955851541600e-01
-9.1999999999999833e+00 +9.1269302005556927e+00 +0.0000000000000000e+00 -9.1999986162689353e+00 +9.4999145458724032e-04 +0.0000000000000000e+00 +9.9999954875801667e-01
-9.2999999999999829e+00 +9.1268346850509250e+00 +0.0000000000000000e+00 -9.2999985706524217e+00 +9.6031864459487372e-04 +0.0000000000000000e+00 +9.9999953889394444e-01
-9.3999999999999826e+00 +9.1267381368260079e+00 +0.0000000000000000e+00 -9.3999985240441681e+00 +9.7064585753982595e-04 +0.0000000000000000e+00 +9.9999952892319899e-01
-9.4999999999999822e+00 +9.1266405558786605e+00 +0.0000000000000000e+00 -9.4999984764335057e+00 +9.8097309316474567e-04 +0.0000000000000000e+00 +9.9999951884577987e-01
-9.5999999999999819e+00 +9.1265419422066270e+00 +0.0000000000000000e+00 -9.5999984278097674e+00 +9.9130035121491834e-04 +0.0000000000000000e+00 +9.9999950866168652e-01
-9.6999999999999815e+00 +9.1264422958076779e+00 +0.0000000000000000e+00 -9.6999983781622863e+00 +1.0016276314389213e-03 +0.0000000000000000e+00 +9.9999949837091850e-01
-9.7999999999999812e+00 +9.1263416166796087e+00 +0.0000000000000000e+00 -9.7999983274803952e+00 +1.0119549335892847e-03 +0.0000000000000000e+00 +9.9999948797347549e-01
-9.8999999999999808e+00 +9.1262399048202383e+00 +0.0000000000000000e+00 -9.8999982757534255e+00 +1.0222822574225492e-03 +0.0000000000000000e+00 +9.9999947746935691e-01
-9.9999999999999805e+00 +9.1261371602274100e+00 +0.0000000000000000e+00 -9.9999982229707101e+00 +1.0326096026992643e-03 +0.0000000000000000e+00 +9.9999946685856245e-01
-1.0099999999999980e+01 +9.1260333828989921e+00 +0.0000000000000000e+00 -1.0099998169121582e+01 +1.0429369691839856e-03 +0.0000000000000000e+00 +9.9999945614109165e-01
-1.0199999999999980e+01 +9.1259285728328745e+00 +0.0000000000000000e+00 -1.0199998114195372e+01 +1.0532643566452731e-03 +0.0000000000000000e+00 +9.9999944531694407e-01
-1.0299999999999979e+01 +9.1258227300269716e+00 +0.0000000000000000e+00 -1.0299998058181414e+01 +1.0635917648556890e-03 +0.0000000000000000e+00 +9.9999943438611927e-01
-1.0399999999999979e+01 +9.1257158544792194e+00 +0.0000000000000000e+00 -1.0399998001069040e+01 +1.0739191935917952e-03 +0.0000000000000000e+00 +9.9999942334861691e-01
-1.0499999999999979e+01 +9.1256079461875768e+00 +0.0000000000000000e+00 -1.0499997942847582e+01 +1.0842466426341511e-03 +0.0000000000000000e+00 +9.9999941220443656e-01
-1.0599999999999978e+01 +9.1254990051500240e+00 +0.0000000000000000e+00 -1.0599997883506372e+01 +1.0945741117673118e-03 +0.0000000000000000e+00 +9.9999940095357787e-01
-1.0699999999999978e+01 +9.1253890313645609e+00 +0.0000000000000000e+00 -1.0699997823034742e+01 +1.1049016007798258e-03 +0.0000000000000000e+00 +9.9999938959604040e-01
-1.0799999999999978e+01 +9.1252780248292122e+00 +0.0000000000000000e+00 -1.0799997761422025e+01 +1.1152291094642319e-03 +0.0000000000000000e+00 +9.9999937813182371e-01
-1.0899999999999977e+01 +9.1251659855420204e+00 +0.0000000000000000e+00 -1.0899997698657552e+01 +1.1255566376170581e-03 +0.0000000000000000e+00 +9.9999936656092747e-01
-1.0999999999999977e+01 +9.1250529135010474e+00 +0.0000000000000000e+00 -1.0999997634730654e+01 +1.1358841850388191e-03 +0.0000000000000000e+00 +9.9999935488335134e-01
-1.1099999999999977e+01 +9.1249388087043766e+00 +0.0000000000000000e+00 -1.1099997569630666e+01 +1.1462117515340137e-03 +0.0000000000000000e+00 +9.9999934309909488e-01
-1.1199999999999976e+01 +9.1248236711501107e+00 +0.0000000000000000e+00 -1.1199997503346918e+01 +1.1565393369111225e-03 +0.0000000000000000e+00 +9.9999933120815776e-01
-1.1299999999999976e+01 +9.1247075008363705e+00 +0.0000000000000000e+00 -1.1299997435868741e+01 +1.1668669409826062e-03 +0.0000000000000000e+00 +9.9999931921053964e-01
-1.1399999999999975e+01 +9.1245902977612960e+00 +0.0000000000000000e+00 -1.1399997367185469e+01 +1.1771945635649030e-03 +0.0000000000000000e+00 +9.9999930710624008e-01
-1.1499999999999975e+01 +9.1244720619230453e+00 +0.0000000000000000e+00 -1.1499997297286432e+01 +1.1875222044784258e-03 +0.0000000000000000e+00 +9.9999929489525874e-01
-1.1599999999999975e+01 +9.1243527933197939e+00 +0.0000000000000000e+00 -1.1599997226160964e+01 +1.1978498635481787e-03 +0.0000000000000000e+00 +9.9999928257759529e-01
-1.1699999999999974e+01 +9.1242324919497353e+00 +0.0000000000000000e+00 -1.1699997153798394e+01 +1.2081775406105524e-03 +0.0000000000000000e+00 +9.9999927015324930e-01
