# trajectory
# s[mm] rx[mm] ry[mm] rz[mm] px[rad] py[rad] pz[rad]
0.0000000000000000e+00 +9.1183999999999994e+00 +0.0000000000000000e+00 +0.0000000000000000e+00 +0.0000000000000000e+00 +0.0000000000000000e+00 +1.0000000000000000e+00
1.0000000000000001e-01 +9.1183994838421025e+00 +0.0000000000000000e+00 +9.9999999998223885e-02 -1.0323164053543857e-05 +0.0000000000000000e+00 +9.9999999994671618e-01
2.0000000000000001e-01 +9.1183979353659659e+00 +0.0000000000000000e+00 +1.9999999998579096e-01 -2.0646364779595756e-05 +0.0000000000000000e+00 +9.9999999978686382e-01
3.0000000000000004e-01 +9.1183953545679266e+00 +0.0000000000000000e+00 +2.9999999995204435e-01 -3.0969602105601354e-05 +0.0000000000000000e+00 +9.9999999952044194e-01
4.0000000000000002e-01 +9.1183917414443290e+00 +0.0000000000000000e+00 +3.9999999988632701e-01 -4.1292875934750457e-05 +0.0000000000000000e+00 +9.9999999914744930e-01
5.0000000000000000e-01 +9.1183870959915279e+00 +0.0000000000000000e+00 +4.9999999977798182e-01 -5.1616186145978828e-05 +0.0000000000000000e+00 +9.9999999866788480e-01
5.9999999999999998e-01 +9.1183814182058924e+00 +0.0000000000000000e+00 +5.9999999961635153e-01 -6.1939532593996782e-05 +0.0000000000000000e+00 +9.9999999808174733e-01
6.9999999999999996e-01 +9.1183747080838078e+00 +0.0000000000000000e+00 +6.9999999939077884e-01 -7.2262915109583725e-05 +0.0000000000000000e+00 +9.9999999738903578e-01
7.9999999999999993e-01 +9.1183669656216750e+00 +0.0000000000000000e+00 +7.9999999909060615e-01 -8.2586333499881653e-05 +0.0000000000000000e+00 +9.9999999658974903e-01
8.9999999999999991e-01 +9.1183581908159184e+00 +0.0000000000000000e+00 +8.9999999870517611e-01 -9.2909787548421972e-05 +0.0000000000000000e+00 +9.9999999568388598e-01
9.9999999999999989e-01 +9.1183483836629851e+00 +0.0000000000000000e+00 +9.9999999822383079e-01 -1.0323327701512508e-04 +0.0000000000000000e+00 +9.9999999467144551e-01
1.0999999999999999e+00 +9.1183375441593437e+00 +0.0000000000000000e+00 +1.0999999976359125e+00 -1.1355680163629946e-04 +0.0000000000000000e+00 +9.9999999355242664e-01
1.2000000000000000e+00 +9.1183256723014949e+00 +0.0000000000000000e+00 +1.1999999969307633e+00 -1.2388036112464038e-04 +0.0000000000000000e+00 +9.9999999232682824e-01
1.3000000000000000e+00 +9.1183127680859677e+00 +0.0000000000000000e+00 +1.2999999960977253e+00 -1.3420395516922787e-04 +0.0000000000000000e+00 +9.9999999099464942e-01
1.4000000000000001e+00 +9.1182988315093212e+00 +0.0000000000000000e+00 +1.3999999951261404e+00 -1.4452758343552440e-04 +0.0000000000000000e+00 +9.9999998955588898e-01
1.5000000000000002e+00 +9.1182838625681519e+00 +0.0000000000000000e+00 +1.4999999940053503e+00 -1.5485124556537198e-04 +0.0000000000000000e+00 +9.9999998801054601e-01
1.6000000000000003e+00 +9.1182678612590919e+00 +0.0000000000000000e+00 +1.5999999927246968e+00 -1.6517494117698861e-04 +0.0000000000000000e+00 +9.9999998635861953e-01
1.7000000000000004e+00 +9.1182508275788141e+00 +0.0000000000000000e+00 +1.6999999912735215e+00 -1.7549866986496453e-04 +0.0000000000000000e+00 +9.9999998460010853e-01
1.8000000000000005e+00 +9.1182327615240304e+00 +0.0000000000000000e+00 +1.7999999896411658e+00 -1.8582243120025759e-04 +0.0000000000000000e+00 +9.9999998273501212e-01
1.9000000000000006e+00 +9.1182136630915007e+00 +0.0000000000000000e+00 +1.8999999878169711e+00 -1.9614622473018847e-04 +0.0000000000000000e+00 +9.9999998076332930e-01
2.0000000000000004e+00 +9.1181935322780276e+00 +0.0000000000000000e+00 +1.9999999857902788e+00 -2.0647004997843515e-04 +0.0000000000000000e+00 +9.9999997868505919e-01
2.1000000000000005e+00 +9.1181723690804652e+00 +0.0000000000000000e+00 +2.0999999835504299e+00 -2.1679390644502690e-04 +0.0000000000000000e+00 +9.9999997650020100e-01
2.2000000000000006e+00 +9.1181501734957155e+00 +0.0000000000000000e+00 +2.1999999810867661e+00 -2.2711779360633791e-04 +0.0000000000000000e+00 +9.9999997420875375e-01
2.3000000000000007e+00 +9.1181269455207392e+00 +0.0000000000000000e+00 +2.2999999783886280e+00 -2.3744171091508021e-04 +0.0000000000000000e+00 +9.9999997181071676e-01
2.4000000000000008e+00 +9.1181026851525466e+00 +0.0000000000000000e+00 +2.3999999754453567e+00 -2.4776565780029627e-04 +0.0000000000000000e+00 +9.9999996930608914e-01
2.5000000000000009e+00 +9.1180773923882121e+00 +0.0000000000000000e+00 +2.4999999722462931e+00 -2.5808963366735093e-04 +0.0000000000000000e+00 +9.9999996669487012e-01
2.6000000000000010e+00 +9.1180510672248669e+00 +0.0000000000000000e+00 +2.5999999687807778e+00 -2.6841363789718175e-04 +0.0000000000000000e+00 +9.9999996397705904e-01
2.7000000000000011e+00 +9.1180237096597079e+00 +0.0000000000000000e+00 +2.6999999650381517e+00 -2.7873766983813866e-04 +0.0000000000000000e+00 +9.9999996115265510e-01
2.8000000000000012e+00 +9.1179953196899977e+00 +0.0000000000000000e+00 +2.7999999610077557e+00 -2.8906172879783189e-04 +0.0000000000000000e+00 +9.9999995822165777e-01
2.9000000000000012e+00 +9.1179658973130717e+00 +0.0000000000000000e+00 +2.8999999566789301e+00 -2.9938581404239669e-04 +0.0000000000000000e+00 +9.9999995518406637e-01
3.0000000000000013e+00 +9.1179354425263384e+00 +0.0000000000000000e+00 +2.9999999520410157e+00 -3.0970992479650064e-04 +0.0000000000000000e+00 +9.9999995203988024e-01
3.1000000000000014e+00 +9.1179039553272894e+00 +0.0000000000000000e+00 +3.0999999470833530e+00 -3.2003406024335183e-04 +0.0000000000000000e+00 +9.9999994878909892e-01
3.2000000000000015e+00 +9.1178714357134965e+00 +0.0000000000000000e+00 +3.1999999417952822e+00 -3.3035821952470792e-04 +0.0000000000000000e+00 +9.9999994543172199e-01
3.3000000000000016e+00 +9.1178378836826202e+00 +0.0000000000000000e+00 +3.2999999361661443e+00 -3.4068240174088608e-04 +0.0000000000000000e+00 +9.9999994196774900e-01
3.4000000000000017e+00 +9.1178032992324152e+00 +0.0000000000000000e+00 +3.3999999301852792e+00 -3.5100660595077394e-04 +0.0000000000000000e+00 +9.9999993839717949e-01
3.5000000000000018e+00 +9.1177676823607303e+00 +0.0000000000000000e+00 +3.4999999238420272e+00 -3.6133083117184141e-04 +0.0000000000000000e+00 +9.9999993472001314e-01
3.6000000000000019e+00 +9.1177310330655157e+00 +0.0000000000000000e+00 +3.5999999171257286e+00 -3.7165507638015332e-04 +0.0000000000000000e+00 +9.9999993093624973e-01
3.7000000000000020e+00 +9.1176933513448244e+00 +0.0000000000000000e+00 +3.6999999100257237e+00 -3.8197934051038325e-04 +0.0000000000000000e+00 +9.9999992704588903e-01
3.8000000000000020e+00 +9.1176546371968197e+00 +0.0000000000000000e+00 +3.7999999025313529e+00 -3.9230362245582781e-04 +0.0000000000000000e+00 +9.9999992304893093e-01
3.9000000000000021e+00 +9.1176148906197767e+00 +0.0000000000000000e+00 +3.8999998946319567e+00 -4.0262792106842245e-04 +0.0000000000000000e+00 +9.9999991894537532e-01
4.0000000000000018e+00 +9.1175741116120896e+00 +0.0000000000000000e+00 +3.9999998863168749e+00 -4.1295223515875755e-04 +0.0000000000000000e+00 +9.9999991473522210e-01
4.1000000000000014e+00 +9.1175323001722699e+00 +0.0000000000000000e+00 +4.0999998775754483e+00 -4.2327656349609591e-04 +0.0000000000000000e+00 +9.9999991041847136e-01
4.2000000000000011e+00 +9.1174894562989568e+00 +0.0000000000000000e+00 +4.1999998683970166e+00 -4.3360090480839094e-04 +0.0000000000000000e+00 +9.9999990599512323e-01
4.3000000000000007e+00 +9.1174455799909193e+00 +0.0000000000000000e+00 +4.2999998587709198e+00 -4.4392525778230566e-04 +0.0000000000000000e+00 +9.9999990146517792e-01
4.4000000000000004e+00 +9.1174006712470579e+00 +0.0000000000000000e+00 +4.3999998486864991e+00 -4.5424962106323290e-04 +0.0000000000000000e+00 +9.9999989682863555e-01
4.5000000000000000e+00 +9.1173547300664097e+00 +0.0000000000000000e+00 +4.4999998381330943e+00 -4.6457399325531629e-04 +0.0000000000000000e+00 +9.9999989208549656e-01
4.5999999999999996e+00 +9.1173077564481577e+00 +0.0000000000000000e+00 +4.5999998271000457e+00 -4.7489837292589342e-04 +0.0000000000000000e+00 +9.9999988723576128e-01
4.6999999999999993e+00 +9.1172597503916233e+00 +0.0000000000000000e+00 +4.6999998155766933e+00 -4.8522275865415051e-04 +0.0000000000000000e+00 +9.9999988227943026e-01
4.7999999999999989e+00 +9.1172107118962700e+00 +0.0000000000000000e+00 +4.7999998035523781e+00 -4.9554714907975781e-04 +0.0000000000000000e+00 +9.9999987721650396e-01
4.8999999999999986e+00 +9.1171606409616945e+00 +0.0000000000000000e+00 +4.8999997910164410e+00 -5.0587154290727835e-04 +0.0000000000000000e+00 +9.9999987204698282e-01
4.9999999999999982e+00 +9.1171095375876163e+00 +0.0000000000000000e+00 +4.9999997779582221e+00 -5.1619593890615389e-04 +0.0000000000000000e+00 +9.9999986677086738e-01
5.0999999999999979e+00 +9.1170574017738790e+00 +0.0000000000000000e+00 +5.0999997643670616e+00 -5.2652033591068994e-04 +0.0000000000000000e+00 +9.9999986138815822e-01
5.1999999999999975e+00 +9.1170042335204364e+00 +0.0000000000000000e+00 +5.1999997502323003e+00 -5.3684473282003911e-04 +0.0000000000000000e+00 +9.9999985589885587e-01
5.2999999999999972e+00 +9.1169500328273525e+00 +0.0000000000000000e+00 +5.2999997355432793e+00 -5.4716912859818431e-04 +0.0000000000000000e+00 +9.9999985030296101e-01
5.3999999999999968e+00 +9.1168947996947871e+00 +0.0000000000000000e+00 +5.3999997202893395e+00 -5.5749352227392002e-04 +0.0000000000000000e+00 +9.9999984460047409e-01
5.4999999999999964e+00 +9.1168385341229978e+00 +0.0000000000000000e+00 +5.4999997044598210e+00 -5.6781791294083347e-04 +0.0000000000000000e+00 +9.9999983879139576e-01
5.5999999999999961e+00 +9.1167812361123275e+00 +0.0000000000000000e+00 +5.5999996880440657e+00 -5.7814229975728401e-04 +0.0000000000000000e+00 +9.9999983287572658e-01
5.6999999999999957e+00 +9.1167229056632006e+00 +0.0000000000000000e+00 +5.6999996710314136e+00 -5.8846668194638201e-04 +0.0000000000000000e+00 +9.9999982685346711e-01
5.7999999999999954e+00 +9.1166635427761165e+00 +0.0000000000000000e+00 +5.7999996534112057e+00 -5.9879105879596624e-04 +0.0000000000000000e+00 +9.9999982072461790e-01
5.8999999999999950e+00 +9.1166031474516416e+00 +0.0000000000000000e+00 +5.8999996351727839e+00 -6.0911542965858066e-04 +0.0000000000000000e+00 +9.9999981448917952e-01
5.9999999999999947e+00 +9.1165417196904048e+00 +0.0000000000000000e+00 +5.9999996163054892e+00 -6.1943979395145011e-04 +0.0000000000000000e+00 +9.9999980814715250e-01
6.0999999999999943e+00 +9.1164792594930883e+00 +0.0000000000000000e+00 +6.0999995967986615e+00 -6.2976415115645475e-04 +0.0000000000000000e+00 +9.9999980169853742e-01
6.1999999999999940e+00 +9.1164157668604258e+00 +0.0000000000000000e+00 +6.1999995766416438e+00 -6.4008850082010373e-04 +0.0000000000000000e+00 +9.9999979514333470e-01
6.2999999999999936e+00 +9.1163512417931898e+00 +0.0000000000000000e+00 +6.2999995558237760e+00 -6.5041284255350760e-04 +0.0000000000000000e+00 +9.9999978848154492e-01
6.3999999999999932e+00 +9.1162856842921904e+00 +0.0000000000000000e+00 +6.3999995343344001e+00 -6.6073717603234994e-04 +0.0000000000000000e+00 +9.9999978171316839e-01
6.4999999999999929e+00 +9.1162190943582679e+00 +0.0000000000000000e+00 +6.4999995121628569e+00 -6.7106150099685775e-04 +0.0000000000000000e+00 +9.9999977483820568e-01
6.5999999999999925e+00 +9.1161514719922820e+00 +0.0000000000000000e+00 +6.5999994892984883e+00 -6.8138581725343133e-04 +0.0000000000000000e+00 +9.9999976785665712e-01
6.6999999999999922e+00 +9.1160828171951103e+00 +0.0000000000000000e+00 +6.6999994657306354e+00 -6.9171012469288005e-04 +0.0000000000000000e+00 +9.9999976076852315e-01
6.7999999999999918e+00 +9.1160131299676372e+00 +0.0000000000000000e+00 +6.7999994414486400e+00 -7.0203442330868046e-04 +0.0000000000000000e+00 +9.9999975357380400e-01
6.8999999999999915e+00 +9.1159424103107405e+00 +0.0000000000000000e+00 +6.8999994164418430e+00 -7.1235871319864452e-04 +0.0000000000000000e+00 +9.9999974627249977e-01
6.9999999999999911e+00 +9.1158706582252815e+00 +0.0000000000000000e+00 +6.9999993906995863e+00 -7.2268299456492953e-04 +0.0000000000000000e+00 +9.9999973886461069e-01
7.0999999999999908e+00 +9.1157978737121006e+00 +0.0000000000000000e+00 +7.0999993642112118e+00 -7.3300726771404769e-04 +0.0000000000000000e+00 +9.9999973135013676e-01
7.1999999999999904e+00 +9.1157240567719988e+00 +0.0000000000000000e+00 +7.1999993369660604e+00 -7.4333153305687670e-04 +0.0000000000000000e+00 +9.9999972372907797e-01
7.2999999999999901e+00 +9.1156492074057329e+00 +0.0000000000000000e+00 +7.2999993089534740e+00 -7.5365579110867108e-04 +0.0000000000000000e+00 +9.9999971600143411e-01
7.3999999999999897e+00 +9.1155733256140010e+00 +0.0000000000000000e+00 +7.3999992801627945e+00 -7.6398004248907317e-04 +0.0000000000000000e+00 +9.9999970816720496e-01
7.4999999999999893e+00 +9.1154964113974337e+00 +0.0000000000000000e+00 +7.4999992505833628e+00 -7.7430428792212567e-04 +0.0000000000000000e+00 +9.9999970022639018e-01
7.5999999999999890e+00 +9.1154184647565870e+00 +0.0000000000000000e+00 +7.5999992202045199e+00 -7.8462852823628403e-04 +0.0000000000000000e+00 +9.9999969217898921e-01
7.6999999999999886e+00 +9.1153394856919263e+00 +0.0000000000000000e+00 +7.6999991890156076e+00 -7.9495276436442942e-04 +0.0000000000000000e+00 +9.9999968402500150e-01
7.7999999999999883e+00 +9.1152594742038193e+00 +0.0000000000000000e+00 +7.7999991570059670e+00 -8.0527699734388267e-04 +0.0000000000000000e+00 +9.9999967576442639e-01
7.8999999999999879e+00 +9.1151784302925254e+00 +0.0000000000000000e+00 +7.8999991241649399e+00 -8.1560122831641818e-04 +0.0000000000000000e+00 +9.9999966739726309e-01
7.9999999999999876e+00 +9.1150963539581831e+00 +0.0000000000000000e+00 +7.9999990904818672e+00 -8.2592545852827853e-04 +0.0000000000000000e+00 +9.9999965892351050e-01
8.0999999999999872e+00 +9.1150132452008013e+00 +0.0000000000000000e+00 +8.0999990559460890e+00 -8.3624968933018989e-04 +0.0000000000000000e+00 +9.9999965034316762e-01
8.1999999999999869e+00 +9.1149291040202485e+00 +0.0000000000000000e+00 +8.1999990205469473e+00 -8.4657392217737752e-04 +0.0000000000000000e+00 +9.9999964165623312e-01
8.2999999999999865e+00 +9.1148439304162441e+00 +0.0000000000000000e+00 +8.2999989842737829e+00 -8.5689815862958205e-04 +0.0000000000000000e+00 +9.9999963286270566e-01
8.3999999999999861e+00 +9.1147577243883457e+00 +0.0000000000000000e+00 +8.3999989471159360e+00 -8.6722240035107636e-04 +0.0000000000000000e+00 +9.9999962396258368e-01
8.4999999999999858e+00 +9.1146704859359389e+00 +0.0000000000000000e+00 +8.4999989090627466e+00 -8.7754664911068262e-04 +0.0000000000000000e+00 +9.9999961495586542e-01
8.5999999999999854e+00 +9.1145822150582276e+00 +0.0000000000000000e+00 +8.5999988701035548e+00 -8.8787090677113184e-04 +0.0000000000000000e+00 +9.9999960584254899e-01
8.6999999999999851e+00 +9.1144929117542279e+00 +0.0000000000000000e+00 +8.6999988302277025e+00 -8.9819517517183631e-04 +0.0000000000000000e+00 +9.9999959662263249e-01
8.7999999999999847e+00 +9.1144025760227798e+00 +0.0000000000000000e+00 +8.7999987894245280e+00 -9.0851945601165194e-04 +0.0000000000000000e+00 +9.9999958729611405e-01
8.8999999999999844e+00 +9.1143112078625599e+00 +0.0000000000000000e+00 +8.8999987476833713e+00 -9.1884375083822452e-04 +0.0000000000000000e+00 +9.9999957786299187e-01
8.9999999999999840e+00 +9.1142188072720991e+00 +0.0000000000000000e+00 +8.9999987049935726e+00 -9.2916806104799572e-04 +0.0000000000000000e+00 +9.9999956832326420e-01
9.0999999999999837e+00 +9.1141253742497952e+00 +0.0000000000000000e+00 +9.0999986613444701e+00 -9.3949238788620839e-04 +0.0000000000000000e+00 +9.9999955867692936e-01
9.1999999999999833e+00 +9.1140309087939304e+00 +0.0000000000000000e+00 +9.1999986167254040e+00 -9.4981673244691294e-04 +0.0000000000000000e+00 +9.9999954892398579e-01
9.2999999999999829e+00 +9.1139354109026840e+00 +0.0000000000000000e+00 +9.2999985711257125e+00 -9.6014109567297288e-04 +0.0000000000000000e+00 +9.9999953906443206e-01
9.3999999999999826e+00 +9.1138388805741481e+00 +0.0000000000000000e+00 +9.3999985245347357e+00 -9.7046547835607101e-04 +0.0000000000000000e+00 +9.9999952909826684e-01
9.4999999999999822e+00 +9.1137413178063440e+00 +0.0000000000000000e+00 +9.4999984769418120e+00 -9.8078988113671603e-04 +0.0000000000000000e+00 +9.9999951902548889e-01
9.5999999999999819e+00 +9.1136427225972358e+00 +0.0000000000000000e+00 +9.5999984283362796e+00 -9.9111430450424839e-04 +0.0000000000000000e+00 +9.9999950884609712e-01
9.6999999999999815e+00 +9.1135430949447453e+00 +0.0000000000000000e+00 +9.6999983787074768e+00 -1.0014387487968473e-03 +0.0000000000000000e+00 +9.9999949856009052e-01
9.7999999999999812e+00 +9.1134424348467711e+00 +0.0000000000000000e+00 +9.7999983280447438e+00 -1.0117632142015373e-03 +0.0000000000000000e+00 +9.9999948816746820e-01
9.8999999999999808e+00 +9.1133407423011992e+00 +0.0000000000000000e+00 +9.8999982763374170e+00 -1.0220877007541948e-03 +0.0000000000000000e+00 +9.9999947766822961e-01
9.9999999999999805e+00 +9.1132380173059193e+00 +0.0000000000000000e+00 +9.9999982235748348e+00 -1.0324122083395552e-03 +0.0000000000000000e+00 +9.9999946706237408e-01
1.0099999999999980e+01 +9.1131342598588390e+00 +0.0000000000000000e+00 +1.0099998169746337e+01 -1.0427367366912200e-03 +0.0000000000000000e+00 +9.9999945634990128e-01
1.0199999999999980e+01 +9.1130294699579029e+00 +0.0000000000000000e+00 +1.0199998114841261e+01 -1.0530612853916642e-03 +0.0000000000000000e+00 +9.9999944553081099e-01
1.0299999999999979e+01 +9.1129236476011020e+00 +0.0000000000000000e+00 +1.0299998058848946e+01 -1.0633858538722431e-03 +0.0000000000000000e+00 +9.9999943460510321e-01
1.0399999999999979e+01 +9.1128167927864929e+00 +0.0000000000000000e+00 +1.0399998001758728e+01 -1.0737104414132006e-03 +0.0000000000000000e+00 +9.9999942357277805e-01
1.0499999999999979e+01 +9.1127089055122124e+00 +0.0000000000000000e+00 +1.0499997943559947e+01 -1.0840350471436758e-03 +0.0000000000000000e+00 +9.9999941243383583e-01
1.0599999999999978e+01 +9.1125999857764910e+00 +0.0000000000000000e+00 +1.0599997884241942e+01 -1.0943596700510321e-03 +0.0000000000000000e+00 +9.9999940118827713e-01
1.0699999999999978e+01 +9.1124900335776644e+00 +0.0000000000000000e+00 +1.0699997823794050e+01 -1.1046843090833916e-03 +0.0000000000000000e+00 +9.9999938983610259e-01
1.0799999999999978e+01 +9.1123790489141694e+00 +0.0000000000000000e+00 +1.0799997762205608e+01 -1.1150089632521521e-03 +0.0000000000000000e+00 +9.9999937837731279e-01
1.0899999999999977e+01 +9.1122670317845404e+00 +0.0000000000000000e+00 +1.0899997699465958e+01 -1.1253336316412771e-03 +0.0000000000000000e+00 +9.9999936681190837e-01
1.0999999999999977e+01 +9.1121539821873956e+00 +0.0000000000000000e+00 +1.0999997635564437e+01 -1.1356583134072625e-03 +0.0000000000000000e+00 +9.9999935513988980e-01
1.1099999999999977e+01 +9.1120399001214381e+00 +0.0000000000000000e+00 +1.1099997570490382e+01 -1.1459830077791022e-03 +0.0000000000000000e+00 +9.9999934336125751e-01
1.1199999999999976e+01 +9.1119247855854422e+00 +0.0000000000000000e+00 +1.1199997504233133e+01 -1.1563077140582531e-03 +0.0000000000000000e+00 +9.9999933147601194e-01
1.1299999999999976e+01 +9.1118086385782497e+00 +0.0000000000000000e+00 +1.1299997436782030e+01 -1.1666324316185991e-03 +0.0000000000000000e+00 +9.9999931948415344e-01
1.1399999999999975e+01 +9.1116914590987612e+00 +0.0000000000000000e+00 +1.1399997368126410e+01 -1.1769571599064142e-03 +0.0000000000000000e+00 +9.9999930738568221e-01
1.1499999999999975e+01 +9.1115732471459268e+00 +0.0000000000000000e+00 +1.1499997298255613e+01 -1.1872818984403257e-03 +0.0000000000000000e+00 +9.9999929518059860e-01
1.1599999999999975e+01 +9.1114540027187445e+00 +0.0000000000000000e+00 +1.1599997227158976e+01 -1.1976066468112750e-03 +0.0000000000000000e+00 +9.9999928286890283e-01
1.1699999999999974e+01 +9.1113337258162481e+00 +0.0000000000000000e+00 +1.1699997154825839e+01 -1.2079314046824791e-03 +0.0000000000000000e+00 +9.9999927045059489e-01
1.1799999999999974e+01 +9.1112124164375015e+00 +0.0000000000000000e+00 +1.1799997081245541e+01 -1.2182561717893905e-03 +0.0000000000000000e+00 +9.9999925792567479e-01
