# field on trajectory
# s[mm] rx[mm] ry[mm] rz[mm] bx[T] by[T] bz[T]
0.0000000000000000e+00 +9.1013000000000002e+00 +0.0000000000000000e+00 +0.0000000000000000e+00 +1.1165380115790135e-02 -1.0335924944923973e+00 -5.8793334728201072e-02
-1.0000000000000001e-01 +9.1012994835147509e+00 +0.0000000000000000e+00 -9.9999999998221623e-02 +1.1165671981718568e-02 -1.0335990948397356e+00 -5.8795624416004166e-02
-2.0000000000000001e-01 +9.1012979340545979e+00 +0.0000000000000000e+00 -1.9999999998577289e-01 +1.1165963808234380e-02 -1.0336057371664156e+00 -5.8797903466648399e-02
-3.0000000000000004e-01 +9.1012953516129045e+00 +0.0000000000000000e+00 -2.9999999995198323e-01 +1.1166255500247106e-02 -1.0336124058662253e+00 -5.8800171562490025e-02
-4.0000000000000002e-01 +9.1012917361830077e+00 +0.0000000000000000e+00 -3.9999999988618196e-01 +1.1166546962662994e-02 -1.0336190853337552e+00 -5.8802428385883218e-02
-5.0000000000000000e-01 +9.1012870877582337e+00 +0.0000000000000000e+00 -4.9999999977769805e-01 +1.1166838100380737e-02 -1.0336257599640617e+00 -5.8804673619172902e-02
-5.9999999999999998e-01 +9.1012814063319141e+00 +0.0000000000000000e+00 -5.9999999961586037e-01 +1.1167128818287219e-02 -1.0336324141523265e+00 -5.8806906944687355e-02
-6.9999999999999996e-01 +9.1012746918973999e+00 +0.0000000000000000e+00 -6.9999999938999757e-01 +1.1167419021253282e-02 -1.0336390322935225e+00 -5.8809128044731290e-02
-7.9999999999999993e-01 +9.1012669444480796e+00 +0.0000000000000000e+00 -7.9999999908943809e-01 +1.1167708614129461e-02 -1.0336455987820727e+00 -5.8811336601578196e-02
-8.9999999999999991e-01 +9.1012581639773913e+00 +0.0000000000000000e+00 -8.9999999870351011e-01 +1.1167997501741741e-02 -1.0336520980115158e+00 -5.8813532297463507e-02
-9.9999999999999989e-01 +9.1012483504788442e+00 +0.0000000000000000e+00 -9.9999999822154173e-01 +1.1168285588887297e-02 -1.0336585143741643e+00 -5.8815714814577071e-02
-1.0999999999999999e+00 +9.1012375039460274e+00 +0.0000000000000000e+00 -1.0999999976328607e+00 +1.1168572780330264e-02 -1.0336648322607713e+00 -5.8817883835056067e-02
-1.2000000000000000e+00 +9.1012256243726277e+00 +0.0000000000000000e+00 -1.1999999969267947e+00 +1.1168858980797461e-02 -1.0336710360601891e+00 -5.8820039040977698e-02
-1.3000000000000000e+00 +9.1012127117524493e+00 +0.0000000000000000e+00 -1.2999999960926711e+00 +1.1169144094974158e-02 -1.0336771101590332e+00 -5.8822180114352016e-02
-1.4000000000000001e+00 +9.1011987660794240e+00 +0.0000000000000000e+00 -1.3999999951198174e+00 +1.1169428027499840e-02 -1.0336830389413438e+00 -5.8824306737114626e-02
-1.5000000000000002e+00 +9.1011837873476296e+00 +0.0000000000000000e+00 -1.4999999939975608e+00 +1.1169710682963904e-02 -1.0336888067882484e+00 -5.8826418591119464e-02
-1.6000000000000003e+00 +9.1011677755513034e+00 +0.0000000000000000e+00 -1.5999999927152280e+00 +1.1169992055836485e-02 -1.0336944033128628e+00 -5.8828515403604342e-02
-1.7000000000000004e+00 +9.1011507306848554e+00 +0.0000000000000000e+00 -1.6999999912621460e+00 +1.1170272500289452e-02 -1.0336998390667556e+00 -5.8830597083631399e-02
-1.8000000000000005e+00 +9.1011326527428515e+00 +0.0000000000000000e+00 -1.7999999896276413e+00 +1.1170552460426654e-02 -1.0337051298360058e+00 -5.8832663585719681e-02
-1.9000000000000006e+00 +9.1011135417200055e+00 +0.0000000000000000e+00 -1.8999999878010405e+00 +1.1170832380358396e-02 -1.0337102914063632e+00 -5.8834714864385192e-02
-2.0000000000000004e+00 +9.1010933976111588e+00 +0.0000000000000000e+00 -1.9999999857716702e+00 +1.1171112704206411e-02 -1.0337153395634009e+00 -5.8836750874147171e-02
-2.1000000000000005e+00 +9.1010722204112682e+00 +0.0000000000000000e+00 -2.0999999835288565e+00 +1.1171393876108757e-02 -1.0337202900926696e+00 -5.8838771569534196e-02
-2.2000000000000006e+00 +9.1010500101153866e+00 +0.0000000000000000e+00 -2.1999999810619255e+00 +1.1171676340224807e-02 -1.0337251587798530e+00 -5.8840776905090549e-02
-2.3000000000000007e+00 +9.1010267667186486e+00 +0.0000000000000000e+00 -2.2999999783602032e+00 +1.1171960540740163e-02 -1.0337299614109214e+00 -5.8842766835382448e-02
-2.4000000000000008e+00 +9.1010024902162563e+00 +0.0000000000000000e+00 -2.3999999754130155e+00 +1.1172246921871586e-02 -1.0337347137722825e+00 -5.8844741315004036e-02
-2.5000000000000009e+00 +9.1009771806034614e+00 +0.0000000000000000e+00 -2.4999999722096882e+00 +1.1172535927871961e-02 -1.0337394316509394e+00 -5.8846700298583847e-02
-2.6000000000000010e+00 +9.1009508378755495e+00 +0.0000000000000000e+00 -2.5999999687395468e+00 +1.1172828003035226e-02 -1.0337441308346438e+00 -5.8848643740790914e-02
-2.7000000000000011e+00 +9.1009234620278274e+00 +0.0000000000000000e+00 -2.6999999649919166e+00 +1.1173123591701313e-02 -1.0337488271120481e+00 -5.8850571596341002e-02
-2.8000000000000012e+00 +9.1008950530556021e+00 +0.0000000000000000e+00 -2.7999999609561232e+00 +1.1173423138261078e-02 -1.0337535362728603e+00 -5.8852483820002813e-02
-2.9000000000000012e+00 +9.1008656109541697e+00 +0.0000000000000000e+00 -2.8999999566214916e+00 +1.1173727087161259e-02 -1.0337582741079989e+00 -5.8854380366604210e-02
-3.0000000000000013e+00 +9.1008351357187962e+00 +0.0000000000000000e+00 -2.9999999519773470e+00 +1.1174035882909411e-02 -1.0337630564097460e+00 -5.8856261191038504e-02
-3.1000000000000014e+00 +9.1008036273447050e+00 +0.0000000000000000e+00 -3.0999999470130142e+00 +1.1174349970078825e-02 -1.0337678989719006e+00 -5.8858126248270547e-02
-3.2000000000000015e+00 +9.1007710858270592e+00 +0.0000000000000000e+00 -3.1999999417178175e+00 +1.1174669793313483e-02 -1.0337728175899328e+00 -5.8859975493343042e-02
-3.3000000000000016e+00 +9.1007375111609434e+00 +0.0000000000000000e+00 -3.2999999360810817e+00 +1.1174995797333005e-02 -1.0337778280611380e+00 -5.8861808881382760e-02
-3.4000000000000017e+00 +9.1007029033413538e+00 +0.0000000000000000e+00 -3.3999999300921306e+00 +1.1175328426937570e-02 -1.0337829461847914e+00 -5.8863626367606739e-02
-3.5000000000000018e+00 +9.1006672623631761e+00 +0.0000000000000000e+00 -3.4999999237402890e+00 +1.1175668127012850e-02 -1.0337881877622996e+00 -5.8865427907328474e-02
-3.6000000000000019e+00 +9.1006305882211755e+00 +0.0000000000000000e+00 -3.5999999170148804e+00 +1.1176015188735374e-02 -1.0337935643629823e+00 -5.8867213430158341e-02
-3.7000000000000020e+00 +9.1005928809099839e+00 +0.0000000000000000e+00 -3.6999999099052290e+00 +1.1176369288135072e-02 -1.0337990706203424e+00 -5.8868982762535299e-02
-3.8000000000000020e+00 +9.1005541404241033e+00 +0.0000000000000000e+00 -3.7999999024006579e+00 +1.1176729947422059e-02 -1.0338046969340353e+00 -5.8870735705046952e-02
-3.9000000000000021e+00 +9.1005143667579151e+00 +0.0000000000000000e+00 -3.8999998944904903e+00 +1.1177096688773078e-02 -1.0338104337040936e+00 -5.8872472058216538e-02
-4.0000000000000018e+00 +9.1004735599056907e+00 +0.0000000000000000e+00 -3.9999998861640491e+00 +1.1177469034327791e-02 -1.0338162713309369e+00 -5.8874191622497636e-02
-4.1000000000000014e+00 +9.1004317198616018e+00 +0.0000000000000000e+00 -4.0999998774106574e+00 +1.1177846506185063e-02 -1.0338222002153712e+00 -5.8875894198268650e-02
-4.2000000000000011e+00 +9.1003888466197278e+00 +0.0000000000000000e+00 -4.1999998682196376e+00 +1.1178228626399193e-02 -1.0338282107586017e+00 -5.8877579585827497e-02
-4.3000000000000007e+00 +9.1003449401740681e+00 +0.0000000000000000e+00 -4.2999998585803123e+00 +1.1178614916976250e-02 -1.0338342933622324e+00 -5.8879247585386298e-02
-4.4000000000000004e+00 +9.1003000005185477e+00 +0.0000000000000000e+00 -4.3999998484820040e+00 +1.1179004899870292e-02 -1.0338404384282769e+00 -5.8880897997065820e-02
-4.5000000000000000e+00 +9.1002540276470310e+00 +0.0000000000000000e+00 -4.4999998379140340e+00 +1.1179398096979676e-02 -1.0338466363591619e+00 -5.8882530620890237e-02
-4.5999999999999996e+00 +9.1002070215533308e+00 +0.0000000000000000e+00 -4.5999998268657247e+00 +1.1179794030143320e-02 -1.0338528775577318e+00 -5.8884145256781685e-02
-4.6999999999999993e+00 +9.1001589822312159e+00 +0.0000000000000000e+00 -4.6999998153263967e+00 +1.1180192221136967e-02 -1.0338591524272565e+00 -5.8885741704554830e-02
-4.7999999999999989e+00 +9.1001099096744191e+00 +0.0000000000000000e+00 -4.7999998032853721e+00 +1.1180592191669482e-02 -1.0338654513714378e+00 -5.8887319763911594e-02
-4.8999999999999986e+00 +9.1000598038766523e+00 +0.0000000000000000e+00 -4.8999997907319717e+00 +1.1180993463379115e-02 -1.0338717647944127e+00 -5.8888879234435705e-02
-4.9999999999999982e+00 +9.1000086648316127e+00 +0.0000000000000000e+00 -4.9999997776555167e+00 +1.1181395557829760e-02 -1.0338780831007612e+00 -5.8890419915587286e-02
-5.0999999999999979e+00 +9.0999564925329910e+00 +0.0000000000000000e+00 -5.0999997640453270e+00 +1.1181797996507262e-02 -1.0338843966955122e+00 -5.8891941606697550e-02
-5.1999999999999975e+00 +9.0999032869744845e+00 +0.0000000000000000e+00 -5.1999997498907238e+00 +1.1182200300815666e-02 -1.0338906959841490e+00 -5.8893444106963351e-02
-5.2999999999999972e+00 +9.0998490481498031e+00 +0.0000000000000000e+00 -5.2999997351810277e+00 +1.1182601992073504e-02 -1.0338969713726129e+00 -5.8894927215441831e-02
-5.3999999999999968e+00 +9.0997937760526835e+00 +0.0000000000000000e+00 -5.3999997199055585e+00 +1.1183002591510068e-02 -1.0339032132673152e+00 -5.8896390731045058e-02
-5.4999999999999964e+00 +9.0997374706768941e+00 +0.0000000000000000e+00 -5.4999997040536357e+00 +1.1183401620261678e-02 -1.0339094120751360e+00 -5.8897834452534582e-02
-5.5999999999999961e+00 +9.0996801320162444e+00 +0.0000000000000000e+00 -5.5999996876145790e+00 +1.1183798739591019e-02 -1.0339155588025717e+00 -5.8899258295403205e-02
-5.6999999999999957e+00 +9.0996217600646006e+00 +0.0000000000000000e+00 -5.6999996705777090e+00 +1.1184194171590903e-02 -1.0339216468526193e+00 -5.8900662642592728e-02
-5.7999999999999954e+00 +9.0995623548158839e+00 +0.0000000000000000e+00 -5.7999996529323443e+00 +1.1184588278569279e-02 -1.0339276702263696e+00 -5.8902047993929348e-02
-5.8999999999999950e+00 +9.0995019162640816e+00 +0.0000000000000000e+00 -5.8999996346678047e+00 +1.1184981422832490e-02 -1.0339336229236584e+00 -5.8903414849250914e-02
-5.9999999999999947e+00 +9.0994404444032515e+00 +0.0000000000000000e+00 -5.9999996157734099e+00 +1.1185373966686002e-02 -1.0339394989430006e+00 -5.8904763708409011e-02
-6.0999999999999943e+00 +9.0993779392275282e+00 +0.0000000000000000e+00 -6.0999995962384785e+00 +1.1185766272435109e-02 -1.0339452922815231e+00 -5.8906095071271404e-02
-6.1999999999999940e+00 +9.0993144007311297e+00 +0.0000000000000000e+00 -6.1999995760523285e+00 +1.1186158702385623e-02 -1.0339509969348972e+00 -5.8907409437724115e-02
-6.2999999999999936e+00 +9.0992498289083610e+00 +0.0000000000000000e+00 -6.2999995552042796e+00 +1.1186551618844598e-02 -1.0339566068972745e+00 -5.8908707307673787e-02
-6.3999999999999932e+00 +9.0991842237536229e+00 +0.0000000000000000e+00 -6.3999995336836504e+00 +1.1186945384121041e-02 -1.0339621161612165e+00 -5.8909989181049886e-02
-6.4999999999999929e+00 +9.0991175852614177e+00 +0.0000000000000000e+00 -6.4999995114797597e+00 +1.1187340360526595e-02 -1.0339675187176303e+00 -5.8911255557806880e-02
-6.5999999999999925e+00 +9.0990499134263523e+00 +0.0000000000000000e+00 -6.5999994885819255e+00 +1.1187736910376273e-02 -1.0339728085557014e+00 -5.8912506937926643e-02
-6.6999999999999922e+00 +9.0989812082431492e+00 +0.0000000000000000e+00 -6.6999994649794665e+00 +1.1188135395989169e-02 -1.0339779796628277e+00 -5.8913743821420526e-02
-6.7999999999999918e+00 +9.0989114697066480e+00 +0.0000000000000000e+00 -6.7999994406617015e+00 +1.1188536179689141e-02 -1.0339830260245511e+00 -5.8914966708331733e-02
-6.8999999999999915e+00 +9.0988406978118146e+00 +0.0000000000000000e+00 -6.8999994156179483e+00 +1.1188939623805547e-02 -1.0339879416244928e+00 -5.8916176098737422e-02
-6.9999999999999911e+00 +9.0987688925537427e+00 +0.0000000000000000e+00 -6.9999993898375248e+00 +1.1189346090673949e-02 -1.0339927204442867e+00 -5.8917372492751134e-02
-7.0999999999999908e+00 +9.0986960539276645e+00 +0.0000000000000000e+00 -7.0999993633097489e+00 +1.1189755942636810e-02 -1.0339973564635114e+00 -5.8918556390524797e-02
-7.1999999999999904e+00 +9.0986221819289561e+00 +0.0000000000000000e+00 -7.1999993360239394e+00 +1.1190169542044227e-02 -1.0340018436596254e+00 -5.8919728292251158e-02
-7.2999999999999901e+00 +9.0985472765531394e+00 +0.0000000000000000e+00 -7.2999993079694141e+00 +1.1190587251254623e-02 -1.0340061760078987e+00 -5.8920888698165912e-02
-7.3999999999999897e+00 +9.0984713377958961e+00 +0.0000000000000000e+00 -7.3999992791354909e+00 +1.1191009432635483e-02 -1.0340103474813491e+00 -5.8922038108549887e-02
-7.4999999999999893e+00 +9.0983943656530641e+00 +0.0000000000000000e+00 -7.4999992495114878e+00 +1.1191436448564029e-02 -1.0340143520506739e+00 -5.8923177023731434e-02
-7.5999999999999890e+00 +9.0983163601206503e+00 +0.0000000000000000e+00 -7.5999992190867225e+00 +1.1191868527043911e-02 -1.0340181861654847e+00 -5.8924305785740032e-02
-7.6999999999999886e+00 +9.0982373211948300e+00 +0.0000000000000000e+00 -7.6999991878505138e+00 +1.1192305358584774e-02 -1.0340218561998731e+00 -5.8925424103276731e-02
-7.7999999999999883e+00 +9.0981572488719440e+00 +0.0000000000000000e+00 -7.7999991557921788e+00 +1.1192746499438765e-02 -1.0340253710110348e+00 -5.8926531526818461e-02
-7.8999999999999879e+00 +9.0980761431484858e+00 +0.0000000000000000e+00 -7.8999991229010362e+00 +1.1193191506006141e-02 -1.0340287394583048e+00 -5.8927627606985333e-02
-7.9999999999999876e+00 +9.0979940040210980e+00 +0.0000000000000000e+00 -7.9999990891664039e+00 +1.1193639934840252e-02 -1.0340319704032388e+00 -5.8928711894545599e-02
-8.0999999999999872e+00 +9.0979108314865602e+00 +0.0000000000000000e+00 -8.0999990545775997e+00 +1.1194091342652418e-02 -1.0340350727096941e+00 -5.8929783940420685e-02
-8.1999999999999869e+00 +9.0978266255417797e+00 +0.0000000000000000e+00 -8.1999990191239434e+00 +1.1194545286316932e-02 -1.0340380552439099e+00 -5.8930843295690129e-02
-8.2999999999999865e+00 +9.0977413861837846e+00 +0.0000000000000000e+00 -8.2999989827947509e+00 +1.1195001322875932e-02 -1.0340409268745867e+00 -5.8931889511596537e-02
-8.3999999999999861e+00 +9.0976551134097114e+00 +0.0000000000000000e+00 -8.3999989455793411e+00 +1.1195459009544386e-02 -1.0340436964729689e+00 -5.8932922139550585e-02
-8.4999999999999858e+00 +9.0975678072168016e+00 +0.0000000000000000e+00 -8.4999989074670328e+00 +1.1195917903714990e-02 -1.0340463729129223e+00 -5.8933940731136038e-02
-8.5999999999999854e+00 +9.0974794676023905e+00 +0.0000000000000000e+00 -8.5999988684471429e+00 +1.1196377562963123e-02 -1.0340489650710170e+00 -5.8934944838114595e-02
-8.6999999999999851e+00 +9.0973900945638952e+00 +0.0000000000000000e+00 -8.6999988285089902e+00 +1.1196837545051769e-02 -1.0340514818266051e+00 -5.8935934012431010e-02
-8.7999999999999847e+00 +9.0972996880988077e+00 +0.0000000000000000e+00 -8.7999987876418917e+00 +1.1197297407936463e-02 -1.0340539320619047e+00 -5.8936907806218047e-02
-8.8999999999999844e+00 +9.0972082482046908e+00 +0.0000000000000000e+00 -8.8999987458351661e+00 +1.1197756709770201e-02 -1.0340563246620749e+00 -5.8937865771801358e-02
-8.9999999999999840e+00 +9.0971157748791605e+00 +0.0000000000000000e+00 -8.9999987030781323e+00 +1.1198215008908384e-02 -1.0340586685153010e+00 -5.8938807461704552e-02
-9.0999999999999837e+00 +9.0970222681198845e+00 +0.0000000000000000e+00 -9.0999986593601072e+00 +1.1198671863913755e-02 -1.0340609725128707e+00 -5.8939732428654183e-02
-9.1999999999999833e+00 +9.0969277279245695e+00 +0.0000000000000000e+00 -9.1999986146704096e+00 +1.1199126833561319e-02 -1.0340632455492571e+00 -5.8940640225584734e-02
-9.2999999999999829e+00 +9.0968321542909525e+00 +0.0000000000000000e+00 -9.2999985689983564e+00 +1.1199579476843264e-02 -1.0340654965221965e+00 -5.8941530405643518e-02
-9.3999999999999826e+00 +9.0967355472167934e+00 +0.0000000000000000e+00 -9.3999985223332665e+00 +1.1200029352973911e-02 -1.0340677343327689e+00 -5.8942402522195722e-02
-9.4999999999999822e+00 +9.0966379066998648e+00 +0.0000000000000000e+00 -9.4999984746644568e+00 +1.1200476021394621e-02 -1.0340699678854790e+00 -5.8943256128829467e-02
-9.5999999999999819e+00 +9.0965392327379444e+00 +0.0000000000000000e+00 -9.5999984259812461e+00 +1.1200919162227537e-02 -1.0340722042580563e+00 -5.8944090870667085e-02
-9.6999999999999815e+00 +9.0964395253288099e+00 +0.0000000000000000e+00 -9.6999983762729514e+00 +1.1201358937468594e-02 -1.0340744432079587e+00 -5.8944906758179212e-02
-9.7999999999999812e+00 +9.0963387844702321e+00 +0.0000000000000000e+00 -9.7999983255288914e+00 +1.1201795629313045e-02 -1.0340766826591647e+00 -5.8945703893035335e-02
-9.8999999999999808e+00 +9.0962370101599852e+00 +0.0000000000000000e+00 -9.8999982737383814e+00 +1.1202229519642233e-02 -1.0340789205319234e+00 -5.8946482376752887e-02
-9.9999999999999805e+00 +9.0961342023958434e+00 +0.0000000000000000e+00 -9.9999982208907401e+00 +1.1202660890014452e-02 -1.0340811547426414e+00 -5.8947242310692281e-02
-1.0099999999999980e+01 +9.0960303611755844e+00 +0.0000000000000000e+00 -1.0099998166975285e+01 +1.1203090021655952e-02 -1.0340833832037830e+00 -5.8947983796052282e-02
-1.0199999999999980e+01 +9.0959254864969932e+00 +0.0000000000000000e+00 -1.0199998111981333e+01 +1.1203517195451833e-02 -1.0340856038237600e+00 -5.8948706933864913e-02
-1.0299999999999979e+01 +9.0958195783578617e+00 +0.0000000000000000e+00 -1.0299998055898204e+01 +1.1203942691937000e-02 -1.0340878145068264e+00 -5.8949411824990791e-02
-1.0399999999999979e+01 +9.0957126367559908e+00 +0.0000000000000000e+00 -1.0399997998715211e+01 +1.1204366791287109e-02 -1.0340900131529731e+00 -5.8950098570114247e-02
-1.0499999999999979e+01 +9.0956046616891957e+00 +0.0000000000000000e+00 -1.0499997940421673e+01 +1.1204789773309493e-02 -1.0340921976578183e+00 -5.8950767269738455e-02
-1.0599999999999978e+01 +9.0954956531553055e+00 +0.0000000000000000e+00 -1.0599997881006908e+01 +1.1205211917434125e-02 -1.0340943659125041e+00 -5.8951418024180642e-02
-1.0699999999999978e+01 +9.0953856111521656e+00 +0.0000000000000000e+00 -1.0699997820460233e+01 +1.1205633502704536e-02 -1.0340965158035889e+00 -5.8952050933567229e-02
-1.0799999999999978e+01 +9.0952745356776372e+00 +0.0000000000000000e+00 -1.0799997758770964e+01 +1.1206054807768788e-02 -1.0340986452129393e+00 -5.8952666097829051e-02
-1.0899999999999977e+01 +9.0951624267296065e+00 +0.0000000000000000e+00 -1.0899997695928418e+01 +1.1206476110870405e-02 -1.0341007520176271e+00 -5.8953263616696491e-02
-1.0999999999999977e+01 +9.0950492843059774e+00 +0.0000000000000000e+00 -1.0999997631921913e+01 +1.1206897689839320e-02 -1.0341028340898191e+00 -5.8953843589694695e-02
-1.1099999999999977e+01 +9.0949351084046839e+00 +0.0000000000000000e+00 -1.1099997566740765e+01 +1.1207319822082838e-02 -1.0341048892966744e+00 -5.8954406116138787e-02
-1.1199999999999976e+01 +9.0948198990236833e+00 +0.0000000000000000e+00 -1.1199997500374291e+01 +1.1207742784576561e-02 -1.0341069155002320e+00 -5.8954951295128913e-02
-1.1299999999999976e+01 +9.0947036561609629e+00 +0.0000000000000000e+00 -1.1299997432811807e+01 +1.1208166853855374e-02 -1.0341089105573125e+00 -5.8955479225545684e-02
-1.1399999999999975e+01 +9.0945863798145421e+00 +0.0000000000000000e+00 -1.1399997364042632e+01 +1.1208592306004369e-02 -1.0341108723194041e+00 -5.8955990006045164e-02
-1.1499999999999975e+01 +9.0944680699824723e+00 +0.0000000000000000e+00 -1.1499997294056080e+01 +1.1209019416649821e-02 -1.0341127986325600e+00 -5.8956483735054167e-02
-1.1599999999999975e+01 +9.0943487266628420e+00 +0.0000000000000000e+00 -1.1599997222841470e+01 +1.1209448359359150e-02 -1.0341146878656413e+00 -5.8956960672050591e-02
-1.1699999999999974e+01 +9.0942283498537755e+00 +0.0000000000000000e+00 -1.1699997150388118e+01 +1.1209878901094516e-02 -1.0341165404983137e+00 -5.8957421721663635e-02
