# trajectory
# s[mm] rx[mm] ry[mm] rz[mm] px[rad] py[rad] pz[rad]
0.0000000000000000e+00 +9.0449999999999999e+00 +0.0000000000000000e+00 +0.0000000000000000e+00 +0.0000000000000000e+00 +0.0000000000000000e+00 +1.0000000000000000e+00
-1.0000000000000001e-01 +9.0449994846862065e+00 +0.0000000000000000e+00 -9.9999999998229686e-02 +1.0306282480590306e-05 +0.0000000000000000e+00 +9.9999999994689026e-01
-2.0000000000000001e-01 +9.0449979387421973e+00 +0.0000000000000000e+00 -1.9999999998583740e-01 +2.0612604178052571e-05 +0.0000000000000000e+00 +9.9999999978756027e-01
-3.0000000000000004e-01 +9.0449953621640873e+00 +0.0000000000000000e+00 -2.9999999995220106e-01 +3.0918964376029023e-05 +0.0000000000000000e+00 +9.9999999952200880e-01
-4.0000000000000002e-01 +9.0449917549480610e+00 +0.0000000000000000e+00 -3.9999999988669843e-01 +4.1225362402026492e-05 +0.0000000000000000e+00 +9.9999999915023474e-01
-5.0000000000000000e-01 +9.0449871170903666e+00 +0.0000000000000000e+00 -4.9999999977870724e-01 +5.1531797627414582e-05 +0.0000000000000000e+00 +9.9999999867223688e-01
-5.9999999999999998e-01 +9.0449814485873148e+00 +0.0000000000000000e+00 -5.9999999961760497e-01 +6.1838269467424042e-05 +0.0000000000000000e+00 +9.9999999808801421e-01
-6.9999999999999996e-01 +9.0449747494352710e+00 +0.0000000000000000e+00 -6.9999999939276913e-01 +7.2144777381145261e-05 +0.0000000000000000e+00 +9.9999999739756551e-01
-7.9999999999999993e-01 +9.0449670196306524e+00 +0.0000000000000000e+00 -7.9999999909357711e-01 +8.2451320871526940e-05 +0.0000000000000000e+00 +9.9999999660088978e-01
-8.9999999999999991e-01 +9.0449582591699258e+00 +0.0000000000000000e+00 -8.9999999870940617e-01 +9.2757899485374875e-05 +0.0000000000000000e+00 +9.9999999569798603e-01
-9.9999999999999989e-01 +9.0449484680495988e+00 +0.0000000000000000e+00 -9.9999999822963337e-01 +1.0306451281335095e-04 +0.0000000000000000e+00 +9.9999999468885303e-01
-1.0999999999999999e+00 +9.0449376462662183e+00 +0.0000000000000000e+00 -1.0999999976436357e+00 +1.1337116048997225e-04 +0.0000000000000000e+00 +9.9999999357348990e-01
-1.2000000000000000e+00 +9.0449257938163665e+00 +0.0000000000000000e+00 -1.1999999969407902e+00 +1.2367784219361033e-04 +0.0000000000000000e+00 +9.9999999235189563e-01
-1.3000000000000000e+00 +9.0449129106966542e+00 +0.0000000000000000e+00 -1.2999999961104738e+00 +1.3398455764649069e-04 +0.0000000000000000e+00 +9.9999999102406911e-01
-1.4000000000000001e+00 +9.0448989969037203e+00 +0.0000000000000000e+00 -1.3999999951420630e+00 +1.4429130661469230e-04 +0.0000000000000000e+00 +9.9999998959000935e-01
-1.5000000000000002e+00 +9.0448840524342220e+00 +0.0000000000000000e+00 -1.4999999940249344e+00 +1.5459808890814732e-04 +0.0000000000000000e+00 +9.9999998804971535e-01
-1.6000000000000003e+00 +9.0448680772848338e+00 +0.0000000000000000e+00 -1.5999999927484647e+00 +1.6490490437779819e-04 +0.0000000000000000e+00 +9.9999998640318610e-01
-1.7000000000000004e+00 +9.0448510714522445e+00 +0.0000000000000000e+00 -1.6999999913020303e+00 +1.7521175288432583e-04 +0.0000000000000000e+00 +9.9999998465042061e-01
-1.8000000000000005e+00 +9.0448330349331609e+00 +0.0000000000000000e+00 -1.7999999896750074e+00 +1.8551863426687768e-04 +0.0000000000000000e+00 +9.9999998279141789e-01
-1.9000000000000006e+00 +9.0448139677243020e+00 +0.0000000000000000e+00 -1.8999999878567724e+00 +1.9582554834022452e-04 +0.0000000000000000e+00 +9.9999998082617703e-01
-2.0000000000000004e+00 +9.0447938698224100e+00 +0.0000000000000000e+00 -1.9999999858367015e+00 +2.0613249489476030e-04 +0.0000000000000000e+00 +9.9999997875469693e-01
-2.1000000000000005e+00 +9.0447727412242482e+00 +0.0000000000000000e+00 -2.0999999836041705e+00 +2.1643947369650199e-04 +0.0000000000000000e+00 +9.9999997657697670e-01
-2.2000000000000006e+00 +9.0447505819266052e+00 +0.0000000000000000e+00 -2.1999999811485553e+00 +2.2674648448708945e-04 +0.0000000000000000e+00 +9.9999997429301546e-01
-2.3000000000000007e+00 +9.0447273919262940e+00 +0.0000000000000000e+00 -2.2999999784592320e+00 +2.3705352698378537e-04 +0.0000000000000000e+00 +9.9999997190281220e-01
-2.4000000000000008e+00 +9.0447031712201618e+00 +0.0000000000000000e+00 -2.3999999755255761e+00 +2.4736060087947543e-04 +0.0000000000000000e+00 +9.9999996940636604e-01
-2.5000000000000009e+00 +9.0446779198050837e+00 +0.0000000000000000e+00 -2.4999999723369637e+00 +2.5766770584266838e-04 +0.0000000000000000e+00 +9.9999996680367609e-01
-2.6000000000000010e+00 +9.0446516376779709e+00 +0.0000000000000000e+00 -2.5999999688827700e+00 +2.6797484151749618e-04 +0.0000000000000000e+00 +9.9999996409474146e-01
-2.7000000000000011e+00 +9.0446243248357696e+00 +0.0000000000000000e+00 -2.6999999651523705e+00 +2.7828200752371432e-04 +0.0000000000000000e+00 +9.9999996127956137e-01
-2.8000000000000012e+00 +9.0445959812754690e+00 +0.0000000000000000e+00 -2.7999999611351409e+00 +2.8858920345670207e-04 +0.0000000000000000e+00 +9.9999995835813493e-01
-2.9000000000000012e+00 +9.0445666069940955e+00 +0.0000000000000000e+00 -2.8999999568204560e+00 +2.9889642888746297e-04 +0.0000000000000000e+00 +9.9999995533046138e-01
-3.0000000000000013e+00 +9.0445362019887234e+00 +0.0000000000000000e+00 -2.9999999521976912e+00 +3.0920368336262514e-04 +0.0000000000000000e+00 +9.9999995219653992e-01
-3.1000000000000014e+00 +9.0445047662564715e+00 +0.0000000000000000e+00 -3.0999999472562223e+00 +3.1951096640444194e-04 +0.0000000000000000e+00 +9.9999994895636979e-01
-3.2000000000000015e+00 +9.0444722997945082e+00 +0.0000000000000000e+00 -3.1999999419854239e+00 +3.2981827751079262e-04 +0.0000000000000000e+00 +9.9999994560995031e-01
-3.3000000000000016e+00 +9.0444388026000517e+00 +0.0000000000000000e+00 -3.2999999363746708e+00 +3.4012561615518274e-04 +0.0000000000000000e+00 +9.9999994215728083e-01
-3.4000000000000017e+00 +9.0444042746703772e+00 +0.0000000000000000e+00 -3.3999999304133381e+00 +3.5043298178674519e-04 +0.0000000000000000e+00 +9.9999993859836067e-01
-3.5000000000000018e+00 +9.0443687160028148e+00 +0.0000000000000000e+00 -3.4999999240908011e+00 +3.6074037383024076e-04 +0.0000000000000000e+00 +9.9999993493318917e-01
-3.6000000000000019e+00 +9.0443321265947514e+00 +0.0000000000000000e+00 -3.5999999173964343e+00 +3.7104779168694837e-04 +0.0000000000000000e+00 +9.9999993116176566e-01
-3.7000000000000020e+00 +9.0442945064436380e+00 +0.0000000000000000e+00 -3.6999999103196126e+00 +3.8135523474444664e-04 +0.0000000000000000e+00 +9.9999992728408971e-01
-3.8000000000000020e+00 +9.0442558555469841e+00 +0.0000000000000000e+00 -3.7999999028497107e+00 +3.9166270238639696e-04 +0.0000000000000000e+00 +9.9999992330016074e-01
-3.9000000000000021e+00 +9.0442161739023614e+00 +0.0000000000000000e+00 -3.8999998949761032e+00 +4.0197019399343522e-04 +0.0000000000000000e+00 +9.9999991920997822e-01
-4.0000000000000018e+00 +9.0441754615074057e+00 +0.0000000000000000e+00 -3.9999998866881645e+00 +4.1227770894317474e-04 +0.0000000000000000e+00 +9.9999991501354168e-01
-4.1000000000000014e+00 +9.0441337183598147e+00 +0.0000000000000000e+00 -4.0999998779752698e+00 +4.2258524661020958e-04 +0.0000000000000000e+00 +9.9999991071085059e-01
-4.2000000000000011e+00 +9.0440909444573467e+00 +0.0000000000000000e+00 -4.1999998688267928e+00 +4.3289280636611769e-04 +0.0000000000000000e+00 +9.9999990630190461e-01
-4.3000000000000007e+00 +9.0440471397978257e+00 +0.0000000000000000e+00 -4.2999998592321083e+00 +4.4320038757946449e-04 +0.0000000000000000e+00 +9.9999990178670328e-01
-4.4000000000000004e+00 +9.0440023043791360e+00 +0.0000000000000000e+00 -4.3999998491805909e+00 +4.5350798961580648e-04 +0.0000000000000000e+00 +9.9999989716524629e-01
-4.5000000000000000e+00 +9.0439564381992295e+00 +0.0000000000000000e+00 -4.4999998386616156e+00 +4.6381561183769522e-04 +0.0000000000000000e+00 +9.9999989243753318e-01
-4.5999999999999996e+00 +9.0439095412561183e+00 +0.0000000000000000e+00 -4.5999998276645560e+00 +4.7412325360468116e-04 +0.0000000000000000e+00 +9.9999988760356373e-01
-4.6999999999999993e+00 +9.0438616135478789e+00 +0.0000000000000000e+00 -4.6999998161787868e+00 +4.8443091427331807e-04 +0.0000000000000000e+00 +9.9999988266333761e-01
-4.7999999999999989e+00 +9.0438126550726547e+00 +0.0000000000000000e+00 -4.7999998041936820e+00 +4.9473859319716716e-04 +0.0000000000000000e+00 +9.9999987761685460e-01
-4.8999999999999986e+00 +9.0437626658286518e+00 +0.0000000000000000e+00 -4.8999997916986162e+00 +5.0504628972680200e-04 +0.0000000000000000e+00 +9.9999987246411437e-01
-4.9999999999999982e+00 +9.0437116458141436e+00 +0.0000000000000000e+00 -4.9999997786829633e+00 +5.1535400320981294e-04 +0.0000000000000000e+00 +9.9999986720511680e-01
-5.0999999999999979e+00 +9.0436595950274672e+00 +0.0000000000000000e+00 -5.0999997651360980e+00 +5.2566173299081222e-04 +0.0000000000000000e+00 +9.9999986183986167e-01
-5.1999999999999975e+00 +9.0436065134670240e+00 +0.0000000000000000e+00 -5.1999997510473941e+00 +5.3596947841143901e-04 +0.0000000000000000e+00 +9.9999985636834876e-01
-5.2999999999999972e+00 +9.0435524011312847e+00 +0.0000000000000000e+00 -5.2999997364062263e+00 +5.4627723881036456e-04 +0.0000000000000000e+00 +9.9999985079057807e-01
-5.3999999999999968e+00 +9.0434972580187853e+00 +0.0000000000000000e+00 -5.3999997212019686e+00 +5.5658501352329800e-04 +0.0000000000000000e+00 +9.9999984510654938e-01
-5.4999999999999964e+00 +9.0434410841281263e+00 +0.0000000000000000e+00 -5.4999997054239946e+00 +5.6689280188299159e-04 +0.0000000000000000e+00 +9.9999983931626268e-01
-5.5999999999999961e+00 +9.0433838794579771e+00 +0.0000000000000000e+00 -5.5999996890616792e+00 +5.7720060321980586e-04 +0.0000000000000000e+00 +9.9999983341971799e-01
-5.6999999999999957e+00 +9.0433256440070728e+00 +0.0000000000000000e+00 -5.6999996721043962e+00 +5.8750841686786297e-04 +0.0000000000000000e+00 +9.9999982741691518e-01
-5.7999999999999954e+00 +9.0432663777742146e+00 +0.0000000000000000e+00 -5.7999996545415202e+00 +5.9781624217119644e-04 +0.0000000000000000e+00 +9.9999982130785436e-01
-5.8999999999999950e+00 +9.0432060807582708e+00 +0.0000000000000000e+00 -5.8999996363624252e+00 +6.0812407848430850e-04 +0.0000000000000000e+00 +9.9999981509253555e-01
-5.9999999999999947e+00 +9.0431447529581721e+00 +0.0000000000000000e+00 -5.9999996175564858e+00 +6.1843192517216806e-04 +0.0000000000000000e+00 +9.9999980877095873e-01
-6.0999999999999943e+00 +9.0430823943729113e+00 +0.0000000000000000e+00 -6.0999995981130750e+00 +6.2873978161020897e-04 +0.0000000000000000e+00 +9.9999980234312402e-01
-6.1999999999999940e+00 +9.0430190050015451e+00 +0.0000000000000000e+00 -6.1999995780215684e+00 +6.3904764718432730e-04 +0.0000000000000000e+00 +9.9999979580903153e-01
-6.2999999999999936e+00 +9.0429545848431907e+00 +0.0000000000000000e+00 -6.2999995572713399e+00 +6.4935552129087950e-04 +0.0000000000000000e+00 +9.9999978916868137e-01
-6.3999999999999932e+00 +9.0428891338970239e+00 +0.0000000000000000e+00 -6.3999995358517632e+00 +6.5966340333667938e-04 +0.0000000000000000e+00 +9.9999978242207355e-01
-6.4999999999999929e+00 +9.0428226521622790e+00 +0.0000000000000000e+00 -6.4999995137522131e+00 +6.6997129273899559e-04 +0.0000000000000000e+00 +9.9999977556920838e-01
-6.5999999999999925e+00 +9.0427551396382491e+00 +0.0000000000000000e+00 -6.5999994909620634e+00 +6.8027918892554881e-04 +0.0000000000000000e+00 +9.9999976861008588e-01
-6.6999999999999922e+00 +9.0426865963242857e+00 +0.0000000000000000e+00 -6.6999994674706889e+00 +6.9058709133450863e-04 +0.0000000000000000e+00 +9.9999976154470627e-01
-6.7999999999999918e+00 +9.0426170222197939e+00 +0.0000000000000000e+00 -6.7999994432674633e+00 +7.0089499941449016e-04 +0.0000000000000000e+00 +9.9999975437306976e-01
-6.8999999999999915e+00 +9.0425464173242318e+00 +0.0000000000000000e+00 -6.8999994183417614e+00 +7.1120291262455077e-04 +0.0000000000000000e+00 +9.9999974709517658e-01
-6.9999999999999911e+00 +9.0424747816371145e+00 +0.0000000000000000e+00 -6.9999993926829571e+00 +7.2151083043418666e-04 +0.0000000000000000e+00 +9.9999973971102696e-01
-7.0999999999999908e+00 +9.0424021151580085e+00 +0.0000000000000000e+00 -7.0999993662804251e+00 +7.3181875232332882e-04 +0.0000000000000000e+00 +9.9999973222062111e-01
-7.1999999999999904e+00 +9.0423284178865302e+00 +0.0000000000000000e+00 -7.1999993391235400e+00 +7.4212667778233955e-04 +0.0000000000000000e+00 +9.9999972462395925e-01
-7.2999999999999901e+00 +9.0422536898223491e+00 +0.0000000000000000e+00 -7.2999993112016757e+00 +7.5243460631200794e-04 +0.0000000000000000e+00 +9.9999971692104161e-01
-7.3999999999999897e+00 +9.0421779309651811e+00 +0.0000000000000000e+00 -7.3999992825042069e+00 +7.6274253742354594e-04 +0.0000000000000000e+00 +9.9999970911186853e-01
-7.4999999999999893e+00 +9.0421011413147934e+00 +0.0000000000000000e+00 -7.4999992530205075e+00 +7.7305047063858405e-04 +0.0000000000000000e+00 +9.9999970119644033e-01
-7.5999999999999890e+00 +9.0420233208709995e+00 +0.0000000000000000e+00 -7.5999992227399531e+00 +7.8335840548813857e-04 +0.0000000000000000e+00 +9.9999969317475723e-01
-7.6999999999999886e+00 +9.0419444696336573e+00 +0.0000000000000000e+00 -7.6999991916519175e+00 +7.9366634150130125e-04 +0.0000000000000000e+00 +9.9999968504681958e-01
-7.7999999999999883e+00 +9.0418645876026762e+00 +0.0000000000000000e+00 -7.7999991597457754e+00 +8.0397427819392801e-04 +0.0000000000000000e+00 +9.9999967681262780e-01
-7.8999999999999879e+00 +9.0417836747780118e+00 +0.0000000000000000e+00 -7.8999991270109016e+00 +8.1428221506760657e-04 +0.0000000000000000e+00 +9.9999966847218213e-01
-7.9999999999999876e+00 +9.0417017311596730e+00 +0.0000000000000000e+00 -7.9999990934366707e+00 +8.2459015160965120e-04 +0.0000000000000000e+00 +9.9999966002548313e-01
-8.0999999999999872e+00 +9.0416187567477184e+00 +0.0000000000000000e+00 -8.0999990590124575e+00 +8.3489808729309771e-04 +0.0000000000000000e+00 +9.9999965147253111e-01
-8.1999999999999869e+00 +9.0415347515422617e+00 +0.0000000000000000e+00 -8.1999990237276350e+00 +8.4520602157669804e-04 +0.0000000000000000e+00 +9.9999964281332665e-01
-8.2999999999999865e+00 +9.0414497155434681e+00 +0.0000000000000000e+00 -8.2999989875715805e+00 +8.5551395390491493e-04 +0.0000000000000000e+00 +9.9999963404787029e-01
-8.3999999999999861e+00 +9.0413636487515632e+00 +0.0000000000000000e+00 -8.3999989505336679e+00 +8.6582188370791621e-04 +0.0000000000000000e+00 +9.9999962517616248e-01
-8.4999999999999858e+00 +9.0412765511668294e+00 +0.0000000000000000e+00 -8.4999989126032709e+00 +8.7612981040156900e-04 +0.0000000000000000e+00 +9.9999961619820388e-01
-8.5999999999999854e+00 +9.0411884227896060e+00 +0.0000000000000000e+00 -8.5999988737697670e+00 +8.8643773338743391e-04 +0.0000000000000000e+00 +9.9999960711399505e-01
-8.6999999999999851e+00 +9.0410992636202963e+00 +0.0000000000000000e+00 -8.6999988340225283e+00 +8.9674565205275880e-04 +0.0000000000000000e+00 +9.9999959792353676e-01
-8.7999999999999847e+00 +9.0410090736593620e+00 +0.0000000000000000e+00 -8.7999987933509320e+00 +9.0705356577047268e-04 +0.0000000000000000e+00 +9.9999958862682958e-01
-8.8999999999999844e+00 +9.0409178529073291e+00 +0.0000000000000000e+00 -8.8999987517443522e+00 +9.1736147389917912e-04 +0.0000000000000000e+00 +9.9999957922387439e-01
-8.9999999999999840e+00 +9.0408256013647907e+00 +0.0000000000000000e+00 -8.9999987091921643e+00 +9.2766937578314971e-04 +0.0000000000000000e+00 +9.9999956971467185e-01
-9.0999999999999837e+00 +9.0407323190324043e+00 +0.0000000000000000e+00 -9.0999986656837439e+00 +9.3797727075231759e-04 +0.0000000000000000e+00 +9.9999956009922286e-01
-9.1999999999999833e+00 +9.0406380059108944e+00 +0.0000000000000000e+00 -9.1999986212084668e+00 +9.4828515812227015e-04 +0.0000000000000000e+00 +9.9999955037752819e-01
-9.2999999999999829e+00 +9.0405426620010569e+00 +0.0000000000000000e+00 -9.2999985757557084e+00 +9.5859303719424236e-04 +0.0000000000000000e+00 +9.9999954054958884e-01
-9.3999999999999826e+00 +9.0404462873037570e+00 +0.0000000000000000e+00 -9.3999985293148427e+00 +9.6890090725510933e-04 +0.0000000000000000e+00 +9.9999953061540570e-01
-9.4999999999999822e+00 +9.0403488818199307e+00 +0.0000000000000000e+00 -9.4999984818752470e+00 +9.7920876757737912e-04 +0.0000000000000000e+00 +9.9999952057497976e-01
-9.5999999999999819e+00 +9.0402504455505905e+00 +0.0000000000000000e+00 -9.5999984334262969e+00 +9.8951661741973184e-04 +0.0000000000000000e+00 +9.9999951042831203e-01
-9.6999999999999815e+00 +9.0401509784968219e+00 +0.0000000000000000e+00 -9.6999983839573680e+00 +9.9982445603302630e-04 +0.0000000000000000e+00 +9.9999950017540362e-01
-9.7999999999999812e+00 +9.0400504806597848e+00 +0.0000000000000000e+00 -9.7999983334578360e+00 +1.0101322826663128e-03 +0.0000000000000000e+00 +9.9999948981625564e-01
-9.8999999999999808e+00 +9.0399489520407137e+00 +0.0000000000000000e+00 -9.8999982819170782e+00 +1.0204400965673820e-03 +0.0000000000000000e+00 +9.9999947935086919e-01
-9.9999999999999805e+00 +9.0398463926409214e+00 +0.0000000000000000e+00 -9.9999982293244685e+00 +1.0307478969827655e-03 +0.0000000000000000e+00 +9.9999946877924539e-01
-1.0099999999999980e+01 +9.0397428024617934e+00 +0.0000000000000000e+00 -1.0099998175669386e+01 +1.0410556831577395e-03 +0.0000000000000000e+00 +9.9999945810138546e-01
-1.0199999999999980e+01 +9.0396381815047899e+00 +0.0000000000000000e+00 -1.0199998120941205e+01 +1.0513634543363264e-03 +0.0000000000000000e+00 +9.9999944731729073e-01
-1.0299999999999979e+01 +9.0395325297714511e+00 +0.0000000000000000e+00 -1.0299998065129303e+01 +1.0616712097612966e-03 +0.0000000000000000e+00 +9.9999943642696243e-01
-1.0399999999999979e+01 +9.0394258472633879e+00 +0.0000000000000000e+00 -1.0399998008223056e+01 +1.0719789486741715e-03 +0.0000000000000000e+00 +9.9999942543040177e-01
-1.0499999999999979e+01 +9.0393181339822917e+00 +0.0000000000000000e+00 -1.0499997950211842e+01 +1.0822866703152259e-03 +0.0000000000000000e+00 +9.9999941432761019e-01
-1.0599999999999978e+01 +9.0392093899299262e+00 +0.0000000000000000e+00 -1.0599997891085037e+01 +1.0925943739234902e-03 +0.0000000000000000e+00 +9.9999940311858893e-01
-1.0699999999999978e+01 +9.0390996151081335e+00 +0.0000000000000000e+00 -1.0699997830832018e+01 +1.1029020587367535e-03 +0.0000000000000000e+00 +9.9999939180333952e-01
-1.0799999999999978e+01 +9.0389888095188304e+00 +0.0000000000000000e+00 -1.0799997769442163e+01 +1.1132097239915663e-03 +0.0000000000000000e+00 +9.9999938038186331e-01
-1.0899999999999977e+01 +9.0388769731640117e+00 +0.0000000000000000e+00 -1.0899997706904848e+01 +1.1235173689232430e-03 +0.0000000000000000e+00 +9.9999936885416174e-01
-1.0999999999999977e+01 +9.0387641060457486e+00 +0.0000000000000000e+00 -1.0999997643209454e+01 +1.1338249927658650e-03 +0.0000000000000000e+00 +9.9999935722023636e-01
-1.1099999999999977e+01 +9.0386502081661870e+00 +0.0000000000000000e+00 -1.1099997578345356e+01 +1.1441325947522841e-03 +0.0000000000000000e+00 +9.9999934548008862e-01
-1.1199999999999976e+01 +9.0385352795275526e+00 +0.0000000000000000e+00 -1.1199997512301932e+01 +1.1544401741141251e-03 +0.0000000000000000e+00 +9.9999933363372018e-01
-1.1299999999999976e+01 +9.0384193201321441e+00 +0.0000000000000000e+00 -1.1299997445068559e+01 +1.1647477300817896e-03 +0.0000000000000000e+00 +9.9999932168113259e-01
-1.1399999999999975e+01 +9.0383023299823417e+00 +0.0000000000000000e+00 -1.1399997376634618e+01 +1.1750552618844587e-03 +0.0000000000000000e+00 +9.9999930962232741e-01
-1.1499999999999975e+01 +9.0381843090805987e+00 +0.0000000000000000e+00 -1.1499997306989485e+01 +1.1853627687500969e-03 +0.0000000000000000e+00 +9.9999929745730642e-01
-1.1599999999999975e+01 +9.0380652574294480e+00 +0.0000000000000000e+00 -1.1599997236122539e+01 +1.1956702499059634e-03 +0.0000000000000000e+00 +9.9999928518607129e-01
-1.1699999999999974e+01 +9.0379451750314992e+00 +0.0000000000000000e+00 -1.1699997164023159e+01 +1.2059777045842026e-03 +0.0000000000000000e+00 +9.9999927280862366e-01
