# trajectory
# s[mm] rx[mm] ry[mm] rz[mm] px[rad] py[rad] pz[rad]
0.0000000000000000e+00 +9.1163000000000007e+00 +0.0000000000000000e+00 +0.0000000000000000e+00 +0.0000000000000000e+00 +0.0000000000000000e+00 +1.0000000000000000e+00
1.0000000000000001e-01 +9.1162994831381940e+00 +0.0000000000000000e+00 +9.9999999998219027e-02 -1.0337237396014228e-05 +0.0000000000000000e+00 +9.9999999994657074e-01
2.0000000000000001e-01 +9.1162979325522731e+00 +0.0000000000000000e+00 +1.9999999998575219e-01 -2.0674482265407776e-05 +0.0000000000000000e+00 +9.9999999978628284e-01
3.0000000000000004e-01 +9.1162953482414917e+00 +0.0000000000000000e+00 +2.9999999995191362e-01 -3.1011734584290415e-05 +0.0000000000000000e+00 +9.9999999951913610e-01
4.0000000000000002e-01 +9.1162917302051092e+00 +0.0000000000000000e+00 +3.9999999988601742e-01 -4.1348994281803874e-05 +0.0000000000000000e+00 +9.9999999914513027e-01
5.0000000000000000e-01 +9.1162870784423937e+00 +0.0000000000000000e+00 +4.9999999977737769e-01 -5.1686261240125729e-05 +0.0000000000000000e+00 +9.9999999866426514e-01
5.9999999999999998e-01 +9.1162813929526259e+00 +0.0000000000000000e+00 +5.9999999961530848e-01 -6.2023535296078865e-05 +0.0000000000000000e+00 +9.9999999807654050e-01
6.9999999999999996e-01 +9.1162746737351057e+00 +0.0000000000000000e+00 +6.9999999938912383e-01 -7.2360816258796684e-05 +0.0000000000000000e+00 +9.9999999738195611e-01
7.9999999999999993e-01 +9.1162669207891511e+00 +0.0000000000000000e+00 +7.9999999908813768e-01 -8.2698103927388098e-05 +0.0000000000000000e+00 +9.9999999658051175e-01
8.9999999999999991e-01 +9.1162581341141031e+00 +0.0000000000000000e+00 +8.9999999870166414e-01 -9.3035398092546727e-05 +0.0000000000000000e+00 +9.9999999567220732e-01
9.9999999999999989e-01 +9.1162483137093222e+00 +0.0000000000000000e+00 +9.9999999821901708e-01 -1.0337269853655439e-04 +0.0000000000000000e+00 +9.9999999465704259e-01
1.0999999999999999e+00 +9.1162374595741937e+00 +0.0000000000000000e+00 +1.0999999976295105e+00 -1.1371000503328457e-04 +0.0000000000000000e+00 +9.9999999353501734e-01
1.2000000000000000e+00 +9.1162255717081226e+00 +0.0000000000000000e+00 +1.1999999969224584e+00 -1.2404731734820578e-04 +0.0000000000000000e+00 +9.9999999230613146e-01
1.3000000000000000e+00 +9.1162126501105387e+00 +0.0000000000000000e+00 +1.2999999960871746e+00 -1.3438463523838477e-04 +0.0000000000000000e+00 +9.9999999097038483e-01
1.4000000000000001e+00 +9.1161986947808966e+00 +0.0000000000000000e+00 +1.3999999951129733e+00 -1.4472195845248976e-04 +0.0000000000000000e+00 +9.9999998952777724e-01
1.5000000000000002e+00 +9.1161837057186794e+00 +0.0000000000000000e+00 +1.4999999939891682e+00 -1.5505928673079358e-04 +0.0000000000000000e+00 +9.9999998797830869e-01
1.6000000000000003e+00 +9.1161676829233915e+00 +0.0000000000000000e+00 +1.5999999927050730e+00 -1.6539661980517656e-04 +0.0000000000000000e+00 +9.9999998632197895e-01
1.7000000000000004e+00 +9.1161506263945675e+00 +0.0000000000000000e+00 +1.6999999912500019e+00 -1.7573395739912961e-04 +0.0000000000000000e+00 +9.9999998455878791e-01
1.8000000000000005e+00 +9.1161325361317704e+00 +0.0000000000000000e+00 +1.7999999896132686e+00 -1.8607129922775702e-04 +0.0000000000000000e+00 +9.9999998268873558e-01
1.9000000000000006e+00 +9.1161134121345899e+00 +0.0000000000000000e+00 +1.8999999877841869e+00 -1.9640864499777917e-04 +0.0000000000000000e+00 +9.9999998071182183e-01
2.0000000000000004e+00 +9.1160932544026494e+00 +0.0000000000000000e+00 +1.9999999857520707e+00 -2.0674599440753528e-04 +0.0000000000000000e+00 +9.9999997862804657e-01
2.1000000000000005e+00 +9.1160720629355989e+00 +0.0000000000000000e+00 +2.0999999835062342e+00 -2.1708334714698598e-04 +0.0000000000000000e+00 +9.9999997643740979e-01
2.2000000000000006e+00 +9.1160498377331205e+00 +0.0000000000000000e+00 +2.1999999810359907e+00 -2.2742070289771588e-04 +0.0000000000000000e+00 +9.9999997413991148e-01
2.3000000000000007e+00 +9.1160265787949299e+00 +0.0000000000000000e+00 +2.2999999783306544e+00 -2.3775806133293593e-04 +0.0000000000000000e+00 +9.9999997173555166e-01
2.4000000000000008e+00 +9.1160022861207750e+00 +0.0000000000000000e+00 +2.3999999753795391e+00 -2.4809542211748581e-04 +0.0000000000000000e+00 +9.9999996922433021e-01
2.5000000000000009e+00 +9.1159769597104390e+00 +0.0000000000000000e+00 +2.4999999721719584e+00 -2.5843278490783622e-04 +0.0000000000000000e+00 +9.9999996660624724e-01
2.6000000000000010e+00 +9.1159505995637389e+00 +0.0000000000000000e+00 +2.5999999686972264e+00 -2.6877014935416390e-04 +0.0000000000000000e+00 +9.9999996388130274e-01
2.7000000000000011e+00 +9.1159232056805255e+00 +0.0000000000000000e+00 +2.6999999649446567e+00 -2.7910751512315660e-04 +0.0000000000000000e+00 +9.9999996104949673e-01
2.8000000000000012e+00 +9.1158947780606816e+00 +0.0000000000000000e+00 +2.7999999609035635e+00 -2.8944488192082085e-04 +0.0000000000000000e+00 +9.9999995811082931e-01
2.9000000000000012e+00 +9.1158653167041166e+00 +0.0000000000000000e+00 +2.8999999565632604e+00 -2.9978224949456239e-04 +0.0000000000000000e+00 +9.9999995506530048e-01
3.0000000000000013e+00 +9.1158348216107647e+00 +0.0000000000000000e+00 +2.9999999519130616e+00 -3.1011961763319440e-04 +0.0000000000000000e+00 +9.9999995191291025e-01
3.1000000000000014e+00 +9.1158032927805781e+00 +0.0000000000000000e+00 +3.0999999469422805e+00 -3.2045698616694606e-04 +0.0000000000000000e+00 +9.9999994865365871e-01
3.2000000000000015e+00 +9.1157707302135229e+00 +0.0000000000000000e+00 +3.1999999416402312e+00 -3.3079435496747130e-04 +0.0000000000000000e+00 +9.9999994528754588e-01
3.3000000000000016e+00 +9.1157371339095778e+00 +0.0000000000000000e+00 +3.2999999359962278e+00 -3.4113172394785836e-04 +0.0000000000000000e+00 +9.9999994181457175e-01
3.4000000000000017e+00 +9.1157025038687287e+00 +0.0000000000000000e+00 +3.3999999299995838e+00 -3.5146909306263950e-04 +0.0000000000000000e+00 +9.9999993823473643e-01
3.5000000000000018e+00 +9.1156668400909613e+00 +0.0000000000000000e+00 +3.4999999236396131e+00 -3.6180646230780125e-04 +0.0000000000000000e+00 +9.9999993454803981e-01
3.6000000000000019e+00 +9.1156301425762614e+00 +0.0000000000000000e+00 +3.5999999169056296e+00 -3.7214383172079490e-04 +0.0000000000000000e+00 +9.9999993075448190e-01
3.7000000000000020e+00 +9.1155924113246094e+00 +0.0000000000000000e+00 +3.6999999097869471e+00 -3.8248120138054760e-04 +0.0000000000000000e+00 +9.9999992685406269e-01
3.8000000000000020e+00 +9.1155536463359734e+00 +0.0000000000000000e+00 +3.7999999022728801e+00 -3.9281857140747387e-04 +0.0000000000000000e+00 +9.9999992284678207e-01
3.9000000000000021e+00 +9.1155138476103108e+00 +0.0000000000000000e+00 +3.8999998943527419e+00 -4.0315594196348745e-04 +0.0000000000000000e+00 +9.9999991873264005e-01
4.0000000000000018e+00 +9.1154730151475576e+00 +0.0000000000000000e+00 +3.9999998860158463e+00 -4.1349331325201349e-04 +0.0000000000000000e+00 +9.9999991451163639e-01
4.1000000000000014e+00 +9.1154311489476285e+00 +0.0000000000000000e+00 +4.0999998772515074e+00 -4.2383068551800135e-04 +0.0000000000000000e+00 +9.9999991018377110e-01
4.2000000000000011e+00 +9.1153882490104117e+00 +0.0000000000000000e+00 +4.1999998680490389e+00 -4.3416805904793773e-04 +0.0000000000000000e+00 +9.9999990574904396e-01
4.3000000000000007e+00 +9.1153443153357649e+00 +0.0000000000000000e+00 +4.2999998583977543e+00 -4.4450543416986004e-04 +0.0000000000000000e+00 +9.9999990120745474e-01
4.4000000000000004e+00 +9.1152993479235125e+00 +0.0000000000000000e+00 +4.3999998482869680e+00 -4.5484281125337059e-04 +0.0000000000000000e+00 +9.9999989655900334e-01
4.5000000000000000e+00 +9.1152533467734358e+00 +0.0000000000000000e+00 +4.4999998377059933e+00 -4.6518019070965080e-04 +0.0000000000000000e+00 +9.9999989180368942e-01
4.5999999999999996e+00 +9.1152063118852755e+00 +0.0000000000000000e+00 +4.5999998266441438e+00 -4.7551757299055085e-04 +0.0000000000000000e+00 +9.9999988694151265e-01
4.6999999999999993e+00 +9.1151582432587261e+00 +0.0000000000000000e+00 +4.6999998150907336e+00 -4.8585495857842641e-04 +0.0000000000000000e+00 +9.9999988197247280e-01
4.7999999999999989e+00 +9.1151091408934324e+00 +0.0000000000000000e+00 +4.7999998030350763e+00 -4.9619234797596945e-04 +0.0000000000000000e+00 +9.9999987689656944e-01
4.8999999999999986e+00 +9.1150590047889875e+00 +0.0000000000000000e+00 +4.8999997904664854e+00 -5.0652974170528793e-04 +0.0000000000000000e+00 +9.9999987171380222e-01
4.9999999999999982e+00 +9.1150078349449295e+00 +0.0000000000000000e+00 +4.9999997773742741e+00 -5.1686714030790978e-04 +0.0000000000000000e+00 +9.9999986642417082e-01
5.0999999999999979e+00 +9.1149556313607452e+00 +0.0000000000000000e+00 +5.0999997637477570e+00 -5.2720454434478721e-04 +0.0000000000000000e+00 +9.9999986102767469e-01
5.1999999999999975e+00 +9.1149023940358607e+00 +0.0000000000000000e+00 +5.1999997495762473e+00 -5.3754195439630059e-04 +0.0000000000000000e+00 +9.9999985552431336e-01
5.2999999999999972e+00 +9.1148481229696454e+00 +0.0000000000000000e+00 +5.2999997348490577e+00 -5.4787937106226244e-04 +0.0000000000000000e+00 +9.9999984991408630e-01
5.3999999999999968e+00 +9.1147928181614066e+00 +0.0000000000000000e+00 +5.3999997195555025e+00 -5.5821679496192056e-04 +0.0000000000000000e+00 +9.9999984419699295e-01
5.4999999999999964e+00 +9.1147364796103894e+00 +0.0000000000000000e+00 +5.4999997036848942e+00 -5.6855422673396199e-04 +0.0000000000000000e+00 +9.9999983837303275e-01
5.5999999999999961e+00 +9.1146791073157747e+00 +0.0000000000000000e+00 +5.5999996872265463e+00 -5.7889166703651576e-04 +0.0000000000000000e+00 +9.9999983244220503e-01
5.6999999999999957e+00 +9.1146207012766745e+00 +0.0000000000000000e+00 +5.6999996701697722e+00 -5.8922911654715618e-04 +0.0000000000000000e+00 +9.9999982640450924e-01
5.7999999999999954e+00 +9.1145612614921347e+00 +0.0000000000000000e+00 +5.7999996525038853e+00 -5.9956657596290589e-04 +0.0000000000000000e+00 +9.9999982025994449e-01
5.8999999999999950e+00 +9.1145007879611288e+00 +0.0000000000000000e+00 +5.8999996342181982e+00 -6.0990404600023832e-04 +0.0000000000000000e+00 +9.9999981400851023e-01
5.9999999999999947e+00 +9.1144392806825572e+00 +0.0000000000000000e+00 +5.9999996153020243e+00 -6.2024152739508030e-04 +0.0000000000000000e+00 +9.9999980765020557e-01
6.0999999999999943e+00 +9.1143767396552455e+00 +0.0000000000000000e+00 +6.0999995957446771e+00 -6.3057902090281445e-04 +0.0000000000000000e+00 +9.9999980118502962e-01
6.1999999999999940e+00 +9.1143131648779470e+00 +0.0000000000000000e+00 +6.1999995755354682e+00 -6.4091652729828137e-04 +0.0000000000000000e+00 +9.9999979461298161e-01
6.2999999999999936e+00 +9.1142485563493310e+00 +0.0000000000000000e+00 +6.2999995546637111e+00 -6.5125404737578167e-04 +0.0000000000000000e+00 +9.9999978793406064e-01
6.3999999999999932e+00 +9.1141829140679889e+00 +0.0000000000000000e+00 +6.3999995331187183e+00 -6.6159158194907769e-04 +0.0000000000000000e+00 +9.9999978114826560e-01
6.4999999999999929e+00 +9.1141162380324303e+00 +0.0000000000000000e+00 +6.4999995108898023e+00 -6.7192913185139529e-04 +0.0000000000000000e+00 +9.9999977425559561e-01
6.5999999999999925e+00 +9.1140485282410797e+00 +0.0000000000000000e+00 +6.5999994879662749e+00 -6.8226669793107443e-04 +0.0000000000000000e+00 +9.9999976725604955e-01
6.6999999999999922e+00 +9.1139797846922779e+00 +0.0000000000000000e+00 +6.6999994643374494e+00 -6.9260428100370889e-04 +0.0000000000000000e+00 +9.9999976014962644e-01
6.7999999999999918e+00 +9.1139100073842876e+00 +0.0000000000000000e+00 +6.7999994399926376e+00 -7.0294188180428281e-04 +0.0000000000000000e+00 +9.9999975293632515e-01
6.8999999999999915e+00 +9.1138391963153040e+00 +0.0000000000000000e+00 +6.8999994149211519e+00 -7.1327950098281517e-04 +0.0000000000000000e+00 +9.9999974561614469e-01
6.9999999999999911e+00 +9.1137673514834603e+00 +0.0000000000000000e+00 +6.9999993891123040e+00 -7.2361713910435528e-04 +0.0000000000000000e+00 +9.9999973818908405e-01
7.0999999999999908e+00 +9.1136944728868361e+00 +0.0000000000000000e+00 +7.0999993625554056e+00 -7.3395479664897757e-04 +0.0000000000000000e+00 +9.9999973065514225e-01
7.1999999999999904e+00 +9.1136205605234704e+00 +0.0000000000000000e+00 +7.1999993352397693e+00 -7.4429247401177592e-04 +0.0000000000000000e+00 +9.9999972301431850e-01
7.2999999999999901e+00 +9.1135456143913629e+00 +0.0000000000000000e+00 +7.2999993071547067e+00 -7.5463017150285820e-04 +0.0000000000000000e+00 +9.9999971526661191e-01
7.3999999999999897e+00 +9.1134696344884905e+00 +0.0000000000000000e+00 +7.3999992782895294e+00 -7.6496788934733999e-04 +0.0000000000000000e+00 +9.9999970741202160e-01
7.4999999999999893e+00 +9.1133926208128102e+00 +0.0000000000000000e+00 +7.4999992486335483e+00 -7.7530562768533785e-04 +0.0000000000000000e+00 +9.9999969945054690e-01
7.5999999999999890e+00 +9.1133145733622687e+00 +0.0000000000000000e+00 +7.5999992181760758e+00 -7.8564338657196241e-04 +0.0000000000000000e+00 +9.9999969138218714e-01
7.6999999999999886e+00 +9.1132354921348124e+00 +0.0000000000000000e+00 +7.6999991869064228e+00 -7.9598116597731140e-04 +0.0000000000000000e+00 +9.9999968320694177e-01
7.7999999999999883e+00 +9.1131553771283933e+00 +0.0000000000000000e+00 +7.7999991548139009e+00 -8.0631896578646153e-04 +0.0000000000000000e+00 +9.9999967492481012e-01
7.8999999999999879e+00 +9.1130742283409809e+00 +0.0000000000000000e+00 +7.8999991218878218e+00 -8.1665678579946079e-04 +0.0000000000000000e+00 +9.9999966653579175e-01
7.9999999999999876e+00 +9.1129920457705698e+00 +0.0000000000000000e+00 +7.9999990881174963e+00 -8.2699462573131979e-04 +0.0000000000000000e+00 +9.9999965803988633e-01
8.0999999999999872e+00 +9.1129088294151845e+00 +0.0000000000000000e+00 +8.0999990534922368e+00 -8.3733248521200337e-04 +0.0000000000000000e+00 +9.9999964943709341e-01
8.1999999999999869e+00 +9.1128245792728908e+00 +0.0000000000000000e+00 +8.1999990180013533e+00 -8.4767036378642104e-04 +0.0000000000000000e+00 +9.9999964072741288e-01
8.2999999999999865e+00 +9.1127392953418074e+00 +0.0000000000000000e+00 +8.2999989816341575e+00 -8.5800826091441773e-04 +0.0000000000000000e+00 +9.9999963191084462e-01
8.3999999999999861e+00 +9.1126529776201100e+00 +0.0000000000000000e+00 +8.3999989443799592e+00 -8.6834617597076388e-04 +0.0000000000000000e+00 +9.9999962298738854e-01
8.4999999999999858e+00 +9.1125656261060399e+00 +0.0000000000000000e+00 +8.4999989062280719e+00 -8.7868410824514507e-04 +0.0000000000000000e+00 +9.9999961395704473e-01
8.5999999999999854e+00 +9.1124772407979133e+00 +0.0000000000000000e+00 +8.5999988671678054e+00 -8.8902205694568357e-04 +0.0000000000000000e+00 +9.9999960481981331e-01
8.6999999999999851e+00 +9.1123878216941314e+00 +0.0000000000000000e+00 +8.6999988271884714e+00 -8.9936002123778256e-04 +0.0000000000000000e+00 +9.9999959557569462e-01
8.7999999999999847e+00 +9.1122973687931754e+00 +0.0000000000000000e+00 +8.7999987862793816e+00 -9.0969800028298242e-04 +0.0000000000000000e+00 +9.9999958622468887e-01
8.8999999999999844e+00 +9.1122058820936118e+00 +0.0000000000000000e+00 +8.8999987444298458e+00 -9.2003599324250087e-04 +0.0000000000000000e+00 +9.9999957676679629e-01
8.9999999999999840e+00 +9.1121133615940906e+00 +0.0000000000000000e+00 +8.9999987016291776e+00 -9.3037399927724143e-04 +0.0000000000000000e+00 +9.9999956720201733e-01
9.0999999999999837e+00 +9.1120198072933469e+00 +0.0000000000000000e+00 +9.0999986578666867e+00 -9.4071201754780264e-04 +0.0000000000000000e+00 +9.9999955753035241e-01
9.1999999999999833e+00 +9.1119252191901996e+00 +0.0000000000000000e+00 +9.1999986131316849e+00 -9.5105004721448693e-04 +0.0000000000000000e+00 +9.9999954775180189e-01
9.2999999999999829e+00 +9.1118295972835508e+00 +0.0000000000000000e+00 +9.2999985674134837e+00 -9.6138808743730987e-04 +0.0000000000000000e+00 +9.9999953786636619e-01
9.3999999999999826e+00 +9.1117329415723880e+00 +0.0000000000000000e+00 +9.3999985207013950e+00 -9.7172613737600945e-04 +0.0000000000000000e+00 +9.9999952787404578e-01
9.4999999999999822e+00 +9.1116352520557804e+00 +0.0000000000000000e+00 +9.4999984729847302e+00 -9.8206419619005611e-04 +0.0000000000000000e+00 +9.9999951777484131e-01
9.5999999999999819e+00 +9.1115365287328824e+00 +0.0000000000000000e+00 +9.5999984242528011e+00 -9.9240226303866233e-04 +0.0000000000000000e+00 +9.9999950756875322e-01
9.6999999999999815e+00 +9.1114367716029321e+00 +0.0000000000000000e+00 +9.6999983744949194e+00 -1.0027403370807923e-03 +0.0000000000000000e+00 +9.9999949725578208e-01
9.7999999999999812e+00 +9.1113359806652543e+00 +0.0000000000000000e+00 +9.7999983237003949e+00 -1.0130784174751731e-03 +0.0000000000000000e+00 +9.9999948683592865e-01
9.8999999999999808e+00 +9.1112341559192540e+00 +0.0000000000000000e+00 +9.8999982718585411e+00 -1.0234165033803043e-03 +0.0000000000000000e+00 +9.9999947630919350e-01
9.9999999999999805e+00 +9.1111312973644232e+00 +0.0000000000000000e+00 +9.9999982189586696e+00 -1.0337545939544690e-03 +0.0000000000000000e+00 +9.9999946567557729e-01
1.0099999999999980e+01 +9.1110274050003355e+00 +0.0000000000000000e+00 +1.0099998164990094e+01 -1.0440926883557443e-03 +0.0000000000000000e+00 +9.9999945493508080e-01
1.0199999999999980e+01 +9.1109224788266516e+00 +0.0000000000000000e+00 +1.0199998109942124e+01 -1.0544307857420128e-03 +0.0000000000000000e+00 +9.9999944408770480e-01
1.0299999999999979e+01 +9.1108165188431158e+00 +0.0000000000000000e+00 +1.0299998053804073e+01 -1.0647688852709737e-03 +0.0000000000000000e+00 +9.9999943313345008e-01
1.0399999999999979e+01 +9.1107095250495540e+00 +0.0000000000000000e+00 +1.0399997996565252e+01 -1.0751069861001542e-03 +0.0000000000000000e+00 +9.9999942207231751e-01
1.0499999999999979e+01 +9.1106014974458791e+00 +0.0000000000000000e+00 +1.0499997938214975e+01 -1.0854450873869208e-03 +0.0000000000000000e+00 +9.9999941090430788e-01
1.0599999999999978e+01 +9.1104924360320894e+00 +0.0000000000000000e+00 +1.0599997878742553e+01 -1.0957831882918091e-03 +0.0000000000000000e+00 +9.9999939962942219e-01
1.0699999999999978e+01 +9.1103823408082611e+00 +0.0000000000000000e+00 +1.0699997818137298e+01 -1.1061212880150268e-03 +0.0000000000000000e+00 +9.9999938824766121e-01
1.0799999999999978e+01 +9.1102712117745508e+00 +0.0000000000000000e+00 +1.0799997756388523e+01 -1.1164593858329496e-03 +0.0000000000000000e+00 +9.9999937675902595e-01
1.0899999999999977e+01 +9.1101590489311803e+00 +0.0000000000000000e+00 +1.0899997693485540e+01 -1.1267974811014359e-03 +0.0000000000000000e+00 +9.9999936516351706e-01
1.0999999999999977e+01 +9.1100458522784340e+00 +0.0000000000000000e+00 +1.0999997629417663e+01 -1.1371355732558237e-03 +0.0000000000000000e+00 +9.9999935346113533e-01
1.1099999999999977e+01 +9.1099316218166493e+00 +0.0000000000000000e+00 +1.1099997564174204e+01 -1.1474736618109255e-03 +0.0000000000000000e+00 +9.9999934165188131e-01
1.1199999999999976e+01 +9.1098163575462063e+00 +0.0000000000000000e+00 +1.1199997497744477e+01 -1.1578117463610243e-03 +0.0000000000000000e+00 +9.9999932973575567e-01
1.1299999999999976e+01 +9.1097000594675226e+00 +0.0000000000000000e+00 +1.1299997430117793e+01 -1.1681498265798701e-03 +0.0000000000000000e+00 +9.9999931771275885e-01
1.1399999999999975e+01 +9.1095827275810439e+00 +0.0000000000000000e+00 +1.1399997361283466e+01 -1.1784879022206747e-03 +0.0000000000000000e+00 +9.9999930558289130e-01
1.1499999999999975e+01 +9.1094643618872375e+00 +0.0000000000000000e+00 +1.1499997291230809e+01 -1.1888259731161067e-03 +0.0000000000000000e+00 +9.9999929334615334e-01
1.1599999999999975e+01 +9.1093449623865830e+00 +0.0000000000000000e+00 +1.1599997219949135e+01 -1.1991640391782873e-03 +0.0000000000000000e+00 +9.9999928100254531e-01
1.1699999999999974e+01 +9.1092245290795635e+00 +0.0000000000000000e+00 +1.1699997147427755e+01 -1.2095021003987851e-03 +0.0000000000000000e+00 +9.9999926855206733e-01
1.1799999999999974e+01 +9.1091030619666622e+00 +0.0000000000000000e+00 +1.1799997073655986e+01 -1.2198401568486105e-03 +0.0000000000000000e+00 +9.9999925599471939e-01
