# field on trajectory
# s[mm] rx[mm] ry[mm] rz[mm] bx[T] by[T] bz[T]
0.0000000000000000e+00 +9.1913000000000000e+00 +0.0000000000000000e+00 +0.0000000000000000e+00 +1.1048101756384090e-02 -1.0307990508831855e+00 -5.8762065807643725e-02
1.0000000000000001e-01 +9.1912994849570140e+00 +0.0000000000000000e+00 +9.9999999998231545e-02 +1.1047889850732014e-02 -1.0307990521344252e+00 -5.8762879061808250e-02
2.0000000000000001e-01 +9.1912979398280648e+00 +0.0000000000000000e+00 +1.9999999998585230e-01 +1.1047681805824910e-02 -1.0307989820730488e+00 -5.8763695521151890e-02
3.0000000000000004e-01 +9.1912953646132234e+00 +0.0000000000000000e+00 +2.9999999995225152e-01 +1.1047478486541151e-02 -1.0307988377688639e+00 -5.8764514809839637e-02
4.0000000000000002e-01 +9.1912917593126355e+00 +0.0000000000000000e+00 +3.9999999988681845e-01 +1.1047280757759140e-02 -1.0307986162914324e+00 -5.8765336551998490e-02
5.0000000000000000e-01 +9.1912871239265215e+00 +0.0000000000000000e+00 +4.9999999977894227e-01 +1.1047089484356487e-02 -1.0307983147100128e+00 -5.8766160371713921e-02
5.9999999999999998e-01 +9.1912814584551850e+00 +0.0000000000000000e+00 +5.9999999961801231e-01 +1.1046905321050363e-02 -1.0307979311834770e+00 -5.8766985866377991e-02
6.9999999999999996e-01 +9.1912747628990079e+00 +0.0000000000000000e+00 +6.9999999939341784e-01 +1.1046728081921761e-02 -1.0307974682301888e+00 -5.8767812526747260e-02
7.9999999999999993e-01 +9.1912670372584557e+00 +0.0000000000000000e+00 +7.9999999909454811e-01 +1.1046557370894598e-02 -1.0307969294580603e+00 -5.8768639816901912e-02
8.9999999999999991e-01 +9.1912582815340649e+00 +0.0000000000000000e+00 +8.9999999871079250e-01 +1.1046392791895740e-02 -1.0307963184745399e+00 -5.8769467200900531e-02
9.9999999999999989e-01 +9.1912484957264482e+00 +0.0000000000000000e+00 +9.9999999823154018e-01 +1.1046233948855941e-02 -1.0307956388865747e+00 -5.8770294142785340e-02
1.0999999999999999e+00 +9.1912376798362843e+00 +0.0000000000000000e+00 +1.0999999976461807e+00 +1.1046080445710777e-02 -1.0307948943005678e+00 -5.8771120106587034e-02
1.2000000000000000e+00 +9.1912258338643191e+00 +0.0000000000000000e+00 +1.1999999969441033e+00 +1.1045931886401588e-02 -1.0307940883223399e+00 -5.8771944556329871e-02
1.3000000000000000e+00 +9.1912129578113593e+00 +0.0000000000000000e+00 +1.2999999961146975e+00 +1.1045787874876414e-02 -1.0307932245570892e+00 -5.8772766956036622e-02
1.4000000000000001e+00 +9.1911990516782680e+00 +0.0000000000000000e+00 +1.3999999951473527e+00 +1.1045648015090937e-02 -1.0307923066093521e+00 -5.8773586769733564e-02
1.5000000000000002e+00 +9.1911841154659637e+00 +0.0000000000000000e+00 +1.4999999940314583e+00 +1.1045511911009415e-02 -1.0307913380829625e+00 -5.8774403461455599e-02
1.6000000000000003e+00 +9.1911681491754162e+00 +0.0000000000000000e+00 +1.5999999927564041e+00 +1.1045379166605630e-02 -1.0307903225810118e+00 -5.8775216495251081e-02
1.7000000000000004e+00 +9.1911511528076417e+00 +0.0000000000000000e+00 +1.6999999913115793e+00 +1.1045249385863806e-02 -1.0307892637058083e+00 -5.8776025335186895e-02
1.8000000000000005e+00 +9.1911331263636988e+00 +0.0000000000000000e+00 +1.7999999896863739e+00 +1.1045122172779583e-02 -1.0307881650588397e+00 -5.8776829445353528e-02
1.9000000000000006e+00 +9.1911140698446889e+00 +0.0000000000000000e+00 +1.8999999878701772e+00 +1.1044997131360923e-02 -1.0307870302407305e+00 -5.8777628289869946e-02
2.0000000000000004e+00 +9.1910939832517453e+00 +0.0000000000000000e+00 +1.9999999858523789e+00 +1.1044873865629072e-02 -1.0307858628512041e+00 -5.8778421332888714e-02
2.1000000000000005e+00 +9.1910728665860386e+00 +0.0000000000000000e+00 +2.0999999836223688e+00 +1.1044751979619502e-02 -1.0307846664890414e+00 -5.8779208038600872e-02
2.2000000000000006e+00 +9.1910507198487661e+00 +0.0000000000000000e+00 +2.1999999811695368e+00 +1.1044631077382827e-02 -1.0307834447520419e+00 -5.8779987871240988e-02
2.3000000000000007e+00 +9.1910275430411499e+00 +0.0000000000000000e+00 +2.2999999784832728e+00 +1.1044510762985793e-02 -1.0307822012369827e+00 -5.8780760295092278e-02
2.4000000000000008e+00 +9.1910033361644352e+00 +0.0000000000000000e+00 +2.3999999755529662e+00 +1.1044390640512184e-02 -1.0307809395395804e+00 -5.8781524774491382e-02
2.5000000000000009e+00 +9.1909780992198851e+00 +0.0000000000000000e+00 +2.4999999723680073e+00 +1.1044270314063760e-02 -1.0307796632544477e+00 -5.8782280773833545e-02
2.6000000000000010e+00 +9.1909518322087767e+00 +0.0000000000000000e+00 +2.5999999689177860e+00 +1.1044149418719012e-02 -1.0307783754612854e+00 -5.8783027811476284e-02
2.7000000000000011e+00 +9.1909245351323996e+00 +0.0000000000000000e+00 +2.6999999651916919e+00 +1.1044027713391049e-02 -1.0307770771840172e+00 -5.8783765621400329e-02
2.8000000000000012e+00 +9.1908962079920542e+00 +0.0000000000000000e+00 +2.7999999611791155e+00 +1.1043904987924413e-02 -1.0307757689330179e+00 -5.8784493991442109e-02
2.9000000000000012e+00 +9.1908668507890514e+00 +0.0000000000000000e+00 +2.8999999568694466e+00 +1.1043781032129690e-02 -1.0307744512191033e+00 -5.8785212709378781e-02
3.0000000000000013e+00 +9.1908364635247111e+00 +0.0000000000000000e+00 +2.9999999522520753e+00 +1.1043655635779814e-02 -1.0307731245536376e+00 -5.8785921562921915e-02
3.1000000000000014e+00 +9.1908050462003619e+00 +0.0000000000000000e+00 +3.0999999473163915e+00 +1.1043528588606355e-02 -1.0307717894486310e+00 -5.8786620339710903e-02
3.2000000000000015e+00 +9.1907725988173414e+00 +0.0000000000000000e+00 +3.1999999420517860e+00 +1.1043399680295815e-02 -1.0307704464168443e+00 -5.8787308827306539e-02
3.3000000000000016e+00 +9.1907391213769944e+00 +0.0000000000000000e+00 +3.2999999364476484e+00 +1.1043268700485940e-02 -1.0307690959718898e+00 -5.8787986813184451e-02
3.4000000000000017e+00 +9.1907046138806745e+00 +0.0000000000000000e+00 +3.3999999304933697e+00 +1.1043135438761998e-02 -1.0307677386283352e+00 -5.8788654084728775e-02
3.5000000000000018e+00 +9.1906690763297423e+00 +0.0000000000000000e+00 +3.4999999241783399e+00 +1.1042999684653075e-02 -1.0307663749018028e+00 -5.8789310429225514e-02
3.6000000000000019e+00 +9.1906325087255638e+00 +0.0000000000000000e+00 +3.5999999174919490e+00 +1.1042861227628382e-02 -1.0307650053090744e+00 -5.8789955633856202e-02
3.7000000000000020e+00 +9.1905949110695122e+00 +0.0000000000000000e+00 +3.6999999104235881e+00 +1.1042719857093543e-02 -1.0307636303681929e+00 -5.8790589485691373e-02
3.8000000000000020e+00 +9.1905562833629642e+00 +0.0000000000000000e+00 +3.7999999029626470e+00 +1.1042575362386878e-02 -1.0307622505985625e+00 -5.8791211771683970e-02
3.9000000000000021e+00 +9.1905166256073034e+00 +0.0000000000000000e+00 +3.8999998950985169e+00 +1.1042427532775720e-02 -1.0307608665210530e+00 -5.8791822278663121e-02
4.0000000000000018e+00 +9.1904759378039174e+00 +0.0000000000000000e+00 +3.9999998868205875e+00 +1.1042276157452673e-02 -1.0307594786581011e+00 -5.8792420793327409e-02
4.1000000000000014e+00 +9.1904342199541968e+00 +0.0000000000000000e+00 +4.0999998781182505e+00 +1.1042121025531945e-02 -1.0307580875338123e+00 -5.8793007102238531e-02
4.2000000000000011e+00 +9.1903914720595363e+00 +0.0000000000000000e+00 +4.1999998689808953e+00 +1.1041961926045611e-02 -1.0307566936740644e+00 -5.8793580991814871e-02
4.3000000000000007e+00 +9.1903476941213320e+00 +0.0000000000000000e+00 +4.2999998593979134e+00 +1.1041798647939902e-02 -1.0307552976066077e+00 -5.8794142248324847e-02
4.4000000000000004e+00 +9.1903028861409854e+00 +0.0000000000000000e+00 +4.3999998493586956e+00 +1.1041630980071502e-02 -1.0307538998611669e+00 -5.8794690657880573e-02
4.5000000000000000e+00 +9.1902570481198964e+00 +0.0000000000000000e+00 +4.4999998388526317e+00 +1.1041458711203841e-02 -1.0307525009695462e+00 -5.8795226006431348e-02
4.5999999999999996e+00 +9.1902101800594700e+00 +0.0000000000000000e+00 +4.5999998278691132e+00 +1.1041281735003709e-02 -1.0307511013357842e+00 -5.8795748273171584e-02
4.6999999999999993e+00 +9.1901622819611077e+00 +0.0000000000000000e+00 +4.6999998163975309e+00 +1.1041100365110374e-02 -1.0307497008456101e+00 -5.8796258210804246e-02
4.7999999999999989e+00 +9.1901133538262147e+00 +0.0000000000000000e+00 +4.7999998044272765e+00 +1.1040915020257136e-02 -1.0307482992549104e+00 -5.8796756765331352e-02
4.8999999999999986e+00 +9.1900633956561979e+00 +0.0000000000000000e+00 +4.8999997919477396e+00 +1.1040726119294395e-02 -1.0307468963194486e+00 -5.8797244882640494e-02
4.9999999999999982e+00 +9.1900124074524641e+00 +0.0000000000000000e+00 +4.9999997789483119e+00 +1.1040534081197239e-02 -1.0307454917948371e+00 -5.8797723508501994e-02
5.0999999999999979e+00 +9.1899603892164219e+00 +0.0000000000000000e+00 +5.0999997654183842e+00 +1.1040339325072986e-02 -1.0307440854365095e+00 -5.8798193588566236e-02
5.1999999999999975e+00 +9.1899073409494818e+00 +0.0000000000000000e+00 +5.1999997513473479e+00 +1.1040142270168769e-02 -1.0307426769996928e+00 -5.8798656068360863e-02
5.2999999999999972e+00 +9.1898532626530578e+00 +0.0000000000000000e+00 +5.2999997367245939e+00 +1.1039943335879085e-02 -1.0307412662393785e+00 -5.8799111893287972e-02
5.3999999999999968e+00 +9.1897981543285656e+00 +0.0000000000000000e+00 +5.3999997215395137e+00 +1.1039742941753358e-02 -1.0307398529102945e+00 -5.8799562008621388e-02
5.4999999999999964e+00 +9.1897420159774228e+00 +0.0000000000000000e+00 +5.4999997057814980e+00 +1.1039541507503501e-02 -1.0307384367668770e+00 -5.8800007359503796e-02
5.5999999999999961e+00 +9.1896848476010504e+00 +0.0000000000000000e+00 +5.5999996894399384e+00 +1.1039339453011507e-02 -1.0307370175632413e+00 -5.8800448890944081e-02
5.6999999999999957e+00 +9.1896266492008731e+00 +0.0000000000000000e+00 +5.6999996725042257e+00 +1.1039137198336983e-02 -1.0307355950531569e+00 -5.8800887547814470e-02
5.7999999999999954e+00 +9.1895674207783173e+00 +0.0000000000000000e+00 +5.7999996549637522e+00 +1.1038935163724730e-02 -1.0307341689900142e+00 -5.8801324274847799e-02
5.8999999999999950e+00 +9.1895071623348166e+00 +0.0000000000000000e+00 +5.8999996368079088e+00 +1.1038733769612329e-02 -1.0307327391268017e+00 -5.8801760016634702e-02
5.9999999999999947e+00 +9.1894458738718043e+00 +0.0000000000000000e+00 +5.9999996180260862e+00 +1.1038533436637687e-02 -1.0307313052160734e+00 -5.8802195717620798e-02
6.0999999999999943e+00 +9.1893835553907213e+00 +0.0000000000000000e+00 +6.0999995986076767e+00 +1.1038334585646630e-02 -1.0307298670099236e+00 -5.8802632322104011e-02
6.1999999999999940e+00 +9.1893202068930115e+00 +0.0000000000000000e+00 +6.1999995785420721e+00 +1.1038137637700455e-02 -1.0307284242599570e+00 -5.8803070774231657e-02
6.2999999999999936e+00 +9.1892558283801229e+00 +0.0000000000000000e+00 +6.2999995578186629e+00 +1.1037943014083505e-02 -1.0307269767172618e+00 -5.8803512017997737e-02
6.3999999999999932e+00 +9.1891904198535084e+00 +0.0000000000000000e+00 +6.3999995364268418e+00 +1.1037751136310779e-02 -1.0307255241323803e+00 -5.8803956997240163e-02
6.4999999999999929e+00 +9.1891239813146264e+00 +0.0000000000000000e+00 +6.4999995143560003e+00 +1.1037562426135461e-02 -1.0307240662552828e+00 -5.8804406655637895e-02
6.5999999999999925e+00 +9.1890565127649424e+00 +0.0000000000000000e+00 +6.5999994915955300e+00 +1.1037377183617095e-02 -1.0307226031194365e+00 -5.8804861609450060e-02
6.6999999999999922e+00 +9.1889880142059237e+00 +0.0000000000000000e+00 +6.6999994681348225e+00 +1.1037195221189696e-02 -1.0307211358945862e+00 -5.8805321165825292e-02
6.7999999999999918e+00 +9.1889184856390447e+00 +0.0000000000000000e+00 +6.7999994439632694e+00 +1.1037016229285710e-02 -1.0307196660352955e+00 -5.8805784304772749e-02
6.8999999999999915e+00 +9.1888479270657815e+00 +0.0000000000000000e+00 +6.8999994190702632e+00 +1.1036839898245786e-02 -1.0307181949969866e+00 -5.8806250006464708e-02
6.9999999999999911e+00 +9.1887763384876102e+00 +0.0000000000000000e+00 +6.9999993934451954e+00 +1.1036665918313456e-02 -1.0307167242359661e+00 -5.8806717251245699e-02
7.0999999999999908e+00 +9.1887037199060106e+00 +0.0000000000000000e+00 +7.0999993670774577e+00 +1.1036493979629823e-02 -1.0307152552094523e+00 -5.8807185019641654e-02
7.1999999999999904e+00 +9.1886300713224554e+00 +0.0000000000000000e+00 +7.1999993399564426e+00 +1.1036323772228240e-02 -1.0307137893756024e+00 -5.8807652292369020e-02
7.2999999999999901e+00 +9.1885553927384187e+00 +0.0000000000000000e+00 +7.2999993120715416e+00 +1.1036154986028978e-02 -1.0307123281935395e+00 -5.8808118050343867e-02
7.3999999999999897e+00 +9.1884796841553680e+00 +0.0000000000000000e+00 +7.3999992834121473e+00 +1.1035987310833899e-02 -1.0307108731233767e+00 -5.8808581274691026e-02
7.4999999999999893e+00 +9.1884029455747669e+00 +0.0000000000000000e+00 +7.4999992539676521e+00 +1.1035820436321141e-02 -1.0307094256262488e+00 -5.8809040946753280e-02
7.5999999999999890e+00 +9.1883251769980685e+00 +0.0000000000000000e+00 +7.5999992237274476e+00 +1.1035654052039769e-02 -1.0307079871643336e+00 -5.8809496048100367e-02
7.6999999999999886e+00 +9.1882463784267188e+00 +0.0000000000000000e+00 +7.6999991926809264e+00 +1.1035487847404480e-02 -1.0307065592008837e+00 -5.8809945560538243e-02
7.7999999999999883e+00 +9.1881665498621512e+00 +0.0000000000000000e+00 +7.7999991608174808e+00 +1.1035321511690215e-02 -1.0307051432002492e+00 -5.8810388466118212e-02
7.8999999999999879e+00 +9.1880856913057904e+00 +0.0000000000000000e+00 +7.8999991281265025e+00 +1.1035154734026881e-02 -1.0307037406279063e+00 -5.8810823747145906e-02
7.9999999999999876e+00 +9.1880038027590469e+00 +0.0000000000000000e+00 +7.9999990945973840e+00 +1.1034987203393989e-02 -1.0307023529504848e+00 -5.8811250386190603e-02
8.0999999999999872e+00 +9.1879208842233169e+00 +0.0000000000000000e+00 +8.0999990602195187e+00 +1.1034818608615301e-02 -1.0307009816357924e+00 -5.8811667366094236e-02
8.1999999999999869e+00 +9.1878369356999769e+00 +0.0000000000000000e+00 +8.1999990249822972e+00 +1.1034648638353531e-02 -1.0306996281528451e+00 -5.8812073669980626e-02
8.2999999999999865e+00 +9.1877519571903896e+00 +0.0000000000000000e+00 +8.2999989888751138e+00 +1.1034476981104961e-02 -1.0306982939718896e+00 -5.8812468281264525e-02
8.3999999999999861e+00 +9.1876659486958978e+00 +0.0000000000000000e+00 +8.3999989518873601e+00 +1.1034303325194122e-02 -1.0306969805644322e+00 -5.8812850183660823e-02
8.4999999999999858e+00 +9.1875789102178214e+00 +0.0000000000000000e+00 +8.4999989140084278e+00 +1.1034127358768445e-02 -1.0306956894032664e+00 -5.8813218361193645e-02
8.5999999999999854e+00 +9.1874908417574606e+00 +0.0000000000000000e+00 +8.5999988752277101e+00 +1.1033948866309295e-02 -1.0306944224020791e+00 -5.8813572032379746e-02
8.6999999999999851e+00 +9.1874017433160908e+00 +0.0000000000000000e+00 +8.6999988355345987e+00 +1.1033768018265760e-02 -1.0306931832345463e+00 -5.8813911352671749e-02
8.7999999999999847e+00 +9.1873116148949592e+00 +0.0000000000000000e+00 +8.7999987949184870e+00 +1.1033585081632290e-02 -1.0306919760160589e+00 -5.8814236711716310e-02
8.8999999999999844e+00 +9.1872204564952824e+00 +0.0000000000000000e+00 +8.8999987533687666e+00 +1.1033400323446445e-02 -1.0306908048642296e+00 -5.8814548499134291e-02
8.9999999999999840e+00 +9.1871282681182382e+00 +0.0000000000000000e+00 +8.9999987108748307e+00 +1.1033214010790311e-02 -1.0306896738989400e+00 -5.8814847104519521e-02
9.0999999999999837e+00 +9.1870350497649671e+00 +0.0000000000000000e+00 +9.0999986674260729e+00 +1.1033026410791883e-02 -1.0306885872423923e+00 -5.8815132917437660e-02
9.1999999999999833e+00 +9.1869408014365650e+00 +0.0000000000000000e+00 +9.1999986230118846e+00 +1.1032837790626512e-02 -1.0306875490191567e+00 -5.8815406327424928e-02
9.2999999999999829e+00 +9.1868455231340782e+00 +0.0000000000000000e+00 +9.2999985776216576e+00 +1.1032648417518295e-02 -1.0306865633562237e+00 -5.8815667723987011e-02
9.3999999999999826e+00 +9.1867492148585015e+00 +0.0000000000000000e+00 +9.3999985312447851e+00 +1.1032458558741496e-02 -1.0306856343830499e+00 -5.8815917496597800e-02
9.4999999999999822e+00 +9.1866518766107745e+00 +0.0000000000000000e+00 +9.4999984838706588e+00 +1.1032268481621973e-02 -1.0306847662316114e+00 -5.8816156034698315e-02
9.5999999999999819e+00 +9.1865535083917731e+00 +0.0000000000000000e+00 +9.5999984354886720e+00 +1.1032078453538589e-02 -1.0306839630364502e+00 -5.8816383727695418e-02
9.6999999999999815e+00 +9.1864541102023107e+00 +0.0000000000000000e+00 +9.6999983860882182e+00 +1.1031888741924616e-02 -1.0306832289347243e+00 -5.8816600964960657e-02
9.7999999999999812e+00 +9.1863536820431317e+00 +0.0000000000000000e+00 +9.7999983356586871e+00 +1.1031699614269188e-02 -1.0306825680662586e+00 -5.8816808135829179e-02
9.8999999999999808e+00 +9.1862522239149058e+00 +0.0000000000000000e+00 +9.8999982841894720e+00 +1.1031511338118702e-02 -1.0306819845735928e+00 -5.8817005629598407e-02
9.9999999999999805e+00 +9.1861497358182262e+00 +0.0000000000000000e+00 +9.9999982316699665e+00 +1.1031324181078243e-02 -1.0306814826020312e+00 -5.8817193835526936e-02
1.0099999999999980e+01 +9.1860462177536064e+00 +0.0000000000000000e+00 +1.0099998178089562e+01 +1.1031138410813018e-02 -1.0306810662996919e+00 -5.8817373142833411e-02
1.0199999999999980e+01 +9.1859416697214726e+00 +0.0000000000000000e+00 +1.0199998123437650e+01 +1.1030954295049784e-02 -1.0306807398175555e+00 -5.8817543940695209e-02
1.0299999999999979e+01 +9.1858360917221606e+00 +0.0000000000000000e+00 +1.0299998067703623e+01 +1.1030772101578273e-02 -1.0306805073095171e+00 -5.8817706618247430e-02
1.0399999999999979e+01 +9.1857294837559156e+00 +0.0000000000000000e+00 +1.0399998010876873e+01 +1.1030592098252615e-02 -1.0306803729324323e+00 -5.8817861564581554e-02
1.0499999999999979e+01 +9.1856218458228813e+00 +0.0000000000000000e+00 +1.0499997952946790e+01 +1.1030414552992796e-02 -1.0306803408461671e+00 -5.8818009168744405e-02
1.0599999999999978e+01 +9.1855131779231005e+00 +0.0000000000000000e+00 +1.0599997893902769e+01 +1.1030239635083868e-02 -1.0306804132127334e+00 -5.8818149767939309e-02
1.0699999999999978e+01 +9.1854034800565145e+00 +0.0000000000000000e+00 +1.0699997833734200e+01 +1.1030067118986513e-02 -1.0306805841916493e+00 -5.8818283492067643e-02
1.0799999999999978e+01 +9.1852927522229635e+00 +0.0000000000000000e+00 +1.0799997772430473e+01 +1.1029896680350277e-02 -1.0306808459404018e+00 -5.8818410419035495e-02
1.0899999999999977e+01 +9.1851809944222005e+00 +0.0000000000000000e+00 +1.0899997709980981e+01 +1.1029727994710217e-02 -1.0306811906151954e+00 -5.8818530626539620e-02
1.0999999999999977e+01 +9.1850682066538916e+00 +0.0000000000000000e+00 +1.0999997646375116e+01 +1.1029560737484097e-02 -1.0306816103709049e+00 -5.8818644192063022e-02
1.1099999999999977e+01 +9.1849543889176299e+00 +0.0000000000000000e+00 +1.1099997581602267e+01 +1.1029394583969516e-02 -1.0306820973610209e+00 -5.8818751192869924e-02
1.1199999999999976e+01 +9.1848395412129413e+00 +0.0000000000000000e+00 +1.1199997515651827e+01 +1.1029229209341070e-02 -1.0306826437376000e+00 -5.8818851706000978e-02
1.1299999999999976e+01 +9.1847236635392946e+00 +0.0000000000000000e+00 +1.1299997448513185e+01 +1.1029064288647502e-02 -1.0306832416512117e+00 -5.8818945808268491e-02
1.1399999999999975e+01 +9.1846067558961035e+00 +0.0000000000000000e+00 +1.1399997380175735e+01 +1.1028899496808846e-02 -1.0306838832508907e+00 -5.8819033576251491e-02
1.1499999999999975e+01 +9.1844888182827411e+00 +0.0000000000000000e+00 +1.1499997310628865e+01 +1.1028734508613596e-02 -1.0306845606840809e+00 -5.8819115086290980e-02
1.1599999999999975e+01 +9.1843698506985412e+00 +0.0000000000000000e+00 +1.1599997239861969e+01 +1.1028568998715828e-02 -1.0306852660965877e+00 -5.8819190414485127e-02
1.1699999999999974e+01 +9.1842498531428145e+00 +0.0000000000000000e+00 +1.1699997167864433e+01 +1.1028402641632367e-02 -1.0306859916325255e+00 -5.8819259636684280e-02
1.1799999999999974e+01 +9.1841288256148488e+00 +0.0000000000000000e+00 +1.1799997094625652e+01 +1.1028235111739924e-02 -1.0306867294342668e+00 -5.8819322828486349e-02
