# multipoles
# s[mm] polynom_b[n=0][T/m^n] polynom_b[n=1][T/m^n] polynom_b[n=2][T/m^n] polynom_b[n=3][T/m^n] polynom_b[n=4][T/m^n] polynom_b[n=5][T/m^n] polynom_b[n=6][T/m^n] 
+0.0000000000000000e+00 -1.0310200403204011e+00 +2.2864208728216608e+00 +9.0434886985544107e+00 -5.3305117566294246e+02 +9.5844130538319238e+04 +4.2648571357016955e+06 -5.5757924073194206e+07 
+1.0000000000000001e-01 -1.0310212807738413e+00 +2.2864239666155881e+00 +8.9619305937193339e+00 -5.2283778467426839e+02 +9.7643437346214298e+04 +4.1862906584579838e+06 -6.5948275447168775e+07 
+2.0000000000000001e-01 -1.0310224565572939e+00 +2.2864244515892951e+00 +8.8729515952375859e+00 -5.1233016334640433e+02 +9.9574116998703976e+04 +4.1055443591824765e+06 -7.6746355968471676e+07 
+3.0000000000000004e-01 -1.0310235796814042e+00 +2.2864210842325949e+00 +8.7769235284300855e+00 -5.0150893979243222e+02 +1.0162511498324714e+05 +4.0225536174753224e+06 -8.8084074672514677e+07 
+4.0000000000000002e-01 -1.0310246621567467e+00 +2.2864126210570261e+00 +8.6742182070072626e+00 -4.9035474235520718e+02 +1.0378537696929781e+05 +3.9372538119656262e+06 -9.9893341156702310e+07 
+5.0000000000000000e-01 -1.0310257159938603e+00 +2.2863978186054932e+00 +8.5652074395565787e+00 -4.7884819981317503e+02 +1.0604384866608834e+05 +3.8495803209035192e+06 -1.1210606484669474e+08 
+5.9999999999999998e-01 -1.0310267527405701e+00 +2.2863754692874898e+00 +8.4502873980400057e+00 -4.6697133796203627e+02 +1.0839043780622105e+05 +3.7594769238491352e+06 -1.2466287956573986e+08 
+6.9999999999999996e-01 -1.0310277820681251e+00 +2.2863445203355943e+00 +8.3299478293499849e+00 -4.5471278974909035e+02 +1.1081898380974460e+05 +3.6669279728664961e+06 -1.3753974250565913e+08 
+7.9999999999999993e-01 -1.0310288131720842e+00 +2.2863039606032403e+00 +8.2047008863154058e+00 -4.4206309668760514e+02 +1.1332433046716017e+05 +3.5719297138265776e+06 -1.5072155098198003e+08 
+8.9999999999999991e-01 -1.0310298552479298e+00 +2.2862527789511673e+00 +8.0750587170894299e+00 -4.2901280066860750e+02 +1.1590132155220925e+05 +3.4744783945343303e+06 -1.6419320173966974e+08 
+9.9999999999999989e-01 -1.0310309174911190e+00 +2.2861899642487624e+00 +7.9415334720364461e+00 -4.1555244415464631e+02 +1.1854480068383040e+05 +3.3745702665106328e+06 -1.7793959027878565e+08 
+1.0999999999999999e+00 -1.0310320090969816e+00 +2.2861145053608078e+00 +7.8046372928567607e+00 -4.0167256992319921e+02 +1.2124961151720236e+05 +3.2722015840696702e+06 -1.9194561171819702e+08 
+1.2000000000000000e+00 -1.0310331392608476e+00 +2.2860253911465946e+00 +7.6648823304806237e+00 -3.8736372122863281e+02 +1.2401059739044003e+05 +3.1673686060014935e+06 -2.0619615908471185e+08 
+1.3000000000000000e+00 -1.0310343171778740e+00 +2.2859216104593574e+00 +7.5227807235318505e+00 -3.7261644192385609e+02 +1.2682260172647596e+05 +3.0600675968797784e+06 -2.2067612520106843e+08 
+1.4000000000000001e+00 -1.0310355520432177e+00 +2.2858021521309864e+00 +7.3788446219275512e+00 -3.5742127616763901e+02 +1.2968046757252485e+05 +2.9502948260077056e+06 -2.3537040046465605e+08 
+1.5000000000000002e+00 -1.0310368530518901e+00 +2.2856660049750479e+00 +7.2335861704502413e+00 -3.4176876869478781e+02 +1.3257903789289636e+05 +2.8380465697031408e+06 -2.5026387418849939e+08 
+1.6000000000000003e+00 -1.0310382293988567e+00 +2.2855121577799364e+00 +7.0875175217996151e+00 -3.2564946473837523e+02 +1.3551315531945837e+05 +2.7233191114136623e+06 -2.6534143341122231e+08 
+1.7000000000000004e+00 -1.0310396902789567e+00 +2.2853395992994998e+00 +6.9411508281752790e+00 -3.0905390994210370e+02 +1.3847766229420892e+05 +2.6061087419196158e+06 -2.8058796352738178e+08 
+1.8000000000000005e+00 -1.0310412448869544e+00 +2.2851473182555169e+00 +6.7949982498024148e+00 -2.9197265055634028e+02 +1.4146740089090113e+05 +2.4864117610571580e+06 -2.9598834739627266e+08 
+1.9000000000000006e+00 -1.0310429024174828e+00 +2.2849343033253624e+00 +6.6495719477506201e+00 -2.7439623328262695e+02 +1.4447721295146924e+05 +2.3642244775889530e+06 -3.1152746599184984e+08 
+2.0000000000000004e+00 -1.0310446720650899e+00 +2.2846995431427830e+00 +6.5053840927831610e+00 -2.5631520539951794e+02 +1.4750193989198038e+05 +2.2395432104327078e+06 -3.2719019740749162e+08 
+2.1000000000000005e+00 -1.0310465630241943e+00 +2.2844420262847911e+00 +6.3629468595839782e+00 -2.3772011456800641e+02 +1.5053642281249518e+05 +2.1123642882769173e+06 -3.4296141738252890e+08 
+2.2000000000000006e+00 -1.0310485844891206e+00 +2.2841607412815037e+00 +6.2227724337373038e+00 -2.1860150927979427e+02 +1.5357550234533730e+05 +1.9826840528551701e+06 -3.5882599852848166e+08 
+2.3000000000000007e+00 -1.0310507456540814e+00 +2.2838546765895469e+00 +6.0853730103881807e+00 -1.9894993821041587e+02 +1.5661401866850912e+05 +1.8504988557448583e+06 -3.7476881035910356e+08 
+2.4000000000000008e+00 -1.0310530557131097e+00 +2.2835228206079545e+00 +5.9512607870577874e+00 -1.7875595086357231e+02 +1.5964681163488692e+05 +1.7158050628487924e+06 -3.9077471988829988e+08 
+2.5000000000000009e+00 -1.0310555238601822e+00 +2.2831641616663729e+00 +5.8209479810833882e+00 -1.5801009742326326e+02 +1.6266872041397469e+05 +1.5785990541286150e+06 -4.0682858985927516e+08 
+2.6000000000000010e+00 -1.0310581576287363e+00 +2.2827783860188515e+00 +5.6949414883201941e+00 -1.3672232203846690e+02 +1.6567315551687815e+05 +1.4389807265509011e+06 -4.2290538782851249e+08 
+2.7000000000000011e+00 -1.0310609577781082e+00 +2.2823678445414850e+00 +5.5736870495061339e+00 -1.1497522431011143e+02 +1.6864877431139306e+05 +1.2974359639484175e+06 -4.3894548004987407e+08 
+2.8000000000000012e+00 -1.0310639233450816e+00 +2.2819355245745738e+00 +5.4576059711455285e+00 -9.2868409930297233e+01 +1.7158326513799903e+05 +1.1545405452608941e+06 -4.5488171583786684e+08 
+2.9000000000000012e+00 -1.0310670533667736e+00 +2.2814844134488270e+00 +5.3471196115752910e+00 -7.0501484025657589e+01 +1.7446431543107500e+05 +1.0108702445783998e+06 -4.7064694084356475e+08 
+3.0000000000000013e+00 -1.0310703468806470e+00 +2.2810174984703901e+00 +5.2426493803835532e+00 -4.7974050581088214e+01 +1.7727961176630150e+05 +8.6700082719332608e+05 -4.8617399742709982e+08 
+3.1000000000000014e+00 -1.0310738029245987e+00 +2.2805377669438904e+00 +5.1446167506406386e+00 -2.5385712973089255e+01 +1.8001683964067337e+05 +7.2350805216929037e+05 -5.0139572369801438e+08 
+3.2000000000000015e+00 -1.0310774205369402e+00 +2.2800482061522125e+00 +5.0534432548981618e+00 -2.8360732440592575e+00 +1.8266368357966922e+05 +5.8096766758534545e+05 -5.1624495416133583e+08 
+3.3000000000000016e+00 -1.0310811987564972e+00 +2.2795518033736584e+00 +4.9695504973910491e+00 +1.9575267527446119e+01 +1.8520782692839278e+05 +4.3995541217878816e+05 -5.3065451884156412e+08 
+3.4000000000000017e+00 -1.0310851366225209e+00 +2.2790515458736098e+00 +4.8933601422933979e+00 +4.1748709642271926e+01 +1.8763695209777623e+05 +3.0104701228819165e+05 -5.4455724456422937e+08 
+3.5000000000000018e+00 -1.0310892331749053e+00 +2.2785504209120400e+00 +4.8252939412022728e+00 +6.3584654667539610e+01 +1.8993874006129801e+05 +1.6481818207769611e+05 -5.5788595266899669e+08 
+3.6000000000000019e+00 -1.0310934874540401e+00 +2.2780514157419769e+00 +4.7657737132661175e+00 +8.4983505627791274e+01 +1.9210087076443597e+05 +3.1844621854505305e+04 -5.7057346109600127e+08 
+3.7000000000000020e+00 -1.0310978985009811e+00 +2.2775575176075784e+00 +4.7152213664711953e+00 +1.0584566722823676e+02 +1.9411102273870626e+05 -9.7297983840502391e+04 -5.8255258265039754e+08 
+3.8000000000000020e+00 -1.0311024653574146e+00 +2.2770717137544461e+00 +4.6740588922794171e+00 +1.2607154566135701e+02 +1.9595687323035987e+05 -2.2203396556022429e+05 -5.9375612574184561e+08 
+3.9000000000000021e+00 -1.0311071870657171e+00 +2.2765969914191406e+00 +4.6427083737129022e+00 +1.4556154907142732e+02 +1.9762609806312964e+05 -3.4178767225264770e+05 -6.0411689382674313e+08 
+4.0000000000000018e+00 -1.0311120626689703e+00 +2.2761363378397741e+00 +4.6215919851336986e+00 +1.6421608737783157e+02 +1.9910637167942122e+05 -4.5598347074043850e+05 -6.1356768575972152e+08 
+4.1000000000000014e+00 -1.0311170912110390e+00 +2.2756927402537461e+00 +4.6111320028059497e+00 +1.8193557248677871e+02 +2.0038536695078434e+05 -5.6404574751956435e+05 -6.2204129497121835e+08 
+4.2000000000000011e+00 -1.0311222717365698e+00 +2.2752691858989436e+00 +4.6117508037742985e+00 +1.9862041839516468e+02 +2.0145075522711460e+05 -6.6539890990596905e+05 -6.2947050983251834e+08 
+4.3000000000000007e+00 -1.0311276032910193e+00 +2.2748686620147915e+00 +4.6238708687456604e+00 +2.1417104129853274e+02 +2.0229020630980874e+05 -7.5946738718341989e+05 -6.3578811365459514e+08 
+4.4000000000000004e+00 -1.0311330849207148e+00 +2.2744941558455141e+00 +4.6479147888267551e+00 +2.2848785963973779e+02 +2.0289138834436127e+05 -8.4567563145913975e+05 -6.4092688428657627e+08 
+4.5000000000000000e+00 -1.0311387156728846e+00 +2.2741486545962708e+00 +4.6843052658447322e+00 +2.4147129620115348e+02 +2.0324196794885717e+05 -9.2344813204100262e+05 -6.4481959520138955e+08 
+4.5999999999999996e+00 -1.0311444934688185e+00 +2.2738346126328328e+00 +4.7333352867045990e+00 +2.5304450299574310e+02 +2.0333351603844386e+05 -9.9235523899548396e+05 -6.4742200639475965e+08 
+4.6999999999999993e+00 -1.0311504118711619e+00 +2.2735526105630899e+00 +4.7948273327261566e+00 +2.6320897999908175e+02 +2.0317162967892105e+05 -1.0524673265932351e+06 -6.4877224121540534e+08 
+4.7999999999999989e+00 -1.0311564633858694e+00 +2.2733028172315284e+00 +4.8684970223252382e+00 +2.7198301142077128e+02 +2.0276506604027655e+05 -1.1039611617891327e+06 -6.4892694367023838e+08 
+4.8999999999999986e+00 -1.0311626405186889e+00 +2.2730854012315507e+00 +4.9540599138138282e+00 +2.7938488926151183e+02 +2.0212258400399052e+05 -1.1470135536645635e+06 -6.4794276809313595e+08 
+4.9999999999999982e+00 -1.0311689357753282e+00 +2.2729005308829686e+00 +5.0512315258061387e+00 +2.8543291407355423e+02 +2.0125294377446300e+05 -1.1818013577768786e+06 -6.4587637730052018e+08 
+5.0999999999999979e+00 -1.0311753416612479e+00 +2.2727483742276808e+00 +5.1597273067299296e+00 +2.9014539510506927e+02 +2.0016490749853689e+05 -1.2085014767890340e+06 -6.4278444565889537e+08 
+5.1999999999999975e+00 -1.0311818506817814e+00 +2.2726290990121210e+00 +5.2792626499700175e+00 +2.9354065081591335e+02 +1.9886723898488830e+05 -1.2272908632052687e+06 -6.3872365777908754e+08 
+5.2999999999999972e+00 -1.0311884553420470e+00 +2.2725428726768833e+00 +5.4095528795172765e+00 +2.9563700920464191e+02 +1.9736870401078055e+05 -1.2383465210750916e+06 -6.3375071007914817e+08 
+5.3999999999999968e+00 -1.0311951481469139e+00 +2.2724898623438938e+00 +5.5503132440021075e+00 +2.9645280819525033e+02 +1.9567807045315023e+05 -1.2418455079976567e+06 -6.2792231146486580e+08 
+5.4999999999999964e+00 -1.0312019216010706e+00 +2.2724702348062995e+00 +5.7012589226974324e+00 +2.9600639593948256e+02 +1.9380410820005625e+05 -1.2379649366464103e+06 -6.2129518298938704e+08 
+5.5999999999999961e+00 -1.0312087682088544e+00 +2.2724841565155192e+00 +5.8621050027963326e+00 +2.9431613120854070e+02 +1.9175558960468762e+05 -1.2268819768017707e+06 -6.1392606008248031e+08 
+5.6999999999999957e+00 -1.0312156804743804e+00 +2.2725317935644926e+00 +6.0325664928361364e+00 +2.9140038390710475e+02 +1.8954128925346155e+05 -1.2087738581442777e+06 -6.0587169152229309e+08 
+5.7999999999999954e+00 -1.0312226509014220e+00 +2.2726133116857556e+00 +6.2123583051683173e+00 +2.8727753512746852e+02 +1.8716998432647338e+05 -1.1838178702977847e+06 -5.9718884123086369e+08 
+5.8999999999999950e+00 -1.0312296719934149e+00 +2.2727288762290550e+00 +6.4011952558567851e+00 +2.8196597782791338e+02 +1.8465045461392408e+05 -1.1521913665696573e+06 -5.8793428840683055e+08 
+5.9999999999999947e+00 -1.0312367362534540e+00 +2.2728786521561357e+00 +6.5987920603152785e+00 +2.7548411699452771e+02 +1.8199148263116536e+05 -1.1140717646513656e+06 -5.7816482816476285e+08 
+6.0999999999999943e+00 -1.0312438361842111e+00 +2.2730628040216079e+00 +6.8048633222622632e+00 +2.6785037020476869e+02 +1.7920185384715936e+05 -1.0696365496427887e+06 -5.6793727268708909e+08 
+6.1999999999999940e+00 -1.0312509642880405e+00 +2.2732814959737189e+00 +7.0191235440087372e+00 +2.5908316763881970e+02 +1.7629035651239127e+05 -1.0190632739325787e+06 -5.5730845047700477e+08 
+6.2999999999999936e+00 -1.0312581130667884e+00 +2.2735348917250722e+00 +7.2412871009349935e+00 +2.4920095292261377e+02 +1.7326578216748979e+05 -9.6252956180986995e+05 -5.4633520885095000e+08 
+6.3999999999999932e+00 -1.0312652750219027e+00 +2.2738231545553429e+00 +7.4710682527192853e+00 +2.3822218308018293e+02 +1.7013692545617730e+05 -9.0021310899895104e+05 -5.3507441313486862e+08 
+6.4999999999999929e+00 -1.0312724426542303e+00 +2.2741464473005601e+00 +7.7081811153215130e+00 +2.2616532742507317e+02 +1.6691258453230470e+05 -8.3229166688683885e+05 -5.2358294767086118e+08 
+6.5999999999999925e+00 -1.0312796096341073e+00 +2.2745045173885656e+00 +7.9523673286090881e+00 +2.1305659620459761e+02 +1.6360009443688855e+05 -7.5896168796841253e+05 -5.1190581939183283e+08 
+6.6999999999999922e+00 -1.0312867745461956e+00 +2.2748952801168030e+00 +8.2035474695267432e+00 +1.9896650895580271e+02 +1.6019949107199532e+05 -6.8060444153730676e+05 -5.0003446343877304e+08 
+6.7999999999999918e+00 -1.0312939372515801e+00 +2.2753161422996637e+00 +8.4617033373876360e+00 +1.8398020713400865e+02 +1.5670859018393114e+05 -5.9767548406223382e+05 -4.8794503185082817e+08 
+6.8999999999999915e+00 -1.0313010976111352e+00 +2.2757645108156122e+00 +8.7268167381279564e+00 +1.6818283153476628e+02 +1.5312520641138055e+05 -5.1063037812004122e+05 -4.7561366726337832e+08 
+6.9999999999999911e+00 -1.0313082554853870e+00 +2.2762377927067918e+00 +8.9988694605683399e+00 +1.5165951804670954e+02 +1.4944715391534867e+05 -4.1992466405881912e+05 -4.6301650648963892e+08 
+7.0999999999999908e+00 -1.0313154107345817e+00 +2.2767333951829594e+00 +9.2778432863162568e+00 +1.3449539753123923e+02 +1.4567224614771217e+05 -3.2601385960018868e+05 -4.5012967923265404e+08 
+7.1999999999999904e+00 -1.0313225632185459e+00 +2.2772487256310718e+00 +9.5637199732466360e+00 +1.1677559551718785e+02 +1.4179829613284057e+05 -2.2935345831575079e+05 -4.3692930927316058e+08 
+7.2999999999999901e+00 -1.0313297127967629e+00 +2.2777811916283146e+00 +9.8564812665630726e+00 +9.8585231804592325e+01 +1.3782311621373208e+05 -1.3039892758764603e+05 -4.2339151307698798e+08 
+7.3999999999999897e+00 -1.0313368593283776e+00 +2.2783282009583989e+00 +1.0156108902055255e+01 +8.0009419964051702e+01 +1.3374451794343791e+05 -2.9605705942150096e+04 -4.0949239908468682e+08 
+7.4999999999999893e+00 -1.0313440026721241e+00 +2.2788871616124942e+00 +1.0462584596923536e+01 +6.1133267299134225e+01 +1.2956031222894887e+05 +7.2570796872856619e+04 -3.9520806824772537e+08 
+7.5999999999999890e+00 -1.0313511426862902e+00 +2.2794554818083337e+00 +1.0775890047591293e+01 +4.2041874267862951e+01 +1.2526830932721791e+05 +1.7567520299924104e+05 -3.8051461381730109e+08 
+7.6999999999999886e+00 -1.0313582792288192e+00 +2.2800305699949974e+00 +1.1096006943753483e+01 +2.2820334322640608e+01 +1.2086631854111925e+05 +2.7925216713796224e+05 -3.6538811973518777e+08 
+7.7999999999999883e+00 -1.0313654121571678e+00 +2.2806098348697725e+00 +1.1422916952341753e+01 +3.5537333950499588e+00 +1.1635214847848464e+05 +3.8284637929230806e+05 -3.4980466167187601e+08 
+7.8999999999999879e+00 -1.0313725413283845e+00 +2.2811906853887143e+00 +1.1756601728280316e+01 -1.5672850423669699e+01 +1.1172360681478574e+05 +4.8600256633862451e+05 -3.3374030574429214e+08 
+7.9999999999999876e+00 -1.0313796665990358e+00 +2.2817705307673162e+00 +1.2097042907009502e+01 -3.4774346920614818e+01 +1.0697850038953473e+05 +5.8826549198212358e+05 -3.1717110878219408e+08 
+8.0999999999999872e+00 -1.0313867878252210e+00 +2.2823467805123765e+00 +1.2444222107980194e+01 -5.3665694715354697e+01 +1.0211463510156520e+05 +6.8917996206070913e+05 -3.0007311766190654e+08 
+8.1999999999999869e+00 -1.0313939048625875e+00 +2.2829168444089527e+00 +1.2798120937352238e+01 -7.2261840896582456e+01 +9.7129815819458832e+04 +7.8829082214625960e+05 -2.8242236870761812e+08 
+8.2999999999999865e+00 -1.0314010175662407e+00 +2.2834781325489546e+00 +1.3158720979192770e+01 -9.0477741871568682e+01 +9.2021846504656525e+04 +8.8514296222171455e+05 -2.6419488809324786e+08 
+8.3999999999999861e+00 -1.0314081257908208e+00 +2.2840280553350425e+00 +1.3526003805613614e+01 -1.0822836350188884e+02 +8.6788529981620508e+04 +9.7928131721045962e+05 -2.4536669058025154e+08 
+8.4999999999999858e+00 -1.0314152293904140e+00 +2.2845640234877838e+00 +1.3899950965323661e+01 -1.2542868211413280e+02 +8.1427667985027379e+04 +1.0702508644717236e+06 -2.2591378001859146e+08 
+8.5999999999999854e+00 -1.0314223273993521e+00 +2.2850837855016035e+00 +1.4280362285683328e+01 -1.4200859626486692e+02 +7.5940046620738838e+04 +1.1576819770369222e+06 -2.0582601927504000e+08 
+8.6999999999999851e+00 -1.0314294161058677e+00 +2.2855867530452256e+00 +1.4666346452474173e+01 -1.5796291387520154e+02 +7.0338501380582704e+04 +1.2415858784501797e+06 -1.8515068097314635e+08 
+8.7999999999999847e+00 -1.0314364912413270e+00 +2.2860728399423986e+00 +1.5056845771385142e+01 -1.7330445175177593e+02 +6.4638954632703135e+04 +1.3220815524258469e+06 -1.6395019511773974e+08 
+8.8999999999999844e+00 -1.0314435485371862e+00 +2.2865419608253381e+00 +1.5450802587315058e+01 -1.8804605158821633e+02 +5.8857327780715925e+04 +1.3992881315121294e+06 -1.4228698693044385e+08 
+8.9999999999999840e+00 -1.0314505837251957e+00 +2.2869940310701562e+00 +1.5847159322420234e+01 -2.0220057695924092e+02 +5.3009540328129959e+04 +1.4733248731179819e+06 -1.2022347142079522e+08 
+9.0999999999999837e+00 -1.0314575925372300e+00 +2.2874289668250336e+00 +1.6244858454227483e+01 -2.1578091417889655e+02 +4.7111510304663214e+04 +1.5443111645772059e+06 -9.7822055451984704e+07 
+9.1999999999999833e+00 -1.0314645707054830e+00 +2.2878466850282249e+00 +1.6642842543600096e+01 -2.2879997283566786e+02 +4.1179153702113050e+04 +1.6123665262484965e+06 -7.5145134972896919e+07 
+9.2999999999999829e+00 -1.0314715139623667e+00 +2.2882471034222176e+00 +1.7040054220562769e+01 -2.4127068620151252e+02 +3.5228384759316737e+04 +1.6776106138337664e+06 -5.2255096425862841e+07 
+9.3999999999999826e+00 -1.0314784180405137e+00 +2.2886301405897491e+00 +1.7435436187039208e+01 -2.5320601230639437e+02 +2.9275115888284519e+04 +1.7401632246673326e+06 -2.9214316339257926e+07 
+9.4999999999999822e+00 -1.0314852786728639e+00 +2.2889957159570775e+00 +1.7827931228903509e+01 -2.6461893404335808e+02 +2.3335257437612025e+04 +1.8001442983010635e+06 -6.0851601909400718e+06 
+9.5999999999999819e+00 -1.0314920915925845e+00 +2.2893437498287215e+00 +1.8216482205949173e+01 -2.7552246019049426e+02 +1.7424717883626843e+04 +1.8576739224435315e+06 +1.7070016673054494e+07 
+9.6999999999999815e+00 -1.0314988525331721e+00 +2.2896741634056852e+00 +1.8600032067214443e+01 -2.8592962595529343e+02 +1.1559403515525471e+04 +1.9128723361153766e+06 +4.0188870598757803e+07 
+9.7999999999999812e+00 -1.0315055572283469e+00 +2.2899868788010305e+00 +1.8977523836578403e+01 -2.9585349344499338e+02 +5.7552187226707902e+03 +1.9658599323944354e+06 +6.3209068206529438e+07 
+9.8999999999999808e+00 -1.0315122014121711e+00 +2.2902818190643739e+00 +1.9347900631298373e+01 -3.0530715238600925e+02 +2.8065611241534171e+01 +2.0167572625680016e+06 +8.6068288298229456e+07 
+9.9999999999999805e+00 -1.0315187808189890e+00 +2.2905589082069970e+00 +1.9710105653131357e+01 -3.1430372086705012e+02 -5.6061558174893107e+03 +2.0656850404504240e+06 +1.0870422097256793e+08 
+1.0099999999999980e+01 -1.0315252911834709e+00 +2.2908180712131525e+00 +2.0063082196232561e+01 -3.2285634568883643e+02 -1.1131547832674905e+04 +2.1127641444327929e+06 +1.3105456844808376e+08 
