# multipoles
# s[mm] polynom_b[n=0][T/m^n] polynom_b[n=1][T/m^n] polynom_b[n=2][T/m^n] polynom_b[n=3][T/m^n] polynom_b[n=4][T/m^n] polynom_b[n=5][T/m^n] polynom_b[n=6][T/m^n] 
+0.0000000000000000e+00 -1.0334185289127367e+00 +2.2961557494875056e+00 +2.0355564555184280e+01 -5.8979913639178301e+02 -1.4436622798240416e+04 +5.0432146149747735e+06 +1.7046717623545638e+08 
-1.0000000000000001e-01 -1.0334167372098428e+00 +2.2956631015488074e+00 +2.0098309239710233e+01 -5.7705984802178079e+02 -9.8150217602134235e+03 +4.9775102378017791e+06 +1.5000168247577277e+08 
-2.0000000000000001e-01 -1.0334149615359445e+00 +2.2951951323201989e+00 +1.9837613543827093e+01 -5.6479826149727296e+02 -5.1306190524212998e+03 +4.9134269918694142e+06 +1.2920726392163587e+08 
-3.0000000000000004e-01 -1.0334132078440443e+00 +2.2947523391292042e+00 +1.9574697172269410e+01 -5.5302324064181073e+02 -4.0360279954871373e+02 +4.8510206533468142e+06 +1.0817183401298362e+08 
-4.0000000000000002e-01 -1.0334114820872717e+00 +2.2943352192543176e+00 +1.9310779830882083e+01 -5.4174364733898335e+02 +4.3458390266943743e+03 +4.7903469855270227e+06 +8.6983304972161919e+07 
-5.0000000000000000e-01 -1.0334097902188553e+00 +2.2939442698983403e+00 +1.9047081226431242e+01 -5.3096834075703953e+02 +9.0975185865459389e+03 +4.7314617343094870e+06 +6.5729587990175270e+07 
-5.9999999999999998e-01 -1.0334081381922218e+00 +2.2935799881853756e+00 +1.8784821077065647e+01 -5.2070617727448814e+02 +1.3831247971841640e+04 +4.6744206278206781e+06 +4.4498594205889724e+07 
-6.9999999999999996e-01 -1.0334065319609300e+00 +2.2932428711356887e+00 +1.8525219105982771e+01 -5.1096600975060636e+02 +1.8526839307733419e+04 +4.6192793721660729e+06 +2.3378234293831132e+07 
-7.9999999999999993e-01 -1.0334049774787668e+00 +2.2929334156547134e+00 +1.8269495053089290e+01 -5.0175668721536948e+02 +2.3164104521029280e+04 +4.5660936496689003e+06 +2.4564196132620187e+06 
-8.9999999999999991e-01 -1.0334034806996981e+00 +2.2926521185174371e+00 +1.8018868669222631e+01 -4.9308705442300891e+02 +2.7722855442896307e+04 +4.5149191162936743e+06 -1.8178938239732742e+07 
-9.9999999999999989e-01 -1.0334020475779500e+00 +2.2923994763452833e+00 +1.7774559727164345e+01 -4.8496595119479576e+02 +3.2182903579746246e+04 +4.4658113978684731e+06 -3.8439926266070381e+07 
-1.0999999999999999e+00 -1.0334006840679686e+00 +2.2921759856044539e+00 +1.7537788016628408e+01 -4.7740221236403977e+02 +3.6524060203998924e+04 +4.4188260897525866e+06 -5.8238630465065710e+07 
-1.2000000000000000e+00 -1.0333993961244847e+00 +2.2919821425793323e+00 +1.7309773353245589e+01 -4.7040466701585865e+02 +4.0726136163950105e+04 +4.3740187524509272e+06 -7.7487134854122624e+07 
-1.3000000000000000e+00 -1.0333981897025133e+00 +2.2918184433563384e+00 +1.7091735578213076e+01 -4.6398213803726867e+02 +4.4768941886304223e+04 +4.3314449090632629e+06 -9.6097521450037360e+07 
-1.4000000000000001e+00 -1.0333970707573608e+00 +2.2916853838163251e+00 +1.6884894560155633e+01 -4.5814344188513445e+02 +4.8632287324118959e+04 +4.2911600438988870e+06 -1.1398186995434855e+08 
-1.5000000000000002e+00 -1.0333960452446624e+00 +2.2915834596126237e+00 +1.6690470199963666e+01 -4.5289738796755728e+02 +5.2295981853387653e+04 +4.2532195989394337e+06 -1.3105225721079732e+08 
-1.6000000000000003e+00 -1.0333951177077905e+00 +2.2915127492705234e+00 +1.6509418984986709e+01 -4.4824202600352197e+02 +5.5744195997759409e+04 +4.2176182310718605e+06 -1.4723923998195153e+08 
-1.7000000000000004e+00 -1.0333942869549047e+00 +2.2914717280000279e+00 +1.6341639167315769e+01 -4.4413301228522676e+02 +5.8978592826782355e+04 +4.1841086133147692e+06 -1.6254738718176416e+08 
-1.8000000000000005e+00 -1.0333935503381875e+00 +2.2914584861458351e+00 +1.6186763113035845e+01 -4.4051555408605753e+02 +6.2005223508928473e+04 +4.1523831300696195e+06 -1.7699980608339483e+08 
-1.9000000000000006e+00 -1.0333929052098270e+00 +2.2914711139309429e+00 +1.6044423179401214e+01 -4.3733485477789543e+02 +6.4830139421555636e+04 +4.1221341407169169e+06 -1.9061960485243052e+08 
-2.0000000000000004e+00 -1.0333923489220027e+00 +2.2915077014796643e+00 +1.5914251713990851e+01 -4.3453611452953766e+02 +6.7459392156053058e+04 +4.0930539836087846e+06 -2.0342989253046098e+08 
-2.1000000000000005e+00 -1.0333918788268306e+00 +2.2915663388119620e+00 +1.5795881048514653e+01 -4.3206453014096758e+02 +6.9899033625040858e+04 +4.0648349749526670e+06 -2.1545377950594705e+08 
-2.2000000000000006e+00 -1.0333914922763583e+00 +2.2916451158540392e+00 +1.5688943497888852e+01 -4.2986529537939577e+02 +7.2155116081120228e+04 +4.0371694107021363e+06 -2.2671437759691745e+08 
-2.3000000000000007e+00 -1.0333911866225161e+00 +2.2917421224472494e+00 +1.5593071354147948e+01 -4.2788360124802944e+02 +7.4233692222991711e+04 +4.0097495679945033e+06 -2.3723480051721409e+08 
-2.4000000000000008e+00 -1.0333909592171289e+00 +2.2918554483443896e+00 +1.5507896888460390e+01 -4.2606463589108614e+02 +7.6140815153333911e+04 +3.9822677044850811e+06 -2.4703816365702072e+08 
-2.5000000000000009e+00 -1.0333908074118112e+00 +2.2919831832328561e+00 +1.5433052337956630e+01 -4.2435358528485250e+02 +7.7882538621652231e+04 +3.9544160622753347e+06 -2.5614758520659679e+08 
-2.6000000000000010e+00 -1.0333907285580077e+00 +2.2921234167205631e+00 +1.5368169911800685e+01 -4.2269563282895393e+02 +7.9464916899658361e+04 +3.9258868653744725e+06 -2.6458618552825397e+08 
-2.7000000000000011e+00 -1.0333907200069239e+00 +2.2922742383598371e+00 +1.5312881781464863e+01 -4.2103596008666938e+02 +8.0894004965370637e+04 +3.8963723240050729e+06 -2.7237708801712584e+08 
-2.8000000000000012e+00 -1.0333907791095034e+00 +2.2924337376443349e+00 +1.5266820078582860e+01 -4.1931974666310794e+02 +8.2175858539029636e+04 +3.8655646336360751e+06 -2.7954341925126266e+08 
-2.9000000000000012e+00 -1.0333909032164317e+00 +2.2926000040179084e+00 +1.5229616896423833e+01 -4.1749217052637977e+02 +8.3316534040474755e+04 +3.8331559768943000e+06 -2.8610830873711085e+08 
-3.0000000000000013e+00 -1.0333910896780576e+00 +2.2927711268768323e+00 +1.5200904279018134e+01 -4.1549840804945211e+02 +8.4322088799535864e+04 +3.7988385235878048e+06 -2.9209488991032761e+08 
-3.1000000000000014e+00 -1.0333913358443945e+00 +2.2929451955877402e+00 +1.5180314222231818e+01 -4.1328363456401541e+02 +8.5198581021660881e+04 +3.7623044338727598e+06 -2.9752629992107785e+08 
-3.2000000000000015e+00 -1.0333916390650566e+00 +2.2931202994769535e+00 +1.5167478666129510e+01 -4.1079302406010981e+02 +8.5952069933479244e+04 +3.7232458563849931e+06 -3.0242568032237226e+08 
-3.3000000000000016e+00 -1.0333919966893010e+00 +2.2932945278537131e+00 +1.5162029500012103e+01 -4.0797174987528746e+02 +8.6588615675045759e+04 +3.6813549321351852e+06 -3.0681617650924134e+08 
-3.4000000000000017e+00 -1.0333924060658861e+00 +2.2934659700029907e+00 +1.5163598544937880e+01 -4.0476498450076872e+02 +8.7114279632644044e+04 +3.6363237932831268e+06 -3.1072093929515499e+08 
-3.5000000000000018e+00 -1.0333928645431631e+00 +2.2936327151982598e+00 +1.5171817565511036e+01 -4.0111790006289323e+02 +8.7535124191103561e+04 +3.5878445658762134e+06 -3.1416312366659766e+08 
-3.6000000000000019e+00 -1.0333933674227296e+00 +2.2937927339916491e+00 +1.5186234810070715e+01 -3.9698140189129123e+02 +8.7858012571531232e+04 +3.5356673243509801e+06 -3.1716892403913784e+08 
-3.7000000000000020e+00 -1.0333939018843006e+00 +2.2939434708743085e+00 +1.5206079140433028e+01 -3.9232805274051725e+02 +8.8093065775142619e+04 +3.4797725598101830e+06 -3.1977827394505352e+08 
-3.8000000000000020e+00 -1.0333944530894072e+00 +2.2940822276018538e+00 +1.5230502836698891e+01 -3.8713562674235806e+02 +8.8251240612499634e+04 +3.4201989501049435e+06 -3.2203498992268646e+08 
-3.9000000000000021e+00 -1.0333950061988770e+00 +2.2942063062491966e+00 +1.5258658120401948e+01 -3.8138190773288534e+02 +8.8343494939575598e+04 +3.3569852373859226e+06 -3.2398289420657688e+08 
-4.0000000000000018e+00 -1.0333955463727926e+00 +2.2943130092390711e+00 +1.5289697150535035e+01 -3.7504468995863022e+02 +8.8380787713231708e+04 +3.2901702318105754e+06 -3.2566581493998134e+08 
-4.1000000000000014e+00 -1.0333960587704762e+00 +2.2943996393667803e+00 +1.5322772024251302e+01 -3.6810177881823773e+02 +8.8374078972738702e+04 +3.2197928164399583e+06 -3.2712758614234221e+08 
-4.2000000000000011e+00 -1.0333965285504474e+00 +2.2944634998190310e+00 +1.5357034774739049e+01 -3.6053099144378729e+02 +8.8334329867634180e+04 +3.1458919512110446e+06 -3.2841204787725401e+08 
-4.3000000000000007e+00 -1.0333969408703796e+00 +2.2945018942140361e+00 +1.5391637366814440e+01 -3.5231015792238941e+02 +8.8272502743064615e+04 +3.0685066806979477e+06 -3.2956304672838801e+08 
-4.4000000000000004e+00 -1.0333972808870822e+00 +2.2945121266091824e+00 +1.5425731698102071e+01 -3.4341712153232152e+02 +8.8199561105406363e+04 +2.9876761360357106e+06 -3.3062443567728019e+08 
-4.5000000000000000e+00 -1.0333975337564274e+00 +2.2944915015387686e+00 +1.5458469591283663e+01 -3.3382973988636161e+02 +8.8126469768291703e+04 +2.9034395421976619e+06 -3.3164007485790783e+08 
-4.5999999999999996e+00 -1.0333976846333293e+00 +2.2944373240345315e+00 +1.5489002794540889e+01 -3.2352588555283057e+02 +8.8064194834425813e+04 +2.8158362221772894e+06 -3.3265383151662415e+08 
-4.6999999999999993e+00 -1.0333977186717638e+00 +2.2943468996533798e+00 +1.5516482985776264e+01 -3.1248344691395550e+02 +8.8023703612420126e+04 +2.7249056026364272e+06 -3.3370957967521137e+08 
-4.7999999999999989e+00 -1.0333976210246223e+00 +2.2942175345019256e+00 +1.5540061756863945e+01 -3.0068032889195183e+02 +8.8015964909342234e+04 +2.6306872186661083e+06 -3.3485120157422096e+08 
-4.8999999999999986e+00 -1.0333973768437841e+00 +2.2940465352626811e+00 +1.5558890625147880e+01 -2.8809445376845690e+02 +8.8051948804310348e+04 +2.5332207192209871e+06 -3.3612258664230722e+08 
-4.9999999999999982e+00 -1.0333969712800026e+00 +2.2938312092173749e+00 +1.5572121021171604e+01 -2.7470376188169274e+02 +8.8142626879033676e+04 +2.4325458717328818e+06 -3.3756763265530837e+08 
-5.0999999999999979e+00 -1.0333963894829024e+00 +2.2935688642736500e+00 +1.5578904290654970e+01 -2.6048621242516828e+02 +8.8298972173492555e+04 +2.3287025673130415e+06 -3.3923024557580531e+08 
-5.1999999999999975e+00 -1.0333956166009020e+00 +2.2932568089945384e+00 +1.5578391687498049e+01 -2.4541978438301470e+02 +8.8531959309675396e+04 +2.2217308269385970e+06 -3.4115434018473911e+08 
-5.2999999999999972e+00 -1.0333946377813095e+00 +2.2928923526141105e+00 +1.5569734387873286e+01 -2.2948247696659422e+02 +8.8852564222141969e+04 +2.1116708044231692e+06 -3.4338383886676079e+08 
-5.3999999999999968e+00 -1.0333934381700975e+00 +2.2924728050776269e+00 +1.5552083464101093e+01 -2.1265231086338500e+02 +8.9271764646151074e+04 +1.9985627944285949e+06 -3.4596267397560298e+08 
-5.4999999999999964e+00 -1.0333920029120225e+00 +2.2919954770641233e+00 +1.5524589904254629e+01 -1.9490732857693442e+02 +8.9800539761627821e+04 +1.8824472337409309e+06 -3.4893478631588775e+08 
-5.5999999999999961e+00 -1.0333903212113587e+00 +2.2914589032759132e+00 +1.5486609047274049e+01 -1.7624764113363730e+02 +9.0447247556407892e+04 +1.7634502966934976e+06 -3.5233377153971386e+08 
-5.6999999999999957e+00 -1.0333883988572241e+00 +2.2908666079149138e+00 +1.5438278324617185e+01 -1.5676398275835541e+02 +9.1210296531073691e+04 +1.6420481027764601e+06 -3.5615285250689793e+08 
-5.7999999999999954e+00 -1.0333862458951297e+00 +2.2902233886541556e+00 +1.5379924798512228e+01 -1.3657025549283443e+02 +9.2085683330975895e+04 +1.5188047934297037e+06 -3.6037509914254528e+08 
-5.8999999999999950e+00 -1.0333838723719107e+00 +2.2895340431196467e+00 +1.5311875686533021e+01 -1.1578035945051703e+02 +9.3069401844188149e+04 +1.3942844923871055e+06 -3.6498356878257281e+08 
-5.9999999999999947e+00 -1.0333812883356102e+00 +2.2888033689118199e+00 +1.5234458342563061e+01 -9.4508194017402900e+01 +9.4157443660293662e+04 +1.2690513164893759e+06 -3.6996130889123833e+08 
-6.0999999999999943e+00 -1.0333785038356051e+00 +2.2880361635994326e+00 +1.5148000270768263e+01 -7.2867657676559276e+01 +9.5345797825432703e+04 +1.1436693743965037e+06 -3.7529135594337618e+08 
-6.1999999999999940e+00 -1.0333755289227151e+00 +2.2872372246975501e+00 +1.5052829139653374e+01 -5.0972647347311288e+01 +9.6630450569950262e+04 +1.0187027624069906e+06 -3.8095673409614164e+08 
-6.2999999999999936e+00 -1.0333723736492175e+00 +2.2864113496662739e+00 +1.4949272780259468e+01 -2.8937058369285804e+01 +9.8007385380150256e+04 +8.9471556415893277e+05 -3.8694045562666994e+08 
-6.3999999999999932e+00 -1.0333690480689277e+00 +2.2855633359008745e+00 +1.4837659196730623e+01 -6.8747841850033664e+00 +9.9472582793642519e+04 +7.7227184841266752e+05 -3.9322551993234175e+08 
-6.4999999999999929e+00 -1.0333655622373181e+00 +2.2846979807213454e+00 +1.4718316578866588e+01 +1.5100283949486291e+01 +1.0102202018430136e+05 +6.5193566714173940e+05 -3.9979491256184477e+08 
-6.5999999999999925e+00 -1.0333619262115137e+00 +2.2838200813580674e+00 +1.4591573300534913e+01 +3.6874257384563343e+01 +1.0265167180043978e+05 +5.3427105280662689e+05 -4.0663160540371394e+08 
-6.6999999999999922e+00 -1.0333581500504276e+00 +2.2829344349453629e+00 +1.4457757935104674e+01 +5.8333250300402327e+01 +1.0435750849145110e+05 +4.1984201667081920e+05 -4.1371855543104547e+08 
-6.7999999999999918e+00 -1.0333542438148233e+00 +2.2820458385174351e+00 +1.4317199262049826e+01 +7.9363379781589543e+01 +1.0613549759030965e+05 +3.0921254822836746e+05 -4.2103870415017086e+08 
-6.8999999999999915e+00 -1.0333502175673690e+00 +2.2811590889850777e+00 +1.4170226272145614e+01 +9.9850766528023641e+01 +1.0798160283503735e+05 +2.0294661068878160e+05 -4.2857497727181602e+08 
-6.9999999999999911e+00 -1.0333460813727209e+00 +2.2802789831391244e+00 +1.4017168176814753e+01 +1.1968153476297961e+02 +1.0989178420051049e+05 +1.0160814122037486e+05 -4.3631028392456937e+08 
-7.0999999999999908e+00 -1.0333418452975873e+00 +2.2794103176317844e+00 +1.3858354414309717e+01 +1.3874181274827842e+02 +1.1186199779561609e+05 +5.7610477553853716e+03 -4.4422751618926966e+08 
-7.1999999999999904e+00 -1.0333375194107823e+00 +2.2785578889694520e+00 +1.3694114655483759e+01 +1.5691773304335132e+02 +1.1388819577015667e+05 -8.4030792939354433e+04 -4.5230954869497699e+08 
-7.2999999999999901e+00 -1.0333331137833743e+00 +2.2777264935042569e+00 +1.3524778820955611e+01 +1.7409543271346334e+02 +1.1596632600092479e+05 -1.6720353663197960e+05 -4.6053923714452779e+08 
-7.3999999999999897e+00 -1.0333286384886751e+00 +2.2769209274233568e+00 +1.3350677078382661e+01 +1.9016105367224336e+02 +1.1809233215467310e+05 -2.4319337398429238e+05 -4.6889941863035345e+08 
-7.4999999999999893e+00 -1.0333241036022571e+00 +2.2761459866220863e+00 +1.3172139829415912e+01 +2.0500074823396318e+02 +1.2026215429814123e+05 -3.1143656476916582e+05 -4.7737291541147232e+08 
-7.5999999999999890e+00 -1.0333195203786343e+00 +2.2754059161987148e+00 +1.2989536816660891e+01 +2.1852374147833322e+02 +1.2247224280365619e+05 -3.7150915746619110e+05 -4.8594803596484452e+08 
-7.6999999999999886e+00 -1.0333149047703456e+00 +2.2747029630655340e+00 +1.2803441336915583e+01 +2.3072150889728212e+02 +1.2471911989655861e+05 -4.2348290641548170e+05 -4.9462307737096167e+08 
-7.7999999999999883e+00 -1.0333102738923341e+00 +2.2740389086571806e+00 +1.2614486969204439e+01 +2.4160435596250639e+02 +1.2699890566458847e+05 -4.6754235116120166e+05 -5.0339626961291045e+08 
-7.8999999999999879e+00 -1.0333056448606164e+00 +2.2734155337091129e+00 +1.2423307361423511e+01 +2.5118260590700388e+02 +1.2930771880715870e+05 -5.0387213045359723e+05 -5.1226583417687577e+08 
-7.9999999999999876e+00 -1.0333010347923854e+00 +2.2728346182481016e+00 +1.2230536237956102e+01 +2.5946659951042017e+02 +1.3164167656725293e+05 -5.3265698129806120e+05 -5.2122998378628987e+08 
-8.0999999999999872e+00 -1.0332964608059960e+00 +2.2722979415739455e+00 +1.2036807395237068e+01 +2.6646669553369082e+02 +1.3399689480924388e+05 -5.5408174137179728e+05 -5.3028692268206561e+08 
-8.1999999999999869e+00 -1.0332919400210194e+00 +2.2718072822301565e+00 +1.1842754706813453e+01 +2.7219327148048768e+02 +1.3636948791976436e+05 -5.6833135337957263e+05 -5.3943484607582581e+08 
-8.2999999999999865e+00 -1.0332874895581929e+00 +2.2713644179774195e+00 +1.1649012114137721e+01 +2.7665672429700834e+02 +1.3875556898465561e+05 -5.7559086909299600e+05 -5.4867194093033385e+08 
-8.3999999999999861e+00 -1.0332831265395461e+00 +2.2709711257790994e+00 +1.1456213641175440e+01 +2.7986747067180772e+02 +1.4115124949538623e+05 -5.7604545092766499e+05 -5.5799638444734216e+08 
-8.4999999999999858e+00 -1.0332788680883835e+00 +2.2706291817662363e+00 +1.1264993389330224e+01 +2.8183594799540771e+02 +1.4355263945159555e+05 -5.6988037752916175e+05 -5.6740634450522196e+08 
-8.5999999999999854e+00 -1.0332747313292847e+00 +2.2703403612171971e+00 +1.1075985535047334e+01 +2.8257261482581521e+02 +1.4595584740241544e+05 -5.5728104630493768e+05 -5.7689997977647722e+08 
-8.6999999999999851e+00 -1.0332707333881470e+00 +2.2701064385334666e+00 +1.0889824333503283e+01 +2.8208795154038859e+02 +1.4835698036695991e+05 -5.3843297724252404e+05 -5.8647543925226104e+08 
-8.7999999999999847e+00 -1.0332668913922292e+00 +2.2699291872173295e+00 +1.0707144121424164e+01 +2.8039246086321128e+02 +1.5075214378252780e+05 -5.1352181580783066e+05 -5.9613086193566525e+08 
-8.8999999999999844e+00 -1.0332632224701577e+00 +2.2698103798451172e+00 +1.0528579315642517e+01 +2.7749666856336199e+02 +1.5313744152855204e+05 -4.8273333696063462e+05 -6.0586437687456071e+08 
-8.9999999999999840e+00 -1.0332597437519373e+00 +2.2697517880397511e+00 +1.0354764412561481e+01 +2.7341112416312046e+02 +1.5550897592570269e+05 -4.4625344918309973e+05 -6.1567410305807781e+08 
-9.0999999999999837e+00 -1.0332564723690247e+00 +2.2697551824520197e+00 +1.0186333994907386e+01 +2.6814640138542740e+02 +1.5786284761232149e+05 -4.0426819699793682e+05 -6.2555814877695382e+08 
-9.1999999999999833e+00 -1.0332534254543060e+00 +2.2698223327348237e+00 +1.0023922726395030e+01 +2.6171309882537940e+02 +1.6019515563971610e+05 -3.5696376482470293e+05 -6.3551461198752439e+08 
-9.2999999999999829e+00 -1.0332506201421321e+00 +2.2699550075159038e+00 +9.8681653544455781e+00 +2.5412184063740582e+02 +1.6250199741447461e+05 -3.0452648085579107e+05 -6.4554157995358968e+08 
-9.3999999999999826e+00 -1.0332480735683391e+00 +2.2701549743743339e+00 +9.7196967105987966e+00 +2.4538327712973708e+02 +1.6477946868487351e+05 -2.4714282043133239e+05 -6.5563712909573543e+08 
-9.4999999999999822e+00 -1.0332458028703329e+00 +2.2704239999876918e+00 +9.5791517337633110e+00 +2.3550807641137203e+02 +1.6702366247495965e+05 -1.8499935256412710e+05 -6.6579931826618886e+08 
-9.5999999999999819e+00 -1.0332438208408634e+00 +2.2707627503184180e+00 +9.4470679700098579e+00 +2.2451925659420229e+02 +1.6923021452638842e+05 -1.1831525217690134e+05 -6.7601917568273675e+08 
-9.6999999999999815e+00 -1.0332421220617591e+00 +2.2711667762037941e+00 +9.3236163363088398e+00 +2.1251197939778768e+02 +1.7139349938609489e+05 -4.7569940805254177e+04 -6.8626549480171752e+08 
-9.7999999999999812e+00 -1.0332406963245382e+00 +2.2716301731825714e+00 +9.2088827228348364e+00 +1.9960443045453016e+02 +1.7350765049194745e+05 +2.6664779922347938e+04 -6.9650254555829036e+08 
-9.8999999999999808e+00 -1.0332395334177404e+00 +2.2721470368934140e+00 +9.1029527396853140e+00 +1.8591479280218849e+02 +1.7556680620573243e+05 +1.0381712198908054e+05 -7.0669462058113718e+08 
-9.9999999999999805e+00 -1.0332386231271264e+00 +2.2727114630949647e+00 +9.0059117353932248e+00 +1.7156124825838032e+02 +1.7756510925678461e+05 +1.8331529863003455e+05 -7.1680603187537181e+08 
-1.0099999999999980e+01 -1.0332379552355595e+00 +2.2733175476704348e+00 +8.9178447850541609e+00 +1.5666197736628703e+02 +1.7949670694793956e+05 +2.6458752445199189e+05 -7.2680111176205540e+08 
