# field on trajectory
# s[mm] rx[mm] ry[mm] rz[mm] bx[T] by[T] bz[T]
0.0000000000000000e+00 +9.1082999999999998e+00 +0.0000000000000000e+00 +0.0000000000000000e+00 +1.1495903534399653e-02 -1.0335687213107563e+00 -5.8815030678206377e-02
-1.0000000000000001e-01 +9.1082994835727362e+00 +0.0000000000000000e+00 -9.9999999998222011e-02 +1.1496044374036934e-02 -1.0335711297528103e+00 -5.8814665017682538e-02
-2.0000000000000001e-01 +9.1082979342893466e+00 +0.0000000000000000e+00 -1.9999999998577611e-01 +1.1496185819748745e-02 -1.0335735140645050e+00 -5.8814327582597407e-02
-3.0000000000000004e-01 +9.1082953521474490e+00 +0.0000000000000000e+00 -2.9999999995199433e-01 +1.1496327760140168e-02 -1.0335758725774966e+00 -5.8814018442620221e-02
-4.0000000000000002e-01 +9.1082917371446861e+00 +0.0000000000000000e+00 -3.9999999988620860e-01 +1.1496470083818305e-02 -1.0335782036232435e+00 -5.8813737667425148e-02
-5.0000000000000000e-01 +9.1082870892787291e+00 +0.0000000000000000e+00 -4.9999999977775084e-01 +1.1496612679394684e-02 -1.0335805055329970e+00 -5.8813485326689709e-02
-5.9999999999999998e-01 +9.1082814085472794e+00 +0.0000000000000000e+00 -5.9999999961595274e-01 +1.1496755435487612e-02 -1.0335827766377836e+00 -5.8813261490093138e-02
-6.9999999999999996e-01 +9.1082746949480669e+00 +0.0000000000000000e+00 -6.9999999939014623e-01 +1.1496898240724541e-02 -1.0335850152683936e+00 -5.8813066227314963e-02
-7.9999999999999993e-01 +9.1082669484788550e+00 +0.0000000000000000e+00 -7.9999999908966279e-01 +1.1497040983744457e-02 -1.0335872197553648e+00 -5.8812899608033195e-02
-8.9999999999999991e-01 +9.1082581691374429e+00 +0.0000000000000000e+00 -8.9999999870383407e-01 +1.1497183553200216e-02 -1.0335893884289697e+00 -5.8812761701922907e-02
-9.9999999999999989e-01 +9.1082483569216635e+00 +0.0000000000000000e+00 -9.9999999822199170e-01 +1.1497325837760945e-02 -1.0335915196192007e+00 -5.8812652578654590e-02
-1.0999999999999999e+00 +9.1082375118293886e+00 +0.0000000000000000e+00 -1.0999999976334671e+00 +1.1497467726114400e-02 -1.0335936116557560e+00 -5.8812572307892552e-02
-1.2000000000000000e+00 +9.1082256338585292e+00 +0.0000000000000000e+00 -1.1999999969275916e+00 +1.1497609106969325e-02 -1.0335956628680267e+00 -5.8812520959293381e-02
-1.3000000000000000e+00 +9.1082127230070373e+00 +0.0000000000000000e+00 -1.2999999960936968e+00 +1.1497749869057839e-02 -1.0335976715850808e+00 -5.8812498602504364e-02
-1.4000000000000001e+00 +9.1081987792729073e+00 +0.0000000000000000e+00 -1.3999999951211137e+00 +1.1497889901137804e-02 -1.0335996361356508e+00 -5.8812505307161804e-02
-1.5000000000000002e+00 +9.1081838026541764e+00 +0.0000000000000000e+00 -1.4999999939991737e+00 +1.1498029091995172e-02 -1.0336015548481179e+00 -5.8812541142889606e-02
-1.6000000000000003e+00 +9.1081677931489295e+00 +0.0000000000000000e+00 -1.5999999927172079e+00 +1.1498167386741347e-02 -1.0336034264146614e+00 -5.8812606142644872e-02
-1.7000000000000004e+00 +9.1081507507552981e+00 +0.0000000000000000e+00 -1.6999999912645476e+00 +1.1498304955692706e-02 -1.0336052509838840e+00 -5.8812700192761497e-02
-1.8000000000000005e+00 +9.1081326754714595e+00 +0.0000000000000000e+00 -1.7999999896305237e+00 +1.1498442025472795e-02 -1.0336070290686121e+00 -5.8812823142911613e-02
-1.9000000000000006e+00 +9.1081135672956410e+00 +0.0000000000000000e+00 -1.8999999878044671e+00 +1.1498578822714402e-02 -1.0336087611818250e+00 -5.8812974842758568e-02
-2.0000000000000004e+00 +9.1080934262261124e+00 +0.0000000000000000e+00 -1.9999999857757091e+00 +1.1498715574058399e-02 -1.0336104478367127e+00 -5.8813155141956591e-02
-2.1000000000000005e+00 +9.1080722522611897e+00 +0.0000000000000000e+00 -2.0999999835335807e+00 +1.1498852506152554e-02 -1.0336120895467300e+00 -5.8813363890150468e-02
-2.2000000000000006e+00 +9.1080500453992350e+00 +0.0000000000000000e+00 -2.1999999810674127e+00 +1.1498989845650369e-02 -1.0336136868256522e+00 -5.8813600936975206e-02
-2.3000000000000007e+00 +9.1080268056386551e+00 +0.0000000000000000e+00 -2.2999999783665359e+00 +1.1499127819209884e-02 -1.0336152401876324e+00 -5.8813866132055692e-02
-2.4000000000000008e+00 +9.1080025329778991e+00 +0.0000000000000000e+00 -2.3999999754202812e+00 +1.1499266653492549e-02 -1.0336167501472562e+00 -5.8814159325006353e-02
-2.5000000000000009e+00 +9.1079772274154625e+00 +0.0000000000000000e+00 -2.4999999722179793e+00 +1.1499406575162014e-02 -1.0336182172195987e+00 -5.8814480365430875e-02
-2.6000000000000010e+00 +9.1079508889498797e+00 +0.0000000000000000e+00 -2.5999999687489610e+00 +1.1499547810882976e-02 -1.0336196419202783e+00 -5.8814829102921837e-02
-2.7000000000000011e+00 +9.1079235175797315e+00 +0.0000000000000000e+00 -2.6999999650025570e+00 +1.1499690587320000e-02 -1.0336210247655171e+00 -5.8815205387060400e-02
-2.8000000000000012e+00 +9.1078951133036377e+00 +0.0000000000000000e+00 -2.7999999609680981e+00 +1.1499835131136355e-02 -1.0336223662721913e+00 -5.8815609067415883e-02
-2.9000000000000012e+00 +9.1078656761202605e+00 +0.0000000000000000e+00 -2.8999999566349146e+00 +1.1499981668992848e-02 -1.0336236669578904e+00 -5.8816039993545621e-02
-3.0000000000000013e+00 +9.1078352060283052e+00 +0.0000000000000000e+00 -2.9999999519923373e+00 +1.1500130427546633e-02 -1.0336249273409732e+00 -5.8816498014994459e-02
-3.1000000000000014e+00 +9.1078037030265140e+00 +0.0000000000000000e+00 -3.0999999470296968e+00 +1.1500281633450059e-02 -1.0336261479406224e+00 -5.8816982981294445e-02
-3.2000000000000015e+00 +9.1077711671136701e+00 +0.0000000000000000e+00 -3.1999999417363241e+00 +1.1500435513349500e-02 -1.0336273292769012e+00 -5.8817494741964599e-02
-3.3000000000000016e+00 +9.1077375982885975e+00 +0.0000000000000000e+00 -3.2999999361015493e+00 +1.1500592293884180e-02 -1.0336284718708093e+00 -5.8818033146510511e-02
-3.4000000000000017e+00 +9.1077029965501559e+00 +0.0000000000000000e+00 -3.3999999301147033e+00 +1.1500752201685002e-02 -1.0336295762443395e+00 -5.8818598044423978e-02
-3.5000000000000018e+00 +9.1076673618972475e+00 +0.0000000000000000e+00 -3.4999999237651163e+00 +1.1500915463373385e-02 -1.0336306429205311e+00 -5.8819189285182663e-02
-3.6000000000000019e+00 +9.1076306943288099e+00 +0.0000000000000000e+00 -3.5999999170421186e+00 +1.1501082209002493e-02 -1.0336316726412393e+00 -5.8819806603282239e-02
-3.7000000000000020e+00 +9.1075929938438165e+00 +0.0000000000000000e+00 -3.6999999099350411e+00 +1.1501252182374820e-02 -1.0336326670198448e+00 -5.8820449273337315e-02
-3.8000000000000020e+00 +9.1075542604412778e+00 +0.0000000000000000e+00 -3.7999999024332141e+00 +1.1501425030700235e-02 -1.0336336278873068e+00 -5.8821116454995444e-02
-3.9000000000000021e+00 +9.1075144941202382e+00 +0.0000000000000000e+00 -3.8999998945259677e+00 +1.1501600401149503e-02 -1.0336345570742955e+00 -5.8821807307907335e-02
-4.0000000000000018e+00 +9.1074736948797739e+00 +0.0000000000000000e+00 -3.9999998862026329e+00 +1.1501777940851525e-02 -1.0336354564111510e+00 -5.8822520991727884e-02
-4.1000000000000014e+00 +9.1074318627189896e+00 +0.0000000000000000e+00 -4.0999998774525395e+00 +1.1501957296890618e-02 -1.0336363277278402e+00 -5.8823256666116833e-02
-4.2000000000000011e+00 +9.1073889976370186e+00 +0.0000000000000000e+00 -4.1999998682650181e+00 +1.1502138116303759e-02 -1.0336371728539173e+00 -5.8824013490739707e-02
-4.3000000000000007e+00 +9.1073450996330205e+00 +0.0000000000000000e+00 -4.2999998586293993e+00 +1.1502320046077872e-02 -1.0336379936184801e+00 -5.8824790625268637e-02
-4.4000000000000004e+00 +9.1073001687061819e+00 +0.0000000000000000e+00 -4.3999998485350131e+00 +1.1502502733147074e-02 -1.0336387918501297e+00 -5.8825587229383122e-02
-4.5000000000000000e+00 +9.1072542048557068e+00 +0.0000000000000000e+00 -4.4999998379711901e+00 +1.1502685824389944e-02 -1.0336395693769291e+00 -5.8826402462771002e-02
-4.5999999999999996e+00 +9.1072072080808244e+00 +0.0000000000000000e+00 -4.5999998269272604e+00 +1.1502868966626773e-02 -1.0336403280263595e+00 -5.8827235485129185e-02
-4.6999999999999993e+00 +9.1071591783807815e+00 +0.0000000000000000e+00 -4.6999998153925544e+00 +1.1503051806616831e-02 -1.0336410696252802e+00 -5.8828085456164435e-02
-4.7999999999999989e+00 +9.1071101157548426e+00 +0.0000000000000000e+00 -4.7999998033564024e+00 +1.1503233991055630e-02 -1.0336417959998883e+00 -5.8828951535594406e-02
-4.8999999999999986e+00 +9.1070600202022849e+00 +0.0000000000000000e+00 -4.8999997908081347e+00 +1.1503415166572170e-02 -1.0336425089756729e+00 -5.8829832883148289e-02
-4.9999999999999982e+00 +9.1070088917224030e+00 +0.0000000000000000e+00 -4.9999997777370817e+00 +1.1503594979726202e-02 -1.0336432103773781e+00 -5.8830728658567706e-02
-5.0999999999999979e+00 +9.1069567303145007e+00 +0.0000000000000000e+00 -5.0999997641325736e+00 +1.1503773077005472e-02 -1.0336439020289565e+00 -5.8831638021607534e-02
-5.1999999999999975e+00 +9.1069035359778923e+00 +0.0000000000000000e+00 -5.1999997499839408e+00 +1.1503949104823002e-02 -1.0336445857535332e+00 -5.8832560132036811e-02
-5.2999999999999972e+00 +9.1068493087118991e+00 +0.0000000000000000e+00 -5.2999997352805135e+00 +1.1504122709514305e-02 -1.0336452633733579e+00 -5.8833494149639468e-02
-5.3999999999999968e+00 +9.1067940485158516e+00 +0.0000000000000000e+00 -5.3999997200116212e+00 +1.1504293537334677e-02 -1.0336459367097683e+00 -5.8834439234215240e-02
-5.4999999999999964e+00 +9.1067377553890800e+00 +0.0000000000000000e+00 -5.4999997041665951e+00 +1.1504461234456406e-02 -1.0336466075831456e+00 -5.8835394545580469e-02
-5.5999999999999961e+00 +9.1066804293309218e+00 +0.0000000000000000e+00 -5.5999996877347646e+00 +1.1504625565317190e-02 -1.0336472771332663e+00 -5.8836359211134552e-02
-5.6999999999999957e+00 +9.1066220703407144e+00 +0.0000000000000000e+00 -5.6999996707054601e+00 +1.1504786767731196e-02 -1.0336479437808173e+00 -5.8837332228557811e-02
-5.7999999999999954e+00 +9.1065626784177969e+00 +0.0000000000000000e+00 -5.7999996530680118e+00 +1.1504945197932695e-02 -1.0336486052669003e+00 -5.8838312563118639e-02
-5.8999999999999950e+00 +9.1065022535615139e+00 +0.0000000000000000e+00 -5.8999996348117492e+00 +1.1505101212241206e-02 -1.0336492593327593e+00 -5.8839299180109758e-02
-5.9999999999999947e+00 +9.1064407957712206e+00 +0.0000000000000000e+00 -5.9999996159260025e+00 +1.1505255167066273e-02 -1.0336499037197897e+00 -5.8840291044849287e-02
-6.0999999999999943e+00 +9.1063783050462792e+00 +0.0000000000000000e+00 -6.0999995964001021e+00 +1.1505407418912199e-02 -1.0336505361695516e+00 -5.8841287122681780e-02
-6.1999999999999940e+00 +9.1063147813860645e+00 +0.0000000000000000e+00 -6.1999995762233784e+00 +1.1505558324382815e-02 -1.0336511544237799e+00 -5.8842286378979237e-02
-6.2999999999999936e+00 +9.1062502247899655e+00 +0.0000000000000000e+00 -6.2999995553851615e+00 +1.1505708240186194e-02 -1.0336517562243936e+00 -5.8843287779142169e-02
-6.3999999999999932e+00 +9.1061846352573870e+00 +0.0000000000000000e+00 -6.3999995338747810e+00 +1.1505857523139425e-02 -1.0336523393135102e+00 -5.8844290288600609e-02
-6.4999999999999929e+00 +9.1061180127877535e+00 +0.0000000000000000e+00 -6.4999995116815663e+00 +1.1506006530173368e-02 -1.0336529014334539e+00 -5.8845292872815189e-02
-6.5999999999999925e+00 +9.1060503573805125e+00 +0.0000000000000000e+00 -6.5999994887948485e+00 +1.1506155618337392e-02 -1.0336534403267690e+00 -5.8846294497278163e-02
-6.6999999999999922e+00 +9.1059816690351312e+00 +0.0000000000000000e+00 -6.6999994652039572e+00 +1.1506305144804154e-02 -1.0336539537362284e+00 -5.8847294127514424e-02
-6.7999999999999918e+00 +9.1059119477511050e+00 +0.0000000000000000e+00 -6.7999994408982225e+00 +1.1506455466874333e-02 -1.0336544394048470e+00 -5.8848290729082577e-02
-6.8999999999999915e+00 +9.1058411935279562e+00 +0.0000000000000000e+00 -6.8999994158669740e+00 +1.1506606941981410e-02 -1.0336548950758917e+00 -5.8849283267575971e-02
-6.9999999999999911e+00 +9.1057694063652352e+00 +0.0000000000000000e+00 -6.9999993900995428e+00 +1.1506759927696428e-02 -1.0336553184928934e+00 -5.8850270708623843e-02
-7.0999999999999908e+00 +9.1056965862625283e+00 +0.0000000000000000e+00 -7.0999993635852583e+00 +1.1506914781732748e-02 -1.0336557073996560e+00 -5.8851252017892174e-02
-7.1999999999999904e+00 +9.1056227332194553e+00 +0.0000000000000000e+00 -7.1999993363134500e+00 +1.1507071861950817e-02 -1.0336560595402704e+00 -5.8852226161084910e-02
-7.2999999999999901e+00 +9.1055478472356715e+00 +0.0000000000000000e+00 -7.2999993082734491e+00 +1.1507231526362956e-02 -1.0336563726591226e+00 -5.8853192103944976e-02
-7.3999999999999897e+00 +9.1054719283108732e+00 +0.0000000000000000e+00 -7.3999992794545850e+00 +1.1507394133138097e-02 -1.0336566445009083e+00 -5.8854148812255286e-02
-7.4999999999999893e+00 +9.1053949764447957e+00 +0.0000000000000000e+00 -7.4999992498461880e+00 +1.1507560040606594e-02 -1.0336568728106401e+00 -5.8855095251839837e-02
-7.5999999999999890e+00 +9.1053169916372205e+00 +0.0000000000000000e+00 -7.5999992194375876e+00 +1.1507729495663293e-02 -1.0336570559244642e+00 -5.8856030566161455e-02
-7.6999999999999886e+00 +9.1052379738879718e+00 +0.0000000000000000e+00 -7.6999991882181149e+00 +1.1507902298861016e-02 -1.0336571945421056e+00 -5.8856954609074225e-02
-7.7999999999999883e+00 +9.1051579231969200e+00 +0.0000000000000000e+00 -7.7999991561770994e+00 +1.1508078139052783e-02 -1.0336572899544187e+00 -5.8857867411929020e-02
-7.8999999999999879e+00 +9.1050768395639778e+00 +0.0000000000000000e+00 -7.8999991233038713e+00 +1.1508256704970235e-02 -1.0336573434525613e+00 -5.8858769005951085e-02
-7.9999999999999876e+00 +9.1049947229891011e+00 +0.0000000000000000e+00 -7.9999990895877620e+00 +1.1508437685218904e-02 -1.0336573563280063e+00 -5.8859659422235727e-02
-8.0999999999999872e+00 +9.1049115734722843e+00 +0.0000000000000000e+00 -8.0999990550181007e+00 +1.1508620768273498e-02 -1.0336573298725502e+00 -5.8860538691743992e-02
-8.1999999999999869e+00 +9.1048273910135631e+00 +0.0000000000000000e+00 -8.1999990195842187e+00 +1.1508805642473167e-02 -1.0336572653783203e+00 -5.8861406845298253e-02
-8.2999999999999865e+00 +9.1047421756130120e+00 +0.0000000000000000e+00 -8.2999989832754455e+00 +1.1508991996016791e-02 -1.0336571641377861e+00 -5.8862263913577906e-02
-8.3999999999999861e+00 +9.1046559272707395e+00 +0.0000000000000000e+00 -8.3999989460811122e+00 +1.1509179516958233e-02 -1.0336570274437689e+00 -5.8863109927115055e-02
-8.4999999999999858e+00 +9.1045686459868929e+00 +0.0000000000000000e+00 -8.4999989079905482e+00 +1.1509367893201611e-02 -1.0336568565894475e+00 -5.8863944916290045e-02
-8.5999999999999854e+00 +9.1044803317616516e+00 +0.0000000000000000e+00 -8.5999988689930849e+00 +1.1509556812496564e-02 -1.0336566528683711e+00 -5.8864768911327185e-02
-8.6999999999999851e+00 +9.1043909845952271e+00 +0.0000000000000000e+00 -8.6999988290780514e+00 +1.1509745962433508e-02 -1.0336564175744665e+00 -5.8865581942290357e-02
-8.7999999999999847e+00 +9.1043006044878663e+00 +0.0000000000000000e+00 -8.7999987882347792e+00 +1.1509935030438895e-02 -1.0336561520020469e+00 -5.8866384039078595e-02
-8.8999999999999844e+00 +9.1042091914398426e+00 +0.0000000000000000e+00 -8.8999987464525994e+00 +1.1510123703770468e-02 -1.0336558574458219e+00 -5.8867175231421834e-02
-8.9999999999999840e+00 +9.1041167454514600e+00 +0.0000000000000000e+00 -8.9999987037208413e+00 +1.1510311669512521e-02 -1.0336555352009078e+00 -5.8867955548876423e-02
-9.0999999999999837e+00 +9.1040232665230505e+00 +0.0000000000000000e+00 -9.0999986600288363e+00 +1.1510498614571108e-02 -1.0336551865628323e+00 -5.8868725020820765e-02
-9.1999999999999833e+00 +9.1039287546549730e+00 +0.0000000000000000e+00 -9.1999986153659155e+00 +1.1510684225669343e-02 -1.0336548128275489e+00 -5.8869483676450986e-02
-9.2999999999999829e+00 +9.1038332098476094e+00 +0.0000000000000000e+00 -9.2999985697214100e+00 +1.1510868189342605e-02 -1.0336544152914424e+00 -5.8870231544776511e-02
-9.3999999999999826e+00 +9.1037366321013682e+00 +0.0000000000000000e+00 -9.3999985230846494e+00 +1.1511050191933781e-02 -1.0336539952513391e+00 -5.8870968654615621e-02
-9.4999999999999822e+00 +9.1036390214166794e+00 +0.0000000000000000e+00 -9.4999984754449649e+00 +1.1511229919588495e-02 -1.0336535540045162e+00 -5.8871695034591123e-02
-9.5999999999999819e+00 +9.1035403777939941e+00 +0.0000000000000000e+00 -9.5999984267916876e+00 +1.1511407125286555e-02 -1.0336530923978182e+00 -5.8872410594589988e-02
-9.6999999999999815e+00 +9.1034407012337848e+00 +0.0000000000000000e+00 -9.6999983771141469e+00 +1.1511581830089889e-02 -1.0336526094746756e+00 -5.8873114770270490e-02
-9.7999999999999812e+00 +9.1033399917365436e+00 +0.0000000000000000e+00 -9.7999983264016759e+00 +1.1511754122258445e-02 -1.0336521038274198e+00 -5.8873806878929624e-02
-9.8999999999999808e+00 +9.1032382493027875e+00 +0.0000000000000000e+00 -9.8999982746436039e+00 +1.1511924090245882e-02 -1.0336515740481469e+00 -5.8874486238091266e-02
-9.9999999999999805e+00 +9.1031354739330563e+00 +0.0000000000000000e+00 -9.9999982218292622e+00 +1.1512091822705186e-02 -1.0336510187287131e+00 -5.8875152165513020e-02
-1.0099999999999980e+01 +9.1030316656279169e+00 +0.0000000000000000e+00 -1.0099998167947982e+01 +1.1512257408494252e-02 -1.0336504364607222e+00 -5.8875803979192787e-02
-1.0199999999999980e+01 +9.1029268243879606e+00 +0.0000000000000000e+00 -1.0199998112989094e+01 +1.1512420936681493e-02 -1.0336498258355205e+00 -5.8876440997375636e-02
-1.0299999999999979e+01 +9.1028209502138111e+00 +0.0000000000000000e+00 -1.0299998056941931e+01 +1.1512582496551477e-02 -1.0336491854441840e+00 -5.8877062538560385e-02
-1.0399999999999979e+01 +9.1027140431061184e+00 +0.0000000000000000e+00 -1.0399997999795822e+01 +1.1512742177610467e-02 -1.0336485138775138e+00 -5.8877667921506380e-02
-1.0499999999999979e+01 +9.1026061030655665e+00 +0.0000000000000000e+00 -1.0499997941540098e+01 +1.1512900069592118e-02 -1.0336478097260235e+00 -5.8878256465240128e-02
-1.0599999999999978e+01 +9.1024971300928694e+00 +0.0000000000000000e+00 -1.0599997882164091e+01 +1.1513056262463029e-02 -1.0336470715799340e+00 -5.8878827489062174e-02
-1.0699999999999978e+01 +9.1023871241887768e+00 +0.0000000000000000e+00 -1.0699997821657133e+01 +1.1513210846428420e-02 -1.0336462980291601e+00 -5.8879380312553617e-02
-1.0799999999999978e+01 +9.1022760853540721e+00 +0.0000000000000000e+00 -1.0799997760008555e+01 +1.1513363911937717e-02 -1.0336454876633079e+00 -5.8879914255583032e-02
-1.0899999999999977e+01 +9.1021640135895794e+00 +0.0000000000000000e+00 -1.0899997697207688e+01 +1.1513515549690215e-02 -1.0336446390716609e+00 -5.8880428638313061e-02
-1.0999999999999977e+01 +9.1020509088961585e+00 +0.0000000000000000e+00 -1.0999997633243865e+01 +1.1513665850640687e-02 -1.0336437508431735e+00 -5.8880922781207184e-02
-1.1099999999999977e+01 +9.1019367712747083e+00 +0.0000000000000000e+00 -1.1099997568106415e+01 +1.1513814906005060e-02 -1.0336428215664621e+00 -5.8881396005036502e-02
-1.1199999999999976e+01 +9.1018216007261703e+00 +0.0000000000000000e+00 -1.1199997501784672e+01 +1.1513962807266022e-02 -1.0336418498297959e+00 -5.8881847630886400e-02
-1.1299999999999976e+01 +9.1017053972515267e+00 +0.0000000000000000e+00 -1.1299997434267967e+01 +1.1514109646178701e-02 -1.0336408342210881e+00 -5.8882276980163295e-02
-1.1399999999999975e+01 +9.1015881608518061e+00 +0.0000000000000000e+00 -1.1399997365545632e+01 +1.1514255514776302e-02 -1.0336397733278890e+00 -5.8882683374601424e-02
-1.1499999999999975e+01 +9.1014698915280814e+00 +0.0000000000000000e+00 -1.1499997295606999e+01 +1.1514400505375772e-02 -1.0336386657373740e+00 -5.8883066136269556e-02
-1.1599999999999975e+01 +9.1013505892814717e+00 +0.0000000000000000e+00 -1.1599997224441399e+01 +1.1514544676401641e-02 -1.0336375099125981e+00 -5.8883424754960265e-02
-1.1699999999999974e+01 +9.1012302541131458e+00 +0.0000000000000000e+00 -1.1699997152038165e+01 +1.1514687949643367e-02 -1.0336363038212142e+00 -5.8883759390271538e-02
