# multipoles
# s[mm] polynom_b[n=0][T/m^n] polynom_b[n=1][T/m^n] polynom_b[n=2][T/m^n] polynom_b[n=3][T/m^n] polynom_b[n=4][T/m^n] polynom_b[n=5][T/m^n] polynom_b[n=6][T/m^n] 
-0.0000000000000000e+00 -1.0318463942765452e+00 +2.2908419275663645e+00 +2.2412662664162784e+01 -3.7053485831309359e+01 -8.0551428423221325e+04 +1.2394204483828514e+06 +4.9747363876981270e+08 
-1.0000000000000001e-01 -1.0318412148087424e+00 +2.2914773829449309e+00 +2.2219175135878960e+01 -4.9315286529981385e+01 -7.6916581382457836e+04 +1.2935791646725547e+06 +4.7991051168909776e+08 
-2.0000000000000001e-01 -1.0318359501679628e+00 +2.2921150115882996e+00 +2.2021162280960397e+01 -6.1668312498092845e+01 -7.3217858557388652e+04 +1.3483397346125860e+06 +4.6211393412883902e+08 
-2.9999999999999999e-01 -1.0318306142610336e+00 +2.2927518682175241e+00 +2.1819350092419182e+01 -7.4069339882992978e+01 -6.9463158955528823e+04 +1.4035346021986345e+06 +4.4410640473968410e+08 
-4.0000000000000002e-01 -1.0318252209948162e+00 +2.2933850075755142e+00 +2.1614464571535851e+01 -8.6475145436319309e+01 -6.5660381768996114e+04 +1.4589962143527858e+06 +4.2591042309424937e+08 
-5.0000000000000000e-01 -1.0318197842760533e+00 +2.2940114844148654e+00 +2.1407231711946825e+01 -9.8842506304448918e+01 -6.1817426082625068e+04 +1.5145570203911678e+06 +4.0754848832735610e+08 
-5.9999999999999998e-01 -1.0318143180114678e+00 +2.2946283534858254e+00 +2.1198377514803173e+01 -1.1112819979799201e+02 -5.7942191195300780e+04 +1.5700494712099964e+06 +3.8904310075640082e+08 
-6.9999999999999996e-01 -1.0318088361076849e+00 +2.2952326695209408e+00 +2.0988627979670454e+01 -1.2328900305608120e+02 -5.4042576451946603e+04 +1.6253060178776062e+06 +3.7041676109580410e+08 
-8.0000000000000004e-01 -1.0318033524711532e+00 +2.2958214872241514e+00 +2.0778709099590774e+01 -1.3528169285882095e+02 -5.0126481175430628e+04 +1.6801591111603940e+06 +3.5169197020138508e+08 
-9.0000000000000002e-01 -1.0317978810082402e+00 +2.2963918612516343e+00 +2.0569346875990213e+01 -1.4706304520080556e+02 -4.6201804972628794e+04 +1.7344411996323995e+06 +3.3289123059358341e+08 
-1.0000000000000000e+00 -1.0317924356250558e+00 +2.2969408461999881e+00 +2.0361267295382593e+01 -1.5858983505114867e+02 -4.2276447303137153e+04 +1.7879847287739839e+06 +3.1403704443268162e+08 
-1.1000000000000001e+00 -1.0317870302275458e+00 +2.2974654965925314e+00 +2.0155196348402267e+01 -1.6981883608365746e+02 -3.8358307867903044e+04 +1.8406221400292809e+06 +2.9515191544324970e+08 
-1.2000000000000000e+00 -1.0317816787214109e+00 +2.2979628668690419e+00 +1.9951860018680001e+01 -1.8070682051922267e+02 -3.4455286413055990e+04 +1.8921858704934618e+06 +2.7625834802499956e+08 
-1.3000000000000000e+00 -1.0317763950120642e+00 +2.2984300113664577e+00 +1.9751984282731204e+01 -1.9121055865127195e+02 -3.0575282747801572e+04 +1.9425083506410853e+06 +2.5737884738883430e+08 
-1.3999999999999999e+00 -1.0317711930046571e+00 +2.2988639843056649e+00 +1.9556295114557784e+01 -2.0128681862002614e+02 -2.6726196853678575e+04 +1.9914220036786348e+06 +2.3853592013890734e+08 
-1.5000000000000000e+00 -1.0317660866039853e+00 +2.2992618397797129e+00 +1.9365518476032882e+01 -2.1089236616261806e+02 -2.2915928720199627e+04 +2.0387592445901979e+06 +2.1975207354288349e+08 
-1.6000000000000001e+00 -1.0317610874775864e+00 +2.2996214752441135e+00 +1.9180264968055425e+01 -2.1999621486534556e+02 -1.9151230953443555e+04 +2.0844022177084819e+06 +2.0104677874218535e+08 
-1.7000000000000000e+00 -1.0317561982490036e+00 +2.2999441366093989e+00 +1.9000654515253860e+01 -2.2861515876731852e+02 -1.5433765420752474e+04 +2.1284242811950031e+06 +1.8242508668177125e+08 
-1.8000000000000000e+00 -1.0317514192565973e+00 +2.3002319010411463e+00 +1.8826677068275728e+01 -2.3677763835892804e+02 -1.1763797141831195e+04 +2.1709447003967366e+06 +1.6388788253145573e+08 
-1.8999999999999999e+00 -1.0317467508387279e+00 +2.3004868456063705e+00 +1.8658322587608353e+01 -2.4451209163453058e+02 -8.1415914153349831e+03 +2.2120827278732746e+06 +1.4543605303657493e+08 
-2.0000000000000000e+00 -1.0317421933337125e+00 +2.3007110472732339e+00 +1.8495581034655668e+01 -2.5184695403709745e+02 -4.5674136401280248e+03 +2.2519576028369665e+06 +1.2707048564933136e+08 
-2.1000000000000001e+00 -1.0317377470799165e+00 +2.3009065829022193e+00 +1.8338442382777888e+01 -2.5881065815078625e+02 -1.0415295112551878e+03 +2.2906885491783433e+06 +1.0879206942474705e+08 
-2.2000000000000002e+00 -1.0317334124157655e+00 +2.3010755292417446e+00 +1.8186896616622207e+01 -2.6543163348532249e+02 +2.4357949952569738e+03 +2.3283947738895947e+06 +9.0601694946562976e+07 
-2.2999999999999998e+00 -1.0317291896796981e+00 +2.3012199629296166e+00 +1.8040933723284322e+01 -2.7173830651033330e+02 +5.8642938061824598e+03 +2.3651954671786604e+06 +7.2500253413283661e+07 
-2.3999999999999999e+00 -1.0317250792103190e+00 +2.3013419604893341e+00 +1.7900543712512658e+01 -2.7775910044926508e+02 +9.2437003671007897e+03 +2.4012098009570702e+06 +5.4488638468587168e+07 
-2.5000000000000000e+00 -1.0317210813462694e+00 +2.3014435983204726e+00 +1.7765716596525628e+01 -2.8352243495914627e+02 +1.2573748040258732e+04 +2.4365569267787579e+06 +3.6567744273404256e+07 
-2.6000000000000001e+00 -1.0317171964263867e+00 +2.3015269527041800e+00 +1.7636442408006868e+01 -2.8905672623060661e+02 +1.5854169775116774e+04 +2.4713559761937805e+06 +1.8738467040587645e+07 
-2.7000000000000002e+00 -1.0317134247896378e+00 +2.3015940997925144e+00 +1.7512711192768869e+01 -2.9439038661643121e+02 +1.9084698244989821e+04 +2.5057260583771286e+06 +1.0017043994130249e+06 
-2.7999999999999998e+00 -1.0317097667751753e+00 +2.3016471156090326e+00 +1.7394513012535882e+01 -2.9955182460713650e+02 +2.2265065813607333e+04 +2.5397862597923223e+06 -1.6641644496179998e+07 
-2.8999999999999999e+00 -1.0317062227223643e+00 +2.3016880760487970e+00 +1.7281837945648757e+01 -3.0456944475380550e+02 +2.5395004527437315e+04 +2.5736556434422131e+06 -3.4190678945338346e+07 
-3.0000000000000000e+00 -1.0317027929708138e+00 +2.3017190568625483e+00 +1.7174676093328163e+01 -3.0947164715500242e+02 +2.8474246002538264e+04 +2.6074532457313770e+06 -5.1644496169904053e+07 
-3.1000000000000001e+00 -1.0316994778603512e+00 +2.3017421336683292e+00 +1.7073017571738287e+01 -3.1428682775059355e+02 +3.1502521585878581e+04 +2.6412980779481251e+06 -6.9002192110966533e+07 
-3.2000000000000002e+00 -1.0316962777311245e+00 +2.3017593819395317e+00 +1.6976852522866295e+01 -3.1904337789491899e+02 +3.4479562159003333e+04 +2.6753091234974642e+06 -8.6262860517410189e+07 
-3.2999999999999998e+00 -1.0316931929235360e+00 +2.3017728770048644e+00 +1.6886171106349661e+01 -3.2376968431584362e+02 +3.7405098300729871e+04 +2.7096053375173635e+06 -1.0342559373683435e+08 
-3.3999999999999999e+00 -1.0316902237783165e+00 +2.3017846940411082e+00 +1.6800963505965864e+01 -3.2849412884676042e+02 +4.0278860170762149e+04 +2.7443056450759708e+06 -1.2048948217792252e+08 
-3.5000000000000000e+00 -1.0316873706365939e+00 +2.3017969080715193e+00 +1.6721219935209419e+01 -3.3324508832390046e+02 +4.3100577416567357e+04 +2.7795289401877769e+06 -1.3745361391031435e+08 
-3.6000000000000001e+00 -1.0316846322395150e+00 +2.3018111474162835e+00 +1.6646851746208487e+01 -3.3804212011992360e+02 +4.5870770089772988e+04 +2.8153471674812958e+06 -1.5431905529719484e+08 
-3.7000000000000002e+00 -1.0316820011977634e+00 +2.3018272000783608e+00 +1.6577512811508768e+01 -3.4286726771590492e+02 +4.8591949172707529e+04 +2.8516293847314189e+06 -1.7108882636813995e+08 
-3.7999999999999998e+00 -1.0316794686574844e+00 +2.3018443769593531e+00 +1.6512807372099019e+01 -3.4769252899284680e+02 +5.1266822461531003e+04 +2.8881894278140864e+06 -1.8776489299334222e+08 
-3.8999999999999999e+00 -1.0316770257646259e+00 +2.3018619890029348e+00 +1.6452339641645594e+01 -3.5248990150075247e+02 +5.3898098228865521e+04 +2.9248411248078886e+06 -2.0434922298430923e+08 
-4.0000000000000000e+00 -1.0316746636649718e+00 +2.3018793472170795e+00 +1.6395713805810978e+01 -3.5723138309156667e+02 +5.6488485244041934e+04 +2.9613982997657410e+06 -2.2084378622882587e+08 
-4.0999999999999996e+00 -1.0316723735041018e+00 +2.3018957626812502e+00 +1.6342534022120745e+01 -3.6188897199603105e+02 +5.9040692786222280e+04 +2.9976747727382509e+06 -2.3725055477651507e+08 
-4.2000000000000002e+00 -1.0316701464273406e+00 +2.3019105465548955e+00 +1.6292404407031160e+01 -3.6643466701450251e+02 +6.1557430888134521e+04 +3.0334843605658240e+06 -2.5357150397761425e+08 
-4.2999999999999998e+00 -1.0316679735798413e+00 +2.3019230100936836e+00 +1.6244929051591502e+01 -3.7084046784450811e+02 +6.4041410034549255e+04 +3.0686408783192327e+06 -2.6980861103062844e+08 
-4.4000000000000004e+00 -1.0316658461064685e+00 +2.3019324646507351e+00 +1.6199712001913007e+01 -3.7507837503164183e+02 +6.6495341544761002e+04 +3.1029581386362482e+06 -2.8596385682251710e+08 
-4.5000000000000000e+00 -1.0316637551518486e+00 +2.3019382216977564e+00 +1.6156357269027488e+01 -3.7912039049803815e+02 +6.8921937377964321e+04 +3.1362499544910127e+06 -3.0203922497003418e+08 
-4.5999999999999996e+00 -1.0316616918602970e+00 +2.3019395928264985e+00 +1.6114468814906051e+01 -3.8293851746209054e+02 +7.1323910407433199e+04 +3.1683301382279526e+06 -3.1803670314133066e+08 
-4.7000000000000002e+00 -1.0316596473758697e+00 +2.3019358897621105e+00 +1.6073650562314391e+01 -3.8650476072810153e+02 +7.3703974227932864e+04 +3.1990125029020715e+06 -3.3395828211095285e+08 
-4.7999999999999998e+00 -1.0316576128423010e+00 +2.3019264243734749e+00 +1.6033506385608835e+01 -3.8979112689220176e+02 +7.6064843338499239e+04 +3.2281108631121204e+06 -3.4980595664287168e+08 
-4.9000000000000004e+00 -1.0316555794030247e+00 +2.3019105086905012e+00 +1.5993640111059412e+01 -3.9276962474998203e+02 +7.8409233132377849e+04 +3.2554390369620025e+06 -3.6558172542140996e+08 
-5.0000000000000000e+00 -1.0316535382010750e+00 +2.3018874548957533e+00 +1.5953655506530122e+01 -3.9541226492991177e+02 +8.0739860099819358e+04 +3.2808108435219312e+06 -3.8128759202370650e+08 
-5.0999999999999996e+00 -1.0316514803792161e+00 +2.3018565753569931e+00 +1.5913156296072163e+01 -3.9769106075941778e+02 +8.3059441546142567e+04 +3.3040401075104144e+06 -3.9692556355500603e+08 
-5.2000000000000002e+00 -1.0316493970797900e+00 +2.3018171826214919e+00 +1.5871746139686218e+01 -3.9957802799013882e+02 +8.5370695985206112e+04 +3.3249406572893481e+06 -4.1249765253648585e+08 
-5.2999999999999998e+00 -1.0316472794447615e+00 +2.3017685894329611e+00 +1.5829028640464522e+01 -4.0104518518508468e+02 +8.7676342999784436e+04 +3.3433263267350662e+06 -4.2800587621766359e+08 
-5.4000000000000004e+00 -1.0316451186157465e+00 +2.3017101087405640e+00 +1.5784607346066592e+01 -4.0206455389023739e+02 +8.9979103214376635e+04 +3.3590109558507814e+06 -4.4345225644140983e+08 
-5.5000000000000000e+00 -1.0316429057338485e+00 +2.3016410537076606e+00 +1.5738085728927889e+01 -4.0260815870670098e+02 +9.2281698690093966e+04 +3.3718083908829545e+06 -4.5883882154367429e+08 
-5.5999999999999996e+00 -1.0316406335890109e+00 +2.3015607238057472e+00 +1.5689130545985861e+01 -4.0264953249425895e+02 +9.4586618081984285e+04 +3.3815420910957274e+06 -4.7416840945004386e+08 
-5.7000000000000002e+00 -1.0316383013859955e+00 +2.3014684963266112e+00 +1.5637635905732813e+01 -4.0217369139241373e+02 +9.6896084880685143e+04 +3.3881044726068703e+06 -4.8945058432294840e+08 
-5.7999999999999998e+00 -1.0316359098819974e+00 +2.3013638048263414e+00 +1.5583544848164539e+01 -4.0117003015146446e+02 +9.9212464996895433e+04 +3.3914136006156900e+06 -5.0469768464439869e+08 
-5.9000000000000004e+00 -1.0316334598336672e+00 +2.3012460829321091e+00 +1.5526800334680804e+01 -3.9962794630604213e+02 +1.0153812608484949e+05 +3.3913875565967928e+06 -5.1992205782475901e+08 
-6.0000000000000000e+00 -1.0316309519971245e+00 +2.3011147642980903e+00 +1.5467345251881794e+01 -3.9753683862644453e+02 +1.0387543741132076e+05 +3.3879444299263614e+06 -5.3513605951297450e+08 
-6.0999999999999996e+00 -1.0316283871279364e+00 +2.3009692826181527e+00 +1.5405122406567866e+01 -3.9488610758663026e+02 +1.0622676996364459e+05 +3.3810023208849989e+06 -5.5035205415716553e+08 
-6.2000000000000002e+00 -1.0316257659811370e+00 +2.3008090716252281e+00 +1.5340074534330153e+01 -3.9166515536325312e+02 +1.0859449628023467e+05 +3.3704793407601891e+06 -5.6558241418126512e+08 
-6.2999999999999998e+00 -1.0316230893111440e+00 +2.3006335650876899e+00 +1.5272144281384346e+01 -3.8786338582224437e+02 +1.1098099082985650e+05 +3.3562936119804452e+06 -5.8083952189798057e+08 
-6.4000000000000004e+00 -1.0316203578718233e+00 +2.3004421968143469e+00 +1.5201274216543222e+01 -3.8347020472893462e+02 +1.1338862977260748e+05 +3.3383632695696228e+06 -5.9613576834168911e+08 
-6.5000000000000000e+00 -1.0316175724164267e+00 +2.3002344006537410e+00 +1.5127406823736990e+01 -3.7847501975670707e+02 +1.1581979111666104e+05 +3.3166064612810104e+06 -6.1148355406352556e+08 
-6.5999999999999996e+00 -1.0316147336975574e+00 +2.3000096104961321e+00 +1.5050484495067778e+01 -3.7286724064736723e+02 +1.1827685486307251e+05 +3.2909413488304587e+06 -6.2689528986213017e+08 
-6.7000000000000002e+00 -1.0316118424671861e+00 +2.2997672602749182e+00 +1.4970449534874968e+01 -3.6663627928291453e+02 +1.2076220293631598e+05 +3.2612861084193829e+06 -6.4238339648462284e+08 
-6.7999999999999998e+00 -1.0316088994766368e+00 +2.2995067839656427e+00 +1.4887244156720820e+01 -3.5977154972672787e+02 +1.2327821925044076e+05 +3.2275589311803104e+06 -6.5796030496876132e+08 
-6.9000000000000004e+00 -1.0316059054765345e+00 +2.2992276155889781e+00 +1.4800810475057796e+01 -3.5226246839204970e+02 +1.2582728987337739e+05 +3.1896780243794140e+06 -6.7363845744970560e+08 
-7.0000000000000000e+00 -1.0316028612168457e+00 +2.2989291892105896e+00 +1.4711090513662812e+01 -3.4409845407183712e+02 +1.2841180287898940e+05 +3.1475616117346063e+06 -6.8943030649962687e+08 
-7.0999999999999996e+00 -1.0315997674468020e+00 +2.2986109389425073e+00 +1.4618026192911325e+01 -3.3526892805268625e+02 +1.3103414859888431e+05 +3.1011279342734311e+06 -7.0534831635643184e+08 
-7.2000000000000002e+00 -1.0315966249149311e+00 +2.2982722989440600e+00 +1.4521559333504436e+01 -3.2576331420737165e+02 +1.3369671955990803e+05 +3.0502952510672482e+06 -7.2140496266037369e+08 
-7.2999999999999998e+00 -1.0315934343689899e+00 +2.2979127034259426e+00 +1.4421631652293421e+01 -3.1557103916820307e+02 +1.3640191057011922e+05 +2.9949818404445364e+06 -7.3761273288614476e+08 
-7.4000000000000004e+00 -1.0315901965560139e+00 +2.2975315866404600e+00 +1.4318184760569299e+01 -3.0468153211433668e+02 +1.3915211876476093e+05 +2.9351059989027740e+06 -7.5398412660511518e+08 
-7.5000000000000000e+00 -1.0315869122222203e+00 +2.2971283829487277e+00 +1.4211160164966724e+01 -2.9308422741662184e+02 +1.4194974348089975e+05 +2.8705860602271142e+06 -7.7053165438591444e+08 
-7.5999999999999996e+00 -1.0315835834320939e+00 +2.2967030502938623e+00 +1.4100597967053130e+01 -2.8078201765159423e+02 +1.4479535713525701e+05 +2.8014208760984275e+06 -7.8725903205668294e+08 
-7.7000000000000002e+00 -1.0315802175681554e+00 +2.2962575690254097e+00 +1.3986891295400005e+01 -2.6782842900772124e+02 +1.4768330391491135e+05 +2.7279117190338438e+06 -8.0414137446096468e+08 
-7.7999999999999998e+00 -1.0315768233614666e+00 +2.2957944167086790e+00 +1.3870512556822137e+01 -2.5428919142908097e+02 +1.5060660574047265e+05 +2.6504332248321092e+06 -8.2114810811155605e+08 
-7.9000000000000004e+00 -1.0315734095440878e+00 +2.2953160708232603e+00 +1.3751934264288643e+01 -2.4023003438053968e+02 +1.5355828273303929e+05 +2.5693600346289258e+06 -8.3824865208554530e+08 
-8.0000000000000000e+00 -1.0315699848491384e+00 +2.2948250087541422e+00 +1.3631629049104891e+01 -2.2571668640779200e+02 +1.5653135295928401e+05 +2.4850667885955875e+06 -8.5541241644903076e+08 
-8.0999999999999996e+00 -1.0315665580107765e+00 +2.2943237077832546e+00 +1.3510069654057915e+01 -2.1081487493925670e+02 +1.5951883257798769e+05 +2.3979281248836280e+06 -8.7260880300785303e+08 
-8.1999999999999993e+00 -1.0315631377642644e+00 +2.2938146450889478e+00 +1.3387728945215885e+01 -1.9559032634818971e+02 +1.6251373560603335e+05 +2.3083186802299647e+06 -8.8980720417307663e+08 
-8.3000000000000007e+00 -1.0315597328460415e+00 +2.2933002977391697e+00 +1.3265079917192319e+01 -1.8010876581897367e+02 +1.6550907382607384e+05 +2.2166130893221595e+06 -9.0697700255538058e+08 
-8.4000000000000004e+00 -1.0315563519936908e+00 +2.2927831426949457e+00 +1.3142595690387923e+01 -1.6443591751242718e+02 +1.6849785685215637e+05 +2.1231859859732087e+06 -9.2408757131899309e+08 
-8.5000000000000000e+00 -1.0315530039460601e+00 +2.2922656567917610e+00 +1.3020749526960250e+01 -1.4863750407699470e+02 +1.7147309181398404e+05 +2.0284120004057807e+06 -9.4110827265577948e+08 
-8.5999999999999996e+00 -1.0315496974432445e+00 +2.2917503167553877e+00 +1.2900014824197623e+01 -1.3277924720429041e+02 +1.7442778349954347e+05 +1.9326657627281563e+06 -9.5800845851825500e+08 
-8.6999999999999993e+00 -1.0315464412266613e+00 +2.2912395991842374e+00 +1.2780865129530527e+01 -1.1692686713296780e+02 +1.7735493406898077e+05 +1.8363219001479528e+06 -9.7475746926406217e+08 
-8.8000000000000007e+00 -1.0315432440390357e+00 +2.2907359805473022e+00 +1.2663774133064202e+01 -1.0114608271231012e+02 +1.8024754320168495e+05 +1.7397550376317853e+06 -9.9132463437996554e+08 
-8.9000000000000004e+00 -1.0315401146245509e+00 +2.2902419371874041e+00 +1.2549215688011305e+01 -8.5502611513277600e+01 +1.8309860771071556e+05 +1.6433397986106211e+06 -1.0076792706614432e+09 
-9.0000000000000000e+00 -1.0315370617287749e+00 +2.2897599453093305e+00 +1.2437663804041172e+01 -7.0062169568083590e+01 +1.8590112166764037e+05 +1.5474508037220552e+06 -1.0237906828125639e+09 
-9.0999999999999996e+00 -1.0315340940987403e+00 +2.2892924809804414e+00 +1.2329592651094428e+01 -5.4890471458280402e+01 +1.8864807634963098e+05 +1.4524626714875407e+06 -1.0396281632558706e+09 
-9.1999999999999993e+00 -1.0315312204830189e+00 +2.2888420201280963e+00 +1.2225476572842782e+01 -4.0053230297779947e+01 +1.9133245996853700e+05 +1.3587500183757923e+06 -1.0551609908106468e+09 
-9.3000000000000007e+00 -1.0315284496317119e+00 +2.2884110385312972e+00 +1.2125790084216872e+01 -2.5616157550653995e+01 +1.9394725773686194e+05 +1.2666874579381156e+06 -1.0703584310685383e+09 
-9.4000000000000004e+00 -1.0315257902964783e+00 +2.2880020118245352e+00 +1.2031007874282304e+01 -1.1644963212482967e+01 +1.9648545180591717e+05 +1.1766496020217454e+06 -1.0851897360861299e+09 
-9.5000000000000000e+00 -1.0315232512306660e+00 +2.2876174154530107e+00 +1.1941604816283444e+01 +1.7946452008873051e+00 +1.9894002109687601e+05 +1.0890110554516769e+06 -1.0996241436499143e+09 
-9.5999999999999996e+00 -1.0315208382690195e+00 +2.2872591911228963e+00 +1.1857907403648174e+01 +1.4649146162995763e+01 +2.0130578153363592e+05 +1.0040859602834460e+06 -1.1136376521112068e+09 
-9.6999999999999993e+00 -1.0315185454169242e+00 +2.2869269889776005e+00 +1.1779691946502263e+01 +2.6919075823590735e+01 +2.0358382345388169e+05 +9.2191744156427681e+05 -1.1272279210487776e+09 
-9.8000000000000007e+00 -1.0315163636671829e+00 +2.2866198358331995e+00 +1.1706607009666374e+01 +3.8620128056428740e+01 +2.0577654186196314e+05 +8.4247204146666429e+05 -1.1403966817980413e+09 
-9.9000000000000004e+00 -1.0315142840126956e+00 +2.2863367588786914e+00 +1.1638301215691319e+01 +4.9767988621187150e+01 +2.0788633001136046e+05 +7.6571634311118501e+05 -1.1531456556941128e+09 
-1.0000000000000000e+01 -1.0315122974464650e+00 +2.2860767857286941e+00 +1.1574423246314909e+01 +6.0378333352149888e+01 +2.0991557947228325e+05 +6.9161697836509009e+05 -1.1654765543748653e+09 
-1.0100000000000000e+01 -1.0315103949616253e+00 +2.2858389444297704e+00 +1.1514621840352948e+01 +7.0466828043091155e+01 +2.1186668015897000e+05 +6.2014062821812555e+05 -1.1773910798706682e+09 
