# multipoles
# s[mm] polynom_b[n=0][T/m^n] polynom_b[n=1][T/m^n] polynom_b[n=2][T/m^n] polynom_b[n=3][T/m^n] polynom_b[n=4][T/m^n] polynom_b[n=5][T/m^n] polynom_b[n=6][T/m^n] 
+0.0000000000000000e+00 -1.0328321002381633e+00 +2.2808406957905576e+00 +2.1020142174712383e+01 +7.9810123747432002e+01 -2.5986106492569928e+04 +8.9373755649776035e+05 +1.6521324297670344e+08 
-1.0000000000000001e-01 -1.0328292250205460e+00 +2.2803851303772595e+00 +2.0843793034626160e+01 +9.7799694612193576e+01 -2.3264028336385210e+04 +7.8097710481229820e+05 +1.5273082301379940e+08 
-2.0000000000000001e-01 -1.0328263697792528e+00 +2.2799357602383008e+00 +2.0665220000814148e+01 +1.1561138361189695e+02 -2.0483612931902633e+04 +6.6928877601674269e+05 +1.3991399857958290e+08 
-3.0000000000000004e-01 -1.0328235390804317e+00 +2.2794907706447622e+00 +2.0484890033689087e+01 +1.3329330727519206e+02 -1.7654183962542975e+04 +5.5838709832575719e+05 +1.2680899027077962e+08 
-4.0000000000000002e-01 -1.0328207374903542e+00 +2.2790483468520693e+00 +2.0303270111439623e+01 +1.5089358238197971e+02 -1.4785065481866764e+04 +4.4798659994401853e+05 +1.1346202058701058e+08 
-5.0000000000000000e-01 -1.0328179695753008e+00 +2.2786066741035347e+00 +2.0120827216300523e+01 +1.6846032588162976e+02 -1.1885581662874320e+04 +3.3780180943212990e+05 +9.9919312782923236e+07 
-5.9999999999999998e-01 -1.0328152399014958e+00 +2.2781639376295355e+00 +1.9938028325146295e+01 +1.8604165491196480e+02 -8.9650566082249461e+03 +2.2754725554519219e+05 +8.6227089942915365e+07 
-6.9999999999999996e-01 -1.0328125530351853e+00 +2.2777183226408346e+00 +1.9755340420822886e+01 +2.0368568703131376e+02 -6.0328145782760430e+03 +1.1693746570695787e+05 +7.2431576110998005e+07 
-7.9999999999999993e-01 -1.0328099135425388e+00 +2.2772680143322748e+00 +1.9573230479608622e+01 +2.2144054009403095e+02 -3.0981797522843617e+03 +5.6869667266685756e+03 +5.8578995166500703e+07 
-8.9999999999999991e-01 -1.0328073259896435e+00 +2.2768111978766985e+00 +1.9392165470746800e+01 +2.3935433247360635e+02 -1.7047622141719927e+02 -1.0648971669542190e+05 +4.4715570803546712e+07 
-9.9999999999999989e-01 -1.0328047949424366e+00 +2.2763460584287047e+00 +1.9212612348800217e+01 +2.5747518293814011e+02 +2.7409721529045451e+03 -2.1987806126550591e+05 +3.0887525878313765e+07 
-1.0999999999999999e+00 -1.0328023249667262e+00 +2.2758707811150454e+00 +1.9035038054984213e+01 +2.7585121095544901e+02 +5.6268417155375164e+03 -3.3476354700505780e+05 +1.7141082528403524e+07 
-1.2000000000000000e+00 -1.0327999206281298e+00 +2.2753835510401763e+00 +1.8859909511171256e+01 +2.9453053654573534e+02 +8.4778091257417946e+03 -4.5143165650138294e+05 +3.5224616816391111e+06 
-1.3000000000000000e+00 -1.0327975864920702e+00 +2.2748825532847579e+00 +1.8687693619035539e+01 +3.1356128033552545e+02 +1.1284551370663874e+04 -5.7016787530027016e+05 -9.9221169866826404e+06 
-1.4000000000000001e+00 -1.0327953271237109e+00 +2.2743659728954517e+00 +1.8518857252624905e+01 +3.3299156386902342e+02 +1.4037745904835820e+04 -6.9125769384201337e+05 -2.3146435706368260e+07 
-1.5000000000000002e+00 -1.0327931470879699e+00 +2.2738319948934347e+00 +1.8353867259680687e+01 +3.5286950936498351e+02 +1.6728070622896441e+04 -8.1498660607811599e+05 -3.6104278457832195e+07 
-1.6000000000000003e+00 -1.0327910492815515e+00 +2.2732790776996210e+00 +1.8193052723110753e+01 +3.7323519597808667e+02 +1.9348824445736533e+04 -9.4158647837298142e+05 -4.8761858581814021e+07 
-1.7000000000000004e+00 -1.0327890299358227e+00 +2.2727068041093141e+00 +1.8036187549855768e+01 +3.9409534699008577e+02 +2.1903921973033885e+04 -1.0710679141329834e+06 -6.1136018262784429e+07 
-1.8000000000000005e+00 -1.0327870836172077e+00 +2.2721150459694806e+00 +1.7882905730473045e+01 +4.1544803910768974e+02 +2.4399967044356461e+04 -1.2033844155491849e+06 -7.3256497393672511e+07 
-1.9000000000000006e+00 -1.0327852048918793e+00 +2.2715036751295612e+00 +1.7732841230316708e+01 +4.3729134883329004e+02 +2.6843563906055431e+04 -1.3384894831010457e+06 -8.5153037567023128e+07 
-2.0000000000000004e+00 -1.0327833883259587e+00 +2.2708725634448750e+00 +1.7585628014612219e+01 +4.5962335235441964e+02 +2.9241316729478385e+04 -1.4763366149316009e+06 -9.6855379776901633e+07 
-2.1000000000000005e+00 -1.0327816284853599e+00 +2.2702215827822592e+00 +1.7440900030238979e+01 +4.8244212537980798e+02 +3.1599829955684141e+04 -1.6168793059280638e+06 -1.0839326607243040e+08 
-2.2000000000000006e+00 -1.0327799199358461e+00 +2.2695506050172529e+00 +1.7298291211826836e+01 +5.0574574323060909e+02 +3.3925708173229177e+04 -1.7600710483211870e+06 -1.1979643896165241e+08 
-2.3000000000000007e+00 -1.0327782572430861e+00 +2.2688595020422957e+00 +1.7157435490052553e+01 +5.2953228058039861e+02 +3.6225555962726510e+04 -1.9058653301496266e+06 -1.3109464069692174e+08 
-2.4000000000000008e+00 -1.0327766349725576e+00 +2.2681481457695685e+00 +1.7017966779614358e+01 +5.5379981138312883e+02 +3.8505978119409687e+04 -2.0542156349006775e+06 -1.4231761432609987e+08 
-2.5000000000000009e+00 -1.0327750476895816e+00 +2.2674164081311705e+00 +1.6879518983773625e+01 +5.7854640885745664e+02 +4.0773579561793958e+04 -2.2050754414372714e+06 -1.5349510325444028e+08 
-2.6000000000000010e+00 -1.0327734899593730e+00 +2.2666641610844911e+00 +1.6741726001118483e+01 +6.0377014533671684e+02 +4.3034965204759523e+04 -2.3583982231736407e+06 -1.6465685066041982e+08 
-2.7000000000000011e+00 -1.0327719563469819e+00 +2.2658912766153634e+00 +1.6604221718246116e+01 +6.2946909215994492e+02 +4.5296740093307715e+04 -2.5141374474369497e+06 -1.7583260012425870e+08 
-2.8000000000000012e+00 -1.0327704414172820e+00 +2.2650976267394580e+00 +1.6466640009158979e+01 +6.5564131964575756e+02 +4.7565509410316787e+04 -2.6722465753837200e+06 -1.8705209567110837e+08 
-2.9000000000000012e+00 -1.0327689397350550e+00 +2.2642830835125589e+00 +1.6328614745869846e+01 +6.8228489676812865e+02 +4.9847878272101669e+04 -2.8326790600899113e+06 -1.9834508079779002e+08 
-3.0000000000000013e+00 -1.0327674458649025e+00 +2.2634475190218315e+00 +1.6189779787404603e+01 +7.0939789143892074e+02 +5.2150451937417645e+04 -2.9953883483095006e+06 -2.0974129948207825e+08 
-3.1000000000000014e+00 -1.0327659543712655e+00 +2.2625908053997130e+00 +1.6049768982895674e+01 +7.3697837006751854e+02 +5.4479835743060714e+04 -3.1603278778451006e+06 -2.2127049586953172e+08 
-3.2000000000000015e+00 -1.0327644598184802e+00 +2.2617128148204455e+00 +1.5908216178892820e+01 +7.6502439768073009e+02 +5.6842634960659736e+04 -3.3274510783420075e+06 -2.3296241359277269e+08 
-3.3000000000000016e+00 -1.0327629567707193e+00 +2.2608134195053022e+00 +1.5764755212515965e+01 +7.9353403776504922e+02 +5.9245454926739832e+04 -3.4967113703872743e+06 -2.4484679640482712e+08 
-3.4000000000000017e+00 -1.0327614397920113e+00 +2.2598924917321943e+00 +1.5619019913402164e+01 +8.2250535197390332e+02 +6.1694901002947481e+04 -3.6680621638105214e+06 -2.5695338798877716e+08 
-3.5000000000000018e+00 -1.0327599034462345e+00 +2.2589499038291629e+00 +1.5470644104881453e+01 +8.5193640030756876e+02 +6.4197578539074115e+04 -3.8414568589961100e+06 -2.6931193177588719e+08 
-3.6000000000000019e+00 -1.0327583441844901e+00 +2.2579859992365341e+00 +1.5319385578113687e+01 +8.8181405793711497e+02 +6.6757969484270550e+04 -4.0167966568080578e+06 -2.8194257412275547e+08 
-3.7000000000000020e+00 -1.0327567660286423e+00 +2.2570029804840437e+00 +1.5165480778725355e+01 +9.1208170606844908e+02 +6.9372478396744627e+04 -4.1937811823642375e+06 -2.9482899120622981e+08 
-3.8000000000000020e+00 -1.0327551749016108e+00 +2.2560035098806295e+00 +1.5009281983328176e+01 +9.4267212940029970e+02 +7.2035583108167746e+04 -4.3720613698678082e+06 -3.0794616170844853e+08 
-3.9000000000000021e+00 -1.0327535767267619e+00 +2.2549902496865077e+00 +1.4851141518515620e+01 +9.7351811363158970e+02 +7.4741760594022329e+04 -4.5512881594332969e+06 -3.2126906058882064e+08 
-4.0000000000000018e+00 -1.0327519774279932e+00 +2.2539658621060736e+00 +1.4691411772156018e+01 +1.0045524456035040e+03 +7.7485486765596041e+04 -4.7311124977074293e+06 -3.3477265813392156e+08 
-4.1000000000000014e+00 -1.0327503829296247e+00 +2.2529330092865116e+00 +1.4530445177670162e+01 +1.0357079133237589e+03 +8.0261236789146540e+04 -4.9111853380279560e+06 -3.4843192153984797e+08 
-4.2000000000000011e+00 -1.0327487991566546e+00 +2.2518943533070814e+00 +1.4368594246284088e+01 +1.0669173062605237e+03 +8.3063484475866426e+04 -5.0911576421467355e+06 -3.6222181202259582e+08 
-4.3000000000000007e+00 -1.0327472320346072e+00 +2.2508525561847956e+00 +1.4206211546100514e+01 +1.0981134151612280e+03 +8.5886702698343041e+04 -5.2706803792211572e+06 -3.7611728685614675e+08 
-4.4000000000000004e+00 -1.0327456874896470e+00 +2.2498102798627011e+00 +1.4043649717019827e+01 +1.1292290323542243e+03 +8.8725363109561426e+04 -5.4494045275097806e+06 -3.9009329805245519e+08 
-4.5000000000000000e+00 -1.0327441714486665e+00 +2.2487701862056304e+00 +1.3881261479746609e+01 +1.1601969518822134e+03 +9.1573935989900478e+04 -5.6269810752676819e+06 -4.0412479168723941e+08 
-4.5999999999999996e+00 -1.0327426898391949e+00 +2.2477349370027806e+00 +1.3719399623830910e+01 +1.1909499693840849e+03 +9.4426890483722134e+04 -5.8030610199918328e+06 -4.1818670905696368e+08 
-4.6999999999999993e+00 -1.0327412485895555e+00 +2.2467071939595478e+00 +1.3558417027053318e+01 +1.2214208823246943e+03 +9.7278694241300502e+04 -5.9772953698217673e+06 -4.3225398501232713e+08 
-4.7999999999999989e+00 -1.0327398536288477e+00 +2.2456896186874120e+00 +1.3398666651666234e+01 +1.2515424902678640e+03 +1.0012381350260611e+05 -6.1493351451343754e+06 -4.4630154839502871e+08 
-4.8999999999999986e+00 -1.0327385108869969e+00 +2.2446848727116278e+00 +1.3240501550244696e+01 +1.2812475946318466e+03 +1.0295671299553906e+05 -6.3188313771348447e+06 -4.6030432158599854e+08 
-4.9999999999999982e+00 -1.0327372262947734e+00 +2.2436956174572393e+00 +1.3084274867313072e+01 +1.3104689990756488e+03 +1.0577185592028164e+05 -6.4854351101184459e+06 -4.7423722048249686e+08 
-5.0999999999999979e+00 -1.0327360057838360e+00 +2.2427245142492702e+00 +1.2930339844088364e+01 +1.3391395094765094e+03 +1.0856370386289062e+05 -6.6487974013619125e+06 -4.8807515409841830e+08 
-5.1999999999999975e+00 -1.0327348552868358e+00 +2.2417742243092631e+00 +1.2779049830241551e+01 +1.3671919340034531e+03 +1.1132671658978822e+05 -6.8085693215515958e+06 -5.0179302364596838e+08 
-5.2999999999999972e+00 -1.0327337807373180e+00 +2.2408474087490879e+00 +1.2630758270555418e+01 +1.3945590832936514e+03 +1.1405535231525649e+05 -6.9644019558679871e+06 -5.1536572385206586e+08 
-5.3999999999999968e+00 -1.0327327880698969e+00 +2.2399467285647856e+00 +1.2485818727568178e+01 +1.4211737705963685e+03 +1.1674406726783246e+05 -7.1159464047963452e+06 -5.2876814089237708e+08 
-5.4999999999999964e+00 -1.0327318832202126e+00 +2.2390748446425328e+00 +1.2344584873922955e+01 +1.4469688115349511e+03 +1.1938731585597193e+05 -7.2628537829179876e+06 -5.4197515326350653e+08 
-5.5999999999999961e+00 -1.0327310710493609e+00 +2.2382340943478782e+00 +1.2207388261487999e+01 +1.4718845461512706e+03 +1.2197940446712583e+05 -7.4048131759069012e+06 -5.5495995011468315e+08 
-5.6999999999999957e+00 -1.0327303519574427e+00 +2.2374254154581674e+00 +1.2074471934024375e+01 +1.4958948187343242e+03 +1.2451396924426034e+05 -7.5416831661219820e+06 -5.6768851586852646e+08 
-5.7999999999999954e+00 -1.0327297251862033e+00 +2.2366493680927495e+00 +1.1946056881953297e+01 +1.5189827388637771e+03 +1.2698445268087556e+05 -7.6733692719304319e+06 -5.8012488791712582e+08 
-5.8999999999999950e+00 -1.0327291899778339e+00 +2.2359065123715047e+00 +1.1822364149322551e+01 +1.5411314173350438e+03 +1.2938429633621010e+05 -7.7997770236389972e+06 -5.9223309965184677e+08 
-5.9999999999999947e+00 -1.0327287455751228e+00 +2.2351974084387143e+00 +1.1703614852895683e+01 +1.5623239654470776e+03 +1.3170694047621125e+05 -7.9208119600463156e+06 -6.0397717871087885e+08 
-6.0999999999999943e+00 -1.0327283912213550e+00 +2.2345226164384302e+00 +1.1590030168626070e+01 +1.5825434958049611e+03 +1.3394582434348282e+05 -8.0363796333892355e+06 -6.1532114830466354e+08 
-6.1999999999999940e+00 -1.0327281261603596e+00 +2.2338826965392600e+00 +1.1481831338166412e+01 +1.6017731216588882e+03 +1.3609438602829681e+05 -8.1463856057365574e+06 -6.2622902658732164e+08 
-6.2999999999999936e+00 -1.0327279496364816e+00 +2.2332782089239416e+00 +1.1379239665041045e+01 +1.6199959572792179e+03 +1.3814606254553172e+05 -8.2507354514125772e+06 -6.3666482703928363e+08 
-6.3999999999999932e+00 -1.0327278608946486e+00 +2.2327097137936858e+00 +1.1282476522835129e+01 +1.6371951178770635e+03 +1.4009428968361649e+05 -8.3493347567179920e+06 -6.4659255776464999e+08 
-6.4999999999999929e+00 -1.0327278591803732e+00 +2.2321777713724065e+00 +1.1191763356012009e+01 +1.6533537195689917e+03 +1.4193250198325541e+05 -8.4420891200341247e+06 -6.5597622137366867e+08 
-6.5999999999999925e+00 -1.0327279437397066e+00 +2.2316829419031636e+00 +1.1107321673194328e+01 +1.6684548795228793e+03 +1.4365413287868028e+05 -8.5289041528285332e+06 -6.6477981570110214e+08 
-6.6999999999999922e+00 -1.0327281138192790e+00 +2.2312257856563811e+00 +1.1029373052977219e+01 +1.6824817157981859e+03 +1.4525261457790688e+05 -8.6096854790060557e+06 -6.7296733320771968e+08 
-6.7999999999999918e+00 -1.0327283686663538e+00 +2.2308068629267654e+00 +1.0958139150428586e+01 +1.6954173474975023e+03 +1.4672137794756965e+05 -8.6843387360174228e+06 -6.8050276046317959e+08 
-6.8999999999999915e+00 -1.0327287075287281e+00 +2.2304267340411816e+00 +1.0893841684465729e+01 +1.7072448945964159e+03 +1.4805385275290572e+05 -8.7527695740818530e+06 -6.8735007928819776e+08 
-6.9999999999999911e+00 -1.0327291296548895e+00 +2.2300859593505837e+00 +1.0836702458053935e+01 +1.7179474782529262e+03 +1.4924346727154133e+05 -8.8148836582572330e+06 -6.9347326491493320e+08 
-7.0999999999999908e+00 -1.0327296342938586e+00 +2.2297850992416639e+00 +1.0786943336854220e+01 +1.7275082205207557e+03 +1.5028364871385670e+05 -8.8705866669607591e+06 -6.9883628802884758e+08 
-7.1999999999999904e+00 -1.0327302206953317e+00 +2.2295247141352643e+00 +1.0744786269446827e+01 +1.7359102444755590e+03 +1.5116782282505411e+05 -8.9197842929896992e+06 -7.0340311284432495e+08 
-7.2999999999999901e+00 -1.0327308881096393e+00 +2.2293053644802798e+00 +1.0710453279943110e+01 +1.7431366744430411e+03 +1.5188941403770016e+05 -8.9623822450314220e+06 -7.0713769786162126e+08 
-7.3999999999999897e+00 -1.0327316357877123e+00 +2.2291276107735416e+00 +1.0684166464647925e+01 +1.7491706354936487e+03 +1.5244184553560370e+05 -8.9982862449910734e+06 -7.1000399617934287e+08 
-7.4999999999999893e+00 -1.0327324629811061e+00 +2.2289920134169647e+00 +1.0666147980314989e+01 +1.7539952592309821e+03 +1.5281853977909291e+05 -9.0274020647326000e+06 -7.1196595885595369e+08 
-7.5999999999999890e+00 -1.0327333676694090e+00 +2.2288985511503263e+00 +1.0656447405988404e+01 +1.7576124089970422e+03 +1.5301703530180993e+05 -9.0497465361257568e+06 -7.1300920735196447e+08 
-7.6999999999999886e+00 -1.0327343427993962e+00 +2.2288452568317547e+00 +1.0654481122859034e+01 +1.7600838553450315e+03 +1.5304962368174747e+05 -9.0656903221311718e+06 -7.1319607306508613e+08 
-7.7999999999999883e+00 -1.0327353800583647e+00 +2.2288297595905164e+00 +1.0659517376278599e+01 +1.7614830858159889e+03 +1.5293197811402185e+05 -9.0756731984093692e+06 -7.1260625143942571e+08 
-7.8999999999999879e+00 -1.0327364711326370e+00 +2.2288496886919047e+00 +1.0670824277986334e+01 +1.7618835816586045e+03 +1.5267977437634152e+05 -9.0801348943011109e+06 -7.1131944974519968e+08 
-7.9999999999999876e+00 -1.0327376077075703e+00 +2.2289026735084354e+00 +1.0687669811520838e+01 +1.7613588188453632e+03 +1.5230869065631932e+05 -9.0795150969971530e+06 -7.0941538620122886e+08 
-8.0999999999999872e+00 -1.0327387814675699e+00 +2.2289863435313100e+00 +1.0709321833407547e+01 +1.7599822676634280e+03 +1.5183440752057239e+05 -9.0742534487374127e+06 -7.0697378978360021e+08 
-8.1999999999999869e+00 -1.0327399840959643e+00 +2.2290983283618711e+00 +1.0735048057501141e+01 +1.7578273928889569e+03 +1.5127260821355143e+05 -9.0647895474039894e+06 -7.0407440163593292e+08 
-8.2999999999999865e+00 -1.0327412072750120e+00 +2.2292362577313192e+00 +1.0764116054931389e+01 +1.7549676531136474e+03 +1.5063897865908907e+05 -9.0515629421135020e+06 -7.0079697506047845e+08 
-8.3999999999999861e+00 -1.0327424426858922e+00 +2.2293977614894041e+00 +1.0795793253729787e+01 +1.7514765010367482e+03 +1.4994920745690545e+05 -9.0350131346144639e+06 -6.9722127545505679e+08 
-8.4999999999999858e+00 -1.0327436820085591e+00 +2.2295804696206116e+00 +1.0829346919695089e+01 +1.7474273828690393e+03 +1.4921898625062450e+05 -9.0155795752374250e+06 -6.9342708205927670e+08 
-8.5999999999999854e+00 -1.0327449169218232e+00 +2.2297820122400145e+00 +1.0864044167136957e+01 +1.7428937384203218e+03 +1.4846400951416590e+05 -8.9937016631208695e+06 -6.8949418689556694e+08 
-8.6999999999999851e+00 -1.0327461391031867e+00 +2.2300000195994314e+00 +1.0899151937402431e+01 +1.7379490008094997e+03 +1.4769997495983372e+05 -8.9698187439959608e+06 -6.8550239669187856e+08 
-8.7999999999999847e+00 -1.0327473402289773e+00 +2.2302321220917500e+00 +1.0933937016224153e+01 +1.7326665962724201e+03 +1.4694258320360008e+05 -8.9443701086725444e+06 -6.8153153125895286e+08 
-8.8999999999999844e+00 -1.0327485119740838e+00 +2.2304759502560771e+00 +1.0967665999483771e+01 +1.7271199439407380e+03 +1.4620753841786730e+05 -8.9177949913434628e+06 -6.7766142658641267e+08 
-8.9999999999999840e+00 -1.0327496460120904e+00 +2.2307291347762210e+00 +1.0999605310762984e+01 +1.7213824557958201e+03 +1.4551054798714153e+05 -8.8905325688533597e+06 -6.7397193315410376e+08 
-9.0999999999999837e+00 -1.0327507340151942e+00 +2.2309893064922659e+00 +1.1029021190556936e+01 +1.7155275362623154e+03 +1.4486732271524053e+05 -8.8630219579307009e+06 -6.7054291691056192e+08 
-9.1999999999999833e+00 -1.0327517676540938e+00 +2.2312540963966843e+00 +1.1055179682222429e+01 +1.7096285822440600e+03 +1.4429357708544435e+05 -8.8357022149663195e+06 -6.6745426047078669e+08 
-9.2999999999999829e+00 -1.0327527385980093e+00 +2.2315211356458042e+00 +1.1077346633647140e+01 +1.7037589827023444e+03 +1.4380502923329940e+05 -8.8090123331051525e+06 -6.6478586298615742e+08 
-9.3999999999999826e+00 -1.0327536385146756e+00 +2.2317880555531686e+00 +1.1094787697854020e+01 +1.6979921187804719e+03 +1.4341740091928971e+05 -8.7833912425678689e+06 -6.6261763995052731e+08 
-9.4999999999999822e+00 -1.0327544590703912e+00 +2.2320524878657340e+00 +1.1106768366978098e+01 +1.6924013518113500e+03 +1.4314641620067594e+05 -8.7592777309213337e+06 -6.6102951469335008e+08 
-9.5999999999999819e+00 -1.0327551936373824e+00 +2.2323125494242810e+00 +1.1112739690293161e+01 +1.6870409840645407e+03 +1.4300346853982605e+05 -8.7369870639106352e+06 -6.6007860001297510e+08 
-9.6999999999999815e+00 -1.0327558425084016e+00 +2.2325678395172859e+00 +1.1112858941754414e+01 +1.6819080307422641e+03 +1.4298428790388815e+05 -8.7164557686826084e+06 -6.5974205259200358e+08 
-9.7999999999999812e+00 -1.0327564077613312e+00 +2.2328182312775247e+00 +1.1107458284370361e+01 +1.6769890647593720e+03 +1.4308089403424386e+05 -8.6975482248883117e+06 -6.5997870493085468e+08 
-9.8999999999999808e+00 -1.0327568914744505e+00 +2.2330635977438216e+00 +1.1096869981087817e+01 +1.6722706639943715e+03 +1.4328530433992215e+05 -8.6801288432879876e+06 -6.6074737818537724e+08 
-9.9999999999999805e+00 -1.0327572957263302e+00 +2.2333038119087862e+00 +1.1081426375437303e+01 +1.6677394101219259e+03 +1.4358953433226413e+05 -8.6640620667277779e+06 -6.6200688380756676e+08 
-1.0099999999999980e+01 -1.0327576225958084e+00 +2.2335387467169241e+00 +1.1061459887441789e+01 +1.6633818887084653e+03 +1.4398559770684104e+05 -8.6492123708979674e+06 -6.6371602395821571e+08 
