# trajectory
# s[mm] rx[mm] ry[mm] rz[mm] px[rad] py[rad] pz[rad]
0.0000000000000000e+00 +9.1206999999999994e+00 +0.0000000000000000e+00 +0.0000000000000000e+00 +0.0000000000000000e+00 +0.0000000000000000e+00 +1.0000000000000000e+00
-1.0000000000000001e-01 +9.1206994839552902e+00 +0.0000000000000000e+00 -9.9999999998224648e-02 +1.0320888709666296e-05 +0.0000000000000000e+00 +9.9999999994673960e-01
-2.0000000000000001e-01 +9.1206979358233422e+00 +0.0000000000000000e+00 -1.9999999998579723e-01 +2.0641744892948363e-05 +0.0000000000000000e+00 +9.9999999978695919e-01
-3.0000000000000004e-01 +9.1206953556073671e+00 +0.0000000000000000e+00 -2.9999999995206583e-01 +3.0962569409018464e-05 +0.0000000000000000e+00 +9.9999999952065965e-01
-4.0000000000000002e-01 +9.1206917433104859e+00 +0.0000000000000000e+00 -3.9999999988637858e-01 +4.1283363162299675e-05 +0.0000000000000000e+00 +9.9999999914784199e-01
-5.0000000000000000e-01 +9.1206870989357292e+00 +0.0000000000000000e+00 -4.9999999977808368e-01 +5.1604127102463797e-05 +0.0000000000000000e+00 +9.9999999866850708e-01
-5.9999999999999998e-01 +9.1206814224860278e+00 +0.0000000000000000e+00 -5.9999999961652950e-01 +6.1924862224428667e-05 +0.0000000000000000e+00 +9.9999999808265572e-01
-6.9999999999999996e-01 +9.1206747139642115e+00 +0.0000000000000000e+00 -6.9999999939106439e-01 +7.2245569568355028e-05 +0.0000000000000000e+00 +9.9999999739028889e-01
-7.9999999999999993e-01 +9.1206669733730035e+00 +0.0000000000000000e+00 -7.9999999909103681e-01 +8.2566250219642907e-05 +0.0000000000000000e+00 +9.9999999659140726e-01
-8.9999999999999991e-01 +9.1206582007150185e+00 +0.0000000000000000e+00 -8.9999999870579539e-01 +9.2886905308927519e-05 +0.0000000000000000e+00 +9.9999999568601150e-01
-9.9999999999999989e-01 +9.1206483959927542e+00 +0.0000000000000000e+00 -9.9999999822468866e-01 +1.0320753601207460e-04 +0.0000000000000000e+00 +9.9999999467410239e-01
-1.0999999999999999e+00 +9.1206375592085891e+00 +0.0000000000000000e+00 -1.0999999976370654e+00 +1.1352814355017536e-04 +0.0000000000000000e+00 +9.9999999355568048e-01
-1.2000000000000000e+00 +9.1206256903647756e+00 +0.0000000000000000e+00 -1.1999999969322743e+00 +1.2384872918954086e-04 +0.0000000000000000e+00 +9.9999999233074632e-01
-1.3000000000000000e+00 +9.1206127894634381e+00 +0.0000000000000000e+00 -1.2999999960996642e+00 +1.3416929424169596e-04 +0.0000000000000000e+00 +9.9999999099930037e-01
-1.4000000000000001e+00 +9.1205988565065681e+00 +0.0000000000000000e+00 -1.3999999951285840e+00 +1.4448984006337268e-04 +0.0000000000000000e+00 +9.9999998956134317e-01
-1.5000000000000002e+00 +9.1205838914960200e+00 +0.0000000000000000e+00 -1.4999999940083826e+00 +1.5481036805650326e-04 +0.0000000000000000e+00 +9.9999998801687506e-01
-1.6000000000000003e+00 +9.1205678944335027e+00 +0.0000000000000000e+00 -1.5999999927284088e+00 +1.6513087966310938e-04 +0.0000000000000000e+00 +9.9999998636589638e-01
-1.7000000000000004e+00 +9.1205508653205847e+00 +0.0000000000000000e+00 -1.6999999912780115e+00 +1.7545137630916067e-04 +0.0000000000000000e+00 +9.9999998460840733e-01
-1.8000000000000005e+00 +9.1205328041586942e+00 +0.0000000000000000e+00 -1.7999999896465400e+00 +1.8577185934843344e-04 +0.0000000000000000e+00 +9.9999998274440816e-01
-1.9000000000000006e+00 +9.1205137109491261e+00 +0.0000000000000000e+00 -1.8999999878233429e+00 +1.9609233005740031e-04 +0.0000000000000000e+00 +9.9999998077389907e-01
-2.0000000000000004e+00 +9.1204935856930529e+00 +0.0000000000000000e+00 -1.9999999857977695e+00 +2.0641278963522253e-04 +0.0000000000000000e+00 +9.9999997869688007e-01
-2.1000000000000005e+00 +9.1204724283915315e+00 +0.0000000000000000e+00 -2.0999999835591687e+00 +2.1673323920374220e-04 +0.0000000000000000e+00 +9.9999997651335137e-01
-2.2000000000000006e+00 +9.1204502390455104e+00 +0.0000000000000000e+00 -2.1999999810968895e+00 +2.2705367980747413e-04 +0.0000000000000000e+00 +9.9999997422331310e-01
-2.3000000000000007e+00 +9.1204270176558371e+00 +0.0000000000000000e+00 -2.2999999784002809e+00 +2.3737411241359747e-04 +0.0000000000000000e+00 +9.9999997182676514e-01
-2.4000000000000008e+00 +9.1204027642232646e+00 +0.0000000000000000e+00 -2.3999999754586923e+00 +2.4769453791194699e-04 +0.0000000000000000e+00 +9.9999996932370760e-01
-2.5000000000000009e+00 +9.1203774787484644e+00 +0.0000000000000000e+00 -2.4999999722614721e+00 +2.5801495711500432e-04 +0.0000000000000000e+00 +9.9999996671414049e-01
-2.6000000000000010e+00 +9.1203511612320280e+00 +0.0000000000000000e+00 -2.5999999687979698e+00 +2.6833537075788861e-04 +0.0000000000000000e+00 +9.9999996399806379e-01
-2.7000000000000011e+00 +9.1203238116744760e+00 +0.0000000000000000e+00 -2.6999999650575344e+00 +2.7865577949834721e-04 +0.0000000000000000e+00 +9.9999996117547751e-01
-2.8000000000000012e+00 +9.1202954300762720e+00 +0.0000000000000000e+00 -2.7999999610295148e+00 +2.8897618391674591e-04 +0.0000000000000000e+00 +9.9999995824638166e-01
-2.9000000000000012e+00 +9.1202660164378209e+00 +0.0000000000000000e+00 -2.8999999567032604e+00 +2.9929658451605898e-04 +0.0000000000000000e+00 +9.9999995521077623e-01
-3.0000000000000013e+00 +9.1202355707594815e+00 +0.0000000000000000e+00 -2.9999999520681198e+00 +3.0961698172185894e-04 +0.0000000000000000e+00 +9.9999995206866110e-01
-3.1000000000000014e+00 +9.1202040930415773e+00 +0.0000000000000000e+00 -3.0999999471134423e+00 +3.1993737588230608e-04 +0.0000000000000000e+00 +9.9999994882003640e-01
-3.2000000000000015e+00 +9.1201715832843977e+00 +0.0000000000000000e+00 -3.1999999418285769e+00 +3.3025776726813768e-04 +0.0000000000000000e+00 +9.9999994546490201e-01
-3.3000000000000016e+00 +9.1201380414882092e+00 +0.0000000000000000e+00 -3.2999999362028727e+00 +3.4057815607265704e-04 +0.0000000000000000e+00 +9.9999994200325804e-01
-3.4000000000000017e+00 +9.1201034676532640e+00 +0.0000000000000000e+00 -3.3999999302256785e+00 +3.5089854241172208e-04 +0.0000000000000000e+00 +9.9999993843510449e-01
-3.5000000000000018e+00 +9.1200678617798072e+00 +0.0000000000000000e+00 -3.4999999238863433e+00 +3.6121892632373393e-04 +0.0000000000000000e+00 +9.9999993476044147e-01
-3.6000000000000019e+00 +9.1200312238680823e+00 +0.0000000000000000e+00 -3.5999999171742165e+00 +3.7153930777311564e-04 +0.0000000000000000e+00 +9.9999993097926898e-01
-3.7000000000000020e+00 +9.1199935539183379e+00 +0.0000000000000000e+00 -3.6999999100786467e+00 +3.8185968668869887e-04 +0.0000000000000000e+00 +9.9999992709158714e-01
-3.8000000000000020e+00 +9.1199548519308316e+00 +0.0000000000000000e+00 -3.7999999025889832e+00 +3.9218006300211823e-04 +0.0000000000000000e+00 +9.9999992309739605e-01
-3.9000000000000021e+00 +9.1199151179058262e+00 +0.0000000000000000e+00 -3.8999998946945755e+00 +4.0250043665130368e-04 +0.0000000000000000e+00 +9.9999991899669594e-01
-4.0000000000000018e+00 +9.1198743518435919e+00 +0.0000000000000000e+00 -3.9999998863847721e+00 +4.1282080758048333e-04 +0.0000000000000000e+00 +9.9999991478948680e-01
-4.1000000000000014e+00 +9.1198325537444020e+00 +0.0000000000000000e+00 -4.0999998776489228e+00 +4.2314117574018692e-04 +0.0000000000000000e+00 +9.9999991047576875e-01
-4.2000000000000011e+00 +9.1197897236085375e+00 +0.0000000000000000e+00 -4.1999998684763762e+00 +4.3346154108724993e-04 +0.0000000000000000e+00 +9.9999990605554190e-01
-4.3000000000000007e+00 +9.1197458614362805e+00 +0.0000000000000000e+00 -4.2999998588564807e+00 +4.4378190358481832e-04 +0.0000000000000000e+00 +9.9999990152880625e-01
-4.4000000000000004e+00 +9.1197009672279172e+00 +0.0000000000000000e+00 -4.3999998487785863e+00 +4.5410226320235407e-04 +0.0000000000000000e+00 +9.9999989689556201e-01
-4.5000000000000000e+00 +9.1196550409837371e+00 +0.0000000000000000e+00 -4.4999998382320427e+00 +4.6442261991564148e-04 +0.0000000000000000e+00 +9.9999989215580931e-01
-4.5999999999999996e+00 +9.1196080827040316e+00 +0.0000000000000000e+00 -4.5999998272061982e+00 +4.7474297370679385e-04 +0.0000000000000000e+00 +9.9999988730954814e-01
-4.6999999999999993e+00 +9.1195600923890936e+00 +0.0000000000000000e+00 -4.6999998156904024e+00 +4.8506332456426120e-04 +0.0000000000000000e+00 +9.9999988235677872e-01
-4.7999999999999989e+00 +9.1195110700392163e+00 +0.0000000000000000e+00 -4.7999998036740044e+00 +4.9538367248283836e-04 +0.0000000000000000e+00 +9.9999987729750106e-01
-4.8999999999999986e+00 +9.1194610156546947e+00 +0.0000000000000000e+00 -4.8999997911463531e+00 +5.0570401746367389e-04 +0.0000000000000000e+00 +9.9999987213171526e-01
-4.9999999999999982e+00 +9.1194099292358217e+00 +0.0000000000000000e+00 -4.9999997780967975e+00 +5.1602435951427991e-04 +0.0000000000000000e+00 +9.9999986685942144e-01
-5.0999999999999979e+00 +9.1193578107828888e+00 +0.0000000000000000e+00 -5.0999997645146875e+00 +5.2634469864854211e-04 +0.0000000000000000e+00 +9.9999986148061959e-01
-5.1999999999999975e+00 +9.1193046602961871e+00 +0.0000000000000000e+00 -5.1999997503893711e+00 +5.3666503488673095e-04 +0.0000000000000000e+00 +9.9999985599530983e-01
-5.2999999999999972e+00 +9.1192504777760064e+00 +0.0000000000000000e+00 -5.2999997357101991e+00 +5.4698536825551305e-04 +0.0000000000000000e+00 +9.9999985040349226e-01
-5.3999999999999968e+00 +9.1191952632226307e+00 +0.0000000000000000e+00 -5.3999997204665195e+00 +5.5730569878796382e-04 +0.0000000000000000e+00 +9.9999984470516701e-01
-5.4999999999999964e+00 +9.1191390166363426e+00 +0.0000000000000000e+00 -5.4999997046476823e+00 +5.6762602652358032e-04 +0.0000000000000000e+00 +9.9999983890033406e-01
-5.5999999999999961e+00 +9.1190817380174192e+00 +0.0000000000000000e+00 -5.5999996882430363e+00 +5.7794635150889423e-04 +0.0000000000000000e+00 +9.9999983298899342e-01
-5.6999999999999957e+00 +9.1190234273661321e+00 +0.0000000000000000e+00 -5.6999996712419305e+00 +5.8826667380407693e-04 +0.0000000000000000e+00 +9.9999982697114520e-01
-5.7999999999999954e+00 +9.1189640846827462e+00 +0.0000000000000000e+00 -5.7999996536337148e+00 +5.9858699348954120e-04 +0.0000000000000000e+00 +9.9999982084678951e-01
-5.8999999999999950e+00 +9.1189037099675172e+00 +0.0000000000000000e+00 -5.8999996354077382e+00 +6.0890731066655000e-04 +0.0000000000000000e+00 +9.9999981461592624e-01
-5.9999999999999947e+00 +9.1188423032206920e+00 +0.0000000000000000e+00 -5.9999996165533496e+00 +6.1922762545722559e-04 +0.0000000000000000e+00 +9.9999980827855550e-01
-6.0999999999999943e+00 +9.1187798644425015e+00 +0.0000000000000000e+00 -6.0999995970598988e+00 +6.2954793800455971e-04 +0.0000000000000000e+00 +9.9999980183467718e-01
-6.1999999999999940e+00 +9.1187163936331608e+00 +0.0000000000000000e+00 -6.1999995769167349e+00 +6.3986824847242344e-04 +0.0000000000000000e+00 +9.9999979528429128e-01
-6.2999999999999936e+00 +9.1186518907928704e+00 +0.0000000000000000e+00 -6.2999995561132067e+00 +6.5018855704557840e-04 +0.0000000000000000e+00 +9.9999978862739769e-01
-6.3999999999999932e+00 +9.1185863559218081e+00 +0.0000000000000000e+00 -6.3999995346386642e+00 +6.6050886392968720e-04 +0.0000000000000000e+00 +9.9999978186399641e-01
-6.4999999999999929e+00 +9.1185197890201337e+00 +0.0000000000000000e+00 -6.4999995124824563e+00 +6.7082916935132524e-04 +0.0000000000000000e+00 +9.9999977499408732e-01
-6.5999999999999925e+00 +9.1184521900879787e+00 +0.0000000000000000e+00 -6.5999994896339320e+00 +6.8114947355799244e-04 +0.0000000000000000e+00 +9.9999976801767032e-01
-6.6999999999999922e+00 +9.1183835591254532e+00 +0.0000000000000000e+00 -6.6999994660824402e+00 +6.9146977681812556e-04 +0.0000000000000000e+00 +9.9999976093474519e-01
-6.7999999999999918e+00 +9.1183138961326371e+00 +0.0000000000000000e+00 -6.7999994418173308e+00 +7.0179007942111084e-04 +0.0000000000000000e+00 +9.9999975374531180e-01
-6.8999999999999915e+00 +9.1182432011095802e+00 +0.0000000000000000e+00 -6.8999994168279528e+00 +7.1211038167729693e-04 +0.0000000000000000e+00 +9.9999974644936995e-01
-6.9999999999999911e+00 +9.1181714740563020e+00 +0.0000000000000000e+00 -6.9999993911036551e+00 +7.2243068391800820e-04 +0.0000000000000000e+00 +9.9999973904691941e-01
-7.0999999999999908e+00 +9.1180987149727848e+00 +0.0000000000000000e+00 -7.0999993646337867e+00 +7.3275098649555907e-04 +0.0000000000000000e+00 +9.9999973153795985e-01
-7.1999999999999904e+00 +9.1180249238589788e+00 +0.0000000000000000e+00 -7.1999993374076965e+00 +7.4307128978326779e-04 +0.0000000000000000e+00 +9.9999972392249104e-01
-7.2999999999999901e+00 +9.1179501007147916e+00 +0.0000000000000000e+00 -7.2999993094147344e+00 +7.5339159417547104e-04 +0.0000000000000000e+00 +9.9999971620051264e-01
-7.3999999999999897e+00 +9.1178742455400936e+00 +0.0000000000000000e+00 -7.3999992806442485e+00 +7.6371190008753937e-04 +0.0000000000000000e+00 +9.9999970837202434e-01
-7.4999999999999893e+00 +9.1177973583347089e+00 +0.0000000000000000e+00 -7.4999992510855886e+00 +7.7403220795589222e-04 +0.0000000000000000e+00 +9.9999970043702568e-01
-7.5999999999999890e+00 +9.1177194390984209e+00 +0.0000000000000000e+00 -7.5999992207281029e+00 +7.8435251823574283e-04 +0.0000000000000000e+00 +9.9999969239551634e-01
-7.6999999999999886e+00 +9.1176404878309665e+00 +0.0000000000000000e+00 -7.6999991895611410e+00 +7.9467283137613358e-04 +0.0000000000000000e+00 +9.9999968424749575e-01
-7.7999999999999883e+00 +9.1175605045320367e+00 +0.0000000000000000e+00 -7.7999991575740513e+00 +8.0499314779497401e-04 +0.0000000000000000e+00 +9.9999967599296358e-01
-7.8999999999999879e+00 +9.1174794892012851e+00 +0.0000000000000000e+00 -7.8999991247561834e+00 +8.1531346787679137e-04 +0.0000000000000000e+00 +9.9999966763191939e-01
-7.9999999999999876e+00 +9.1173974418383281e+00 +0.0000000000000000e+00 -7.9999990910968855e+00 +8.2563379197275386e-04 +0.0000000000000000e+00 +9.9999965916436273e-01
-8.0999999999999872e+00 +9.1173143624427464e+00 +0.0000000000000000e+00 -8.0999990565855065e+00 +8.3595412040069340e-04 +0.0000000000000000e+00 +9.9999965059029328e-01
-8.1999999999999869e+00 +9.1172302510140941e+00 +0.0000000000000000e+00 -8.1999990212113936e+00 +8.4627445344512969e-04 +0.0000000000000000e+00 +9.9999964190971069e-01
-8.2999999999999865e+00 +9.1171451075518952e+00 +0.0000000000000000e+00 -8.2999989849638975e+00 +8.5659479135729449e-04 +0.0000000000000000e+00 +9.9999963312261453e-01
-8.3999999999999861e+00 +9.1170589320556523e+00 +0.0000000000000000e+00 -8.3999989478323656e+00 +8.6691513435515667e-04 +0.0000000000000000e+00 +9.9999962422900446e-01
-8.4999999999999858e+00 +9.1169717245248485e+00 +0.0000000000000000e+00 -8.4999989098061466e+00 +8.7723548262344747e-04 +0.0000000000000000e+00 +9.9999961522888015e-01
-8.5999999999999854e+00 +9.1168834849589473e+00 +0.0000000000000000e+00 -8.5999988708745896e+00 +8.8755583631368686e-04 +0.0000000000000000e+00 +9.9999960612224126e-01
-8.6999999999999851e+00 +9.1167942133574016e+00 +0.0000000000000000e+00 -8.6999988310270435e+00 +8.9787619554420987e-04 +0.0000000000000000e+00 +9.9999959690908757e-01
-8.7999999999999847e+00 +9.1167039097196518e+00 +0.0000000000000000e+00 -8.7999987902528556e+00 +9.0819656040019392e-04 +0.0000000000000000e+00 +9.9999958758941887e-01
-8.8999999999999844e+00 +9.1166125740451331e+00 +0.0000000000000000e+00 -8.8999987485413765e+00 +9.1851693093368645e-04 +0.0000000000000000e+00 +9.9999957816323493e-01
-8.9999999999999840e+00 +9.1165202063332753e+00 +0.0000000000000000e+00 -8.9999987058819535e+00 +9.2883730716363324e-04 +0.0000000000000000e+00 +9.9999956863053552e-01
-9.0999999999999837e+00 +9.1164268065835099e+00 +0.0000000000000000e+00 -9.0999986622639337e+00 +9.3915768907590737e-04 +0.0000000000000000e+00 +9.9999955899132043e-01
-9.1999999999999833e+00 +9.1163323747952720e+00 +0.0000000000000000e+00 -9.1999986176766662e+00 +9.4947807662333834e-04 +0.0000000000000000e+00 +9.9999954924558954e-01
-9.2999999999999829e+00 +9.1162369109680004e+00 +0.0000000000000000e+00 -9.2999985721094998e+00 +9.5979846972574245e-04 +0.0000000000000000e+00 +9.9999953939334285e-01
-9.3999999999999826e+00 +9.1161404151011460e+00 +0.0000000000000000e+00 -9.3999985255517835e+00 +9.7011886826995285e-04 +0.0000000000000000e+00 +9.9999952943458015e-01
-9.4999999999999822e+00 +9.1160428871941708e+00 +0.0000000000000000e+00 -9.4999984779928646e+00 +9.8043927210985098e-04 +0.0000000000000000e+00 +9.9999951936930154e-01
-9.5999999999999819e+00 +9.1159443272465541e+00 +0.0000000000000000e+00 -9.5999984294220919e+00 +9.9075968106708177e-04 +0.0000000000000000e+00 +9.9999950919750691e-01
-9.6999999999999815e+00 +9.1158447352577934e+00 +0.0000000000000000e+00 -9.6999983798288145e+00 +1.0010800949386005e-03 +0.0000000000000000e+00 +9.9999949891919637e-01
-9.7999999999999812e+00 +9.1157441112274089e+00 +0.0000000000000000e+00 -9.7999983292023813e+00 +1.0114005135041840e-03 +0.0000000000000000e+00 +9.9999948853437004e-01
-9.8999999999999808e+00 +9.1156424551549442e+00 +0.0000000000000000e+00 -9.8999982775321396e+00 +1.0217209365270818e-03 +0.0000000000000000e+00 +9.9999947804302791e-01
-9.9999999999999805e+00 +9.1155397670399640e+00 +0.0000000000000000e+00 -9.9999982248074364e+00 +1.0320413637539818e-03 +0.0000000000000000e+00 +9.9999946744517010e-01
-1.0099999999999980e+01 +9.1154360468820617e+00 +0.0000000000000000e+00 -1.0099998171017623e+01 +1.0423617949149740e-03 +0.0000000000000000e+00 +9.9999945674079682e-01
-1.0199999999999980e+01 +9.1153312946808587e+00 +0.0000000000000000e+00 -1.0199998116152045e+01 +1.0526822297235140e-03 +0.0000000000000000e+00 +9.9999944592990830e-01
-1.0299999999999979e+01 +9.1152255104360052e+00 +0.0000000000000000e+00 -1.0299998060200053e+01 +1.0630026678763848e-03 +0.0000000000000000e+00 +9.9999943501250466e-01
-1.0399999999999979e+01 +9.1151186941471831e+00 +0.0000000000000000e+00 -1.0399998003150996e+01 +1.0733231090536575e-03 +0.0000000000000000e+00 +9.9999942398858610e-01
-1.0499999999999979e+01 +9.1150108458141048e+00 +0.0000000000000000e+00 -1.0499997944994220e+01 +1.0836435529186512e-03 +0.0000000000000000e+00 +9.9999941285815297e-01
-1.0599999999999978e+01 +9.1149019654365215e+00 +0.0000000000000000e+00 -1.0599997885719075e+01 +1.0939639991178912e-03 +0.0000000000000000e+00 +9.9999940162120549e-01
-1.0699999999999978e+01 +9.1147920530142166e+00 +0.0000000000000000e+00 -1.0699997825314910e+01 +1.1042844472810664e-03 +0.0000000000000000e+00 +9.9999939027774409e-01
-1.0799999999999978e+01 +9.1146811085470123e+00 +0.0000000000000000e+00 -1.0799997763771072e+01 +1.1146048970209861e-03 +0.0000000000000000e+00 +9.9999937882776901e-01
-1.0899999999999977e+01 +9.1145691320347719e+00 +0.0000000000000000e+00 -1.0899997701076913e+01 +1.1249253479335343e-03 +0.0000000000000000e+00 +9.9999936727128080e-01
-1.0999999999999977e+01 +9.1144561234773995e+00 +0.0000000000000000e+00 -1.0999997637221778e+01 +1.1352457995976247e-03 +0.0000000000000000e+00 +9.9999935560827979e-01
-1.1099999999999977e+01 +9.1143420828748418e+00 +0.0000000000000000e+00 -1.1099997572195019e+01 +1.1455662515751524e-03 +0.0000000000000000e+00 +9.9999934383876654e-01
-1.1199999999999976e+01 +9.1142270102270899e+00 +0.0000000000000000e+00 -1.1199997505985982e+01 +1.1558867034109467e-03 +0.0000000000000000e+00 +9.9999933196274149e-01
-1.1299999999999976e+01 +9.1141109055341811e+00 +0.0000000000000000e+00 -1.1299997438584017e+01 +1.1662071546327214e-03 +0.0000000000000000e+00 +9.9999931998020519e-01
-1.1399999999999975e+01 +9.1139937687962007e+00 +0.0000000000000000e+00 -1.1399997369978472e+01 +1.1765276047510239e-03 +0.0000000000000000e+00 +9.9999930789115832e-01
-1.1499999999999975e+01 +9.1138756000132854e+00 +0.0000000000000000e+00 -1.1499997300158697e+01 +1.1868480532591841e-03 +0.0000000000000000e+00 +9.9999929569560142e-01
-1.1599999999999975e+01 +9.1137563991856201e+00 +0.0000000000000000e+00 -1.1599997229114042e+01 +1.1971684996370147e-03 +0.0000000000000000e+00 +9.9999928339353517e-01
-1.1699999999999974e+01 +9.1136361663134444e+00 +0.0000000000000000e+00 -1.1699997156833854e+01 +1.2074889433920653e-03 +0.0000000000000000e+00 +9.9999927098496022e-01
