# trajectory
# s[mm] rx[mm] ry[mm] rz[mm] px[rad] py[rad] pz[rad]
0.0000000000000000e+00 +8.5727557379627282e+00 +0.0000000000000000e+00 +0.0000000000000000e+00 +0.0000000000000000e+00 +0.0000000000000000e+00 +1.0000000000000000e+00
1.0000000000000001e-01 +8.5727552229807014e+00 +0.0000000000000000e+00 +9.9999999998231962e-02 -1.0299640699869236e-05 +0.0000000000000000e+00 +9.9999999994695865e-01
2.0000000000000001e-01 +8.5727536780345552e+00 +0.0000000000000000e+00 +1.9999999998585566e-01 -2.0599282408672752e-05 +0.0000000000000000e+00 +9.9999999978783471e-01
3.0000000000000004e-01 +8.5727511031241868e+00 +0.0000000000000000e+00 +2.9999999995226284e-01 -3.0898925148769308e-05 +0.0000000000000000e+00 +9.9999999952262819e-01
4.0000000000000002e-01 +8.5727474982494911e+00 +0.0000000000000000e+00 +3.9999999988684520e-01 -4.1198568942518790e-05 +0.0000000000000000e+00 +9.9999999915133897e-01
5.0000000000000000e-01 +8.5727428634103617e+00 +0.0000000000000000e+00 +4.9999999977899451e-01 -5.1498213812282177e-05 +0.0000000000000000e+00 +9.9999999867396705e-01
5.9999999999999998e-01 +8.5727371986066920e+00 +0.0000000000000000e+00 +5.9999999961810246e-01 -6.1797859780421559e-05 +0.0000000000000000e+00 +9.9999999809051232e-01
6.9999999999999996e-01 +8.5727305038383683e+00 +0.0000000000000000e+00 +6.9999999939356083e-01 -7.2097506869300124e-05 +0.0000000000000000e+00 +9.9999999740097478e-01
7.9999999999999993e-01 +8.5727227791052787e+00 +0.0000000000000000e+00 +7.9999999909476127e-01 -8.2397155101282191e-05 +0.0000000000000000e+00 +9.9999999660535444e-01
8.9999999999999991e-01 +8.5727140244073077e+00 +0.0000000000000000e+00 +8.9999999871109559e-01 -9.2696804498733143e-05 +0.0000000000000000e+00 +9.9999999570365128e-01
9.9999999999999989e-01 +8.5727042397443380e+00 +0.0000000000000000e+00 +9.9999999823195540e-01 -1.0299645508401950e-04 +0.0000000000000000e+00 +9.9999999469586520e-01
1.0999999999999999e+00 +8.5726934251162703e+00 +0.0000000000000000e+00 +1.0999999976467325e+00 -1.1329610627627244e-04 +0.0000000000000000e+00 +9.9999999358199620e-01
1.2000000000000000e+00 +8.5726815805230814e+00 +0.0000000000000000e+00 +1.1999999969448185e+00 -1.2359575749460239e-04 +0.0000000000000000e+00 +9.9999999236204440e-01
1.3000000000000000e+00 +8.5726687059647695e+00 +0.0000000000000000e+00 +1.2999999961156052e+00 -1.3389540876134308e-04 +0.0000000000000000e+00 +9.9999999103600978e-01
1.4000000000000001e+00 +8.5726548014413275e+00 +0.0000000000000000e+00 +1.3999999951484843e+00 -1.4419506009882496e-04 +0.0000000000000000e+00 +9.9999998960389236e-01
1.5000000000000002e+00 +8.5726398669527466e+00 +0.0000000000000000e+00 +1.4999999940328475e+00 -1.5449471152937519e-04 +0.0000000000000000e+00 +9.9999998806569212e-01
1.6000000000000003e+00 +8.5726239024990178e+00 +0.0000000000000000e+00 +1.5999999927580866e+00 -1.6479436307531757e-04 +0.0000000000000000e+00 +9.9999998642140897e-01
1.7000000000000004e+00 +8.5726069080801270e+00 +0.0000000000000000e+00 +1.6999999913135933e+00 -1.7509401475897260e-04 +0.0000000000000000e+00 +9.9999998467104301e-01
1.8000000000000005e+00 +8.5725888836960600e+00 +0.0000000000000000e+00 +1.7999999896887591e+00 -1.8539366660265749e-04 +0.0000000000000000e+00 +9.9999998281459412e-01
1.9000000000000006e+00 +8.5725698293468007e+00 +0.0000000000000000e+00 +1.8999999878729759e+00 -1.9569331862868614e-04 +0.0000000000000000e+00 +9.9999998085206243e-01
2.0000000000000004e+00 +8.5725497450323278e+00 +0.0000000000000000e+00 +1.9999999858556354e+00 -2.0599297085936908e-04 +0.0000000000000000e+00 +9.9999997878344782e-01
2.1000000000000005e+00 +8.5725286307526183e+00 +0.0000000000000000e+00 +2.0999999836261294e+00 -2.1629262337565373e-04 +0.0000000000000000e+00 +9.9999997660875029e-01
2.2000000000000006e+00 +8.5725064865076401e+00 +0.0000000000000000e+00 +2.1999999811738493e+00 -2.2659227625853256e-04 +0.0000000000000000e+00 +9.9999997432796983e-01
2.3000000000000007e+00 +8.5724833122973543e+00 +0.0000000000000000e+00 +2.2999999784881870e+00 -2.3689192953038266e-04 +0.0000000000000000e+00 +9.9999997194110646e-01
2.4000000000000008e+00 +8.5724591081217199e+00 +0.0000000000000000e+00 +2.3999999755585346e+00 -2.4719158321358291e-04 +0.0000000000000000e+00 +9.9999996944816016e-01
2.5000000000000009e+00 +8.5724338739806960e+00 +0.0000000000000000e+00 +2.4999999723742832e+00 -2.5749123733051412e-04 +0.0000000000000000e+00 +9.9999996684913084e-01
2.6000000000000010e+00 +8.5724076098742383e+00 +0.0000000000000000e+00 +2.5999999689248248e+00 -2.6779089190355883e-04 +0.0000000000000000e+00 +9.9999996414401848e-01
2.7000000000000011e+00 +8.5723803158022989e+00 +0.0000000000000000e+00 +2.6999999651995510e+00 -2.7809054695510148e-04 +0.0000000000000000e+00 +9.9999996133282310e-01
2.8000000000000012e+00 +8.5723519917648296e+00 +0.0000000000000000e+00 +2.7999999611878534e+00 -2.8839020250752840e-04 +0.0000000000000000e+00 +9.9999995841554468e-01
2.9000000000000012e+00 +8.5723226377617792e+00 +0.0000000000000000e+00 +2.8999999568791237e+00 -2.9868985858322767e-04 +0.0000000000000000e+00 +9.9999995539218323e-01
3.0000000000000013e+00 +8.5722922537930941e+00 +0.0000000000000000e+00 +2.9999999522627538e+00 -3.0898951520458924e-04 +0.0000000000000000e+00 +9.9999995226273863e-01
3.1000000000000014e+00 +8.5722608398587283e+00 +0.0000000000000000e+00 +3.0999999473281354e+00 -3.1928917213853259e-04 +0.0000000000000000e+00 +9.9999994902721101e-01
3.2000000000000015e+00 +8.5722283959586640e+00 +0.0000000000000000e+00 +3.1999999420646601e+00 -3.2958882915199898e-04 +0.0000000000000000e+00 +9.9999994568560036e-01
3.3000000000000016e+00 +8.5721949220928941e+00 +0.0000000000000000e+00 +3.2999999364617194e+00 -3.3988848626741554e-04 +0.0000000000000000e+00 +9.9999994223790678e-01
3.4000000000000017e+00 +8.5721604182614062e+00 +0.0000000000000000e+00 +3.3999999305087054e+00 -3.5018814350721276e-04 +0.0000000000000000e+00 +9.9999993868413017e-01
3.5000000000000018e+00 +8.5721248844641877e+00 +0.0000000000000000e+00 +3.4999999241950093e+00 -3.6048780089382434e-04 +0.0000000000000000e+00 +9.9999993502427054e-01
3.6000000000000019e+00 +8.5720883207012228e+00 +0.0000000000000000e+00 +3.5999999175100230e+00 -3.7078745844968742e-04 +0.0000000000000000e+00 +9.9999993125832787e-01
3.7000000000000020e+00 +8.5720507269724919e+00 +0.0000000000000000e+00 +3.6999999104431387e+00 -3.8108711619724237e-04 +0.0000000000000000e+00 +9.9999992738630217e-01
3.8000000000000020e+00 +8.5720121032779755e+00 +0.0000000000000000e+00 +3.7999999029837475e+00 -3.9138677415893289e-04 +0.0000000000000000e+00 +9.9999992340819344e-01
3.9000000000000021e+00 +8.5719724496176521e+00 +0.0000000000000000e+00 +3.8999998951212413e+00 -4.0168643235720603e-04 +0.0000000000000000e+00 +9.9999991932400167e-01
4.0000000000000018e+00 +8.5719317659914953e+00 +0.0000000000000000e+00 +3.9999998868450120e+00 -4.1198609081451209e-04 +0.0000000000000000e+00 +9.9999991513372677e-01
4.1000000000000014e+00 +8.5718900523994606e+00 +0.0000000000000000e+00 +4.0999998781444509e+00 -4.2228575014116490e-04 +0.0000000000000000e+00 +9.9999991083736850e-01
4.2000000000000011e+00 +8.5718473088414182e+00 +0.0000000000000000e+00 +4.1999998690089493e+00 -4.3258541094730866e-04 +0.0000000000000000e+00 +9.9999990643492664e-01
4.3000000000000007e+00 +8.5718035353172208e+00 +0.0000000000000000e+00 +4.2999998594279001e+00 -4.4288507325513434e-04 +0.0000000000000000e+00 +9.9999990192640109e-01
4.4000000000000004e+00 +8.5717587318267157e+00 +0.0000000000000000e+00 +4.3999998493906940e+00 -4.5318473708682628e-04 +0.0000000000000000e+00 +9.9999989731179173e-01
4.5000000000000000e+00 +8.5717128983697517e+00 +0.0000000000000000e+00 +4.4999998388867226e+00 -4.6348440246456272e-04 +0.0000000000000000e+00 +9.9999989259109856e-01
4.5999999999999996e+00 +8.5716660349461709e+00 +0.0000000000000000e+00 +4.5999998279053775e+00 -4.7378406941051557e-04 +0.0000000000000000e+00 +9.9999988776432147e-01
4.6999999999999993e+00 +8.5716181415558168e+00 +0.0000000000000000e+00 +4.6999998164360504e+00 -4.8408373794685050e-04 +0.0000000000000000e+00 +9.9999988283146046e-01
4.7999999999999989e+00 +8.5715692181985279e+00 +0.0000000000000000e+00 +4.7999998044681336e+00 -4.9438340809572696e-04 +0.0000000000000000e+00 +9.9999987779251542e-01
4.8999999999999986e+00 +8.5715192648741425e+00 +0.0000000000000000e+00 +4.8999997919910179e+00 -5.0468307987929807e-04 +0.0000000000000000e+00 +9.9999987264748635e-01
4.9999999999999982e+00 +8.5714682815824972e+00 +0.0000000000000000e+00 +4.9999997789940949e+00 -5.1498275331971074e-04 +0.0000000000000000e+00 +9.9999986739637314e-01
5.0999999999999979e+00 +8.5714162683234374e+00 +0.0000000000000000e+00 +5.0999997654667562e+00 -5.2528242801364305e-04 +0.0000000000000000e+00 +9.9999986203917590e-01
5.1999999999999975e+00 +8.5713632250968654e+00 +0.0000000000000000e+00 +5.1999997513983933e+00 -5.3558210355807352e-04 +0.0000000000000000e+00 +9.9999985657589485e-01
5.2999999999999972e+00 +8.5713091519026960e+00 +0.0000000000000000e+00 +5.2999997367783989e+00 -5.4588177997560430e-04 +0.0000000000000000e+00 +9.9999985100652999e-01
5.3999999999999968e+00 +8.5712540487408404e+00 +0.0000000000000000e+00 +5.3999997215961635e+00 -5.5618145728884546e-04 +0.0000000000000000e+00 +9.9999984533108122e-01
5.4999999999999964e+00 +8.5711979156112079e+00 +0.0000000000000000e+00 +5.4999997058410788e+00 -5.6648113552041420e-04 +0.0000000000000000e+00 +9.9999983954954852e-01
5.5999999999999961e+00 +8.5711407525137044e+00 +0.0000000000000000e+00 +5.5999996895025372e+00 -5.7678081469293523e-04 +0.0000000000000000e+00 +9.9999983366193190e-01
5.6999999999999957e+00 +8.5710825594482358e+00 +0.0000000000000000e+00 +5.6999996725699296e+00 -5.8708049482904051e-04 +0.0000000000000000e+00 +9.9999982766823126e-01
5.7999999999999954e+00 +8.5710233364147044e+00 +0.0000000000000000e+00 +5.7999996550326474e+00 -5.9738017595136936e-04 +0.0000000000000000e+00 +9.9999982156844658e-01
5.8999999999999950e+00 +8.5709630834130106e+00 +0.0000000000000000e+00 +5.8999996368800822e+00 -6.0767985808256862e-04 +0.0000000000000000e+00 +9.9999981536257776e-01
5.9999999999999947e+00 +8.5709018004430533e+00 +0.0000000000000000e+00 +5.9999996181016266e+00 -6.1797954124529235e-04 +0.0000000000000000e+00 +9.9999980905062480e-01
6.0999999999999943e+00 +8.5708394875046956e+00 +0.0000000000000000e+00 +6.0999995986866713e+00 -6.2827922637181900e-04 +0.0000000000000000e+00 +9.9999980263258714e-01
6.1999999999999940e+00 +8.5707761445976818e+00 +0.0000000000000000e+00 +6.1999995786246078e+00 -6.3857891439419480e-04 +0.0000000000000000e+00 +9.9999979610846401e-01
6.2999999999999936e+00 +8.5707117717217205e+00 +0.0000000000000000e+00 +6.2999995579048278e+00 -6.4887860533471516e-04 +0.0000000000000000e+00 +9.9999978947825541e-01
6.3999999999999932e+00 +8.5706463688765169e+00 +0.0000000000000000e+00 +6.3999995365167228e+00 -6.5917829921567249e-04 +0.0000000000000000e+00 +9.9999978274196111e-01
6.4999999999999929e+00 +8.5705799360617778e+00 +0.0000000000000000e+00 +6.4999995144496836e+00 -6.6947799605935731e-04 +0.0000000000000000e+00 +9.9999977589958111e-01
6.5999999999999925e+00 +8.5705124732772049e+00 +0.0000000000000000e+00 +6.5999994916931026e+00 -6.7977769588805845e-04 +0.0000000000000000e+00 +9.9999976895111520e-01
6.6999999999999922e+00 +8.5704439805224997e+00 +0.0000000000000000e+00 +6.6999994682363706e+00 -6.9007739872406276e-04 +0.0000000000000000e+00 +9.9999976189656337e-01
6.7999999999999918e+00 +8.5703744577973602e+00 +0.0000000000000000e+00 +6.7999994440688791e+00 -7.0037710458965537e-04 +0.0000000000000000e+00 +9.9999975473592539e-01
6.8999999999999915e+00 +8.5703039051014809e+00 +0.0000000000000000e+00 +6.8999994191800198e+00 -7.1067681350711956e-04 +0.0000000000000000e+00 +9.9999974746920128e-01
6.9999999999999911e+00 +8.5702323224345562e+00 +0.0000000000000000e+00 +6.9999993935591833e+00 -7.2097652549873656e-04 +0.0000000000000000e+00 +9.9999974009639081e-01
7.0999999999999908e+00 +8.5701597097963038e+00 +0.0000000000000000e+00 +7.0999993671957613e+00 -7.3127623978738786e-04 +0.0000000000000000e+00 +9.9999973261749453e-01
7.1999999999999904e+00 +8.5700860671865478e+00 +0.0000000000000000e+00 +7.1999993400791453e+00 -7.4157595559600810e-04 +0.0000000000000000e+00 +9.9999972503251300e-01
7.2999999999999901e+00 +8.5700113946051335e+00 +0.0000000000000000e+00 +7.2999993121987270e+00 -7.5187567294697803e-04 +0.0000000000000000e+00 +9.9999971734144599e-01
7.3999999999999897e+00 +8.5699356920519065e+00 +0.0000000000000000e+00 +7.3999992835438979e+00 -7.6217539186268035e-04 +0.0000000000000000e+00 +9.9999970954429351e-01
7.4999999999999893e+00 +8.5698589595267087e+00 +0.0000000000000000e+00 +7.4999992541040497e+00 -7.7247511236549810e-04 +0.0000000000000000e+00 +9.9999970164105556e-01
7.5999999999999890e+00 +8.5697811970293802e+00 +0.0000000000000000e+00 +7.5999992238685730e+00 -7.8277483447781473e-04 +0.0000000000000000e+00 +9.9999969363173202e-01
7.6999999999999886e+00 +8.5697024045597594e+00 +0.0000000000000000e+00 +7.6999991928268594e+00 -7.9307455822201392e-04 +0.0000000000000000e+00 +9.9999968551632279e-01
7.7999999999999883e+00 +8.5696225821176810e+00 +0.0000000000000000e+00 +7.7999991609683006e+00 -8.0337428362047989e-04 +0.0000000000000000e+00 +9.9999967729482786e-01
7.8999999999999879e+00 +8.5695417297029799e+00 +0.0000000000000000e+00 +7.8999991282822881e+00 -8.1367401069559720e-04 +0.0000000000000000e+00 +9.9999966896724712e-01
7.9999999999999876e+00 +8.5694598473154855e+00 +0.0000000000000000e+00 +7.9999990947582136e+00 -8.2397373946975082e-04 +0.0000000000000000e+00 +9.9999966053358047e-01
8.0999999999999872e+00 +8.5693769349550539e+00 +0.0000000000000000e+00 +8.0999990603854677e+00 -8.3427346917279042e-04 +0.0000000000000000e+00 +9.9999965199382856e-01
8.1999999999999869e+00 +8.5692929926216443e+00 +0.0000000000000000e+00 +8.1999990251534420e+00 -8.4457319903441194e-04 +0.0000000000000000e+00 +9.9999964334799196e-01
8.2999999999999865e+00 +8.5692080203152408e+00 +0.0000000000000000e+00 +8.2999989890515291e+00 -8.5487292907679728e-04 +0.0000000000000000e+00 +9.9999963459607066e-01
8.3999999999999861e+00 +8.5691220180358219e+00 +0.0000000000000000e+00 +8.3999989520691205e+00 -8.6517265932212737e-04 +0.0000000000000000e+00 +9.9999962573806456e-01
8.4999999999999858e+00 +8.5690349857833681e+00 +0.0000000000000000e+00 +8.4999989141956060e+00 -8.7547238979257969e-04 +0.0000000000000000e+00 +9.9999961677397375e-01
8.5999999999999854e+00 +8.5689469235578546e+00 +0.0000000000000000e+00 +8.5999988754203791e+00 -8.8577212051032866e-04 +0.0000000000000000e+00 +9.9999960770379814e-01
8.6999999999999851e+00 +8.5688578313592565e+00 +0.0000000000000000e+00 +8.6999988357328295e+00 -8.9607185149754513e-04 +0.0000000000000000e+00 +9.9999959852753773e-01
8.7999999999999847e+00 +8.5687677091875454e+00 +0.0000000000000000e+00 +8.7999987951223506e+00 -9.0637158277639691e-04 +0.0000000000000000e+00 +9.9999958924519250e-01
8.8999999999999844e+00 +8.5686765570426910e+00 +0.0000000000000000e+00 +8.8999987535783323e+00 -9.1667131436904824e-04 +0.0000000000000000e+00 +9.9999957985676236e-01
8.9999999999999840e+00 +8.5685843749246597e+00 +0.0000000000000000e+00 +8.9999987110901660e+00 -9.2697104629766011e-04 +0.0000000000000000e+00 +9.9999957036224729e-01
9.0999999999999837e+00 +8.5684911628333733e+00 +0.0000000000000000e+00 +9.0999986676472453e+00 -9.3727077995552988e-04 +0.0000000000000000e+00 +9.9999956076164598e-01
9.1999999999999833e+00 +8.5683969207685653e+00 +0.0000000000000000e+00 +9.1999986232389599e+00 -9.4757051673610877e-04 +0.0000000000000000e+00 +9.9999955105495708e-01
9.2999999999999829e+00 +8.5683016487299213e+00 +0.0000000000000000e+00 +9.2999985778547014e+00 -9.5787025666171216e-04 +0.0000000000000000e+00 +9.9999954124218038e-01
9.3999999999999826e+00 +8.5682053467171269e+00 +0.0000000000000000e+00 +9.3999985314838597e+00 -9.6816999975464870e-04 +0.0000000000000000e+00 +9.9999953132331587e-01
9.4999999999999822e+00 +8.5681080147298641e+00 +0.0000000000000000e+00 +9.4999984841158280e+00 -9.7846974603722639e-04 +0.0000000000000000e+00 +9.9999952129836334e-01
9.5999999999999819e+00 +8.5680096527678131e+00 +0.0000000000000000e+00 +9.5999984357399963e+00 -9.8876949553175259e-04 +0.0000000000000000e+00 +9.9999951116732277e-01
9.6999999999999815e+00 +8.5679102608306508e+00 +0.0000000000000000e+00 +9.6999983863457562e+00 -9.9906924826053387e-04 +0.0000000000000000e+00 +9.9999950093019396e-01
9.7999999999999812e+00 +8.5678098389180519e+00 +0.0000000000000000e+00 +9.7999983359224991e+00 -1.0093690042458760e-03 +0.0000000000000000e+00 +9.9999949058697679e-01
9.8999999999999808e+00 +8.5677083870296915e+00 +0.0000000000000000e+00 +9.8999982844596150e+00 -1.0196687635100840e-03 +0.0000000000000000e+00 +9.9999948013767115e-01
9.9999999999999805e+00 +8.5676059051652391e+00 +0.0000000000000000e+00 +9.9999982319464973e+00 -1.0299685260754621e-03 +0.0000000000000000e+00 +9.9999946958227692e-01
1.0099999999999980e+01 +8.5675023933243963e+00 +0.0000000000000000e+00 +1.0099998178372536e+01 -1.0402682910113285e-03 +0.0000000000000000e+00 +9.9999945892079489e-01
1.0199999999999980e+01 +8.5673978515069891e+00 +0.0000000000000000e+00 +1.0199998123727120e+01 -1.0505680573869502e-03 +0.0000000000000000e+00 +9.9999944815322606e-01
1.0299999999999979e+01 +8.5672922797128699e+00 +0.0000000000000000e+00 +1.0299998067999644e+01 -1.0608678252246235e-03 +0.0000000000000000e+00 +9.9999943727957030e-01
1.0399999999999979e+01 +8.5671856779418931e+00 +0.0000000000000000e+00 +1.0399998011179498e+01 -1.0711675945466502e-03 +0.0000000000000000e+00 +9.9999942629982752e-01
1.0499999999999979e+01 +8.5670780461939096e+00 +0.0000000000000000e+00 +1.0499997953256074e+01 -1.0814673653753309e-03 +0.0000000000000000e+00 +9.9999941521399771e-01
1.0599999999999978e+01 +8.5669693844687664e+00 +0.0000000000000000e+00 +1.0599997894218761e+01 -1.0917671377329657e-03 +0.0000000000000000e+00 +9.9999940402208076e-01
1.0699999999999978e+01 +8.5668596927663110e+00 +0.0000000000000000e+00 +1.0699997834056953e+01 -1.1020669116418537e-03 +0.0000000000000000e+00 +9.9999939272407656e-01
1.0799999999999978e+01 +8.5667489710863851e+00 +0.0000000000000000e+00 +1.0799997772760040e+01 -1.1123666871242935e-03 +0.0000000000000000e+00 +9.9999938131998511e-01
1.0899999999999977e+01 +8.5666372194288325e+00 +0.0000000000000000e+00 +1.0899997710317415e+01 -1.1226664642025831e-03 +0.0000000000000000e+00 +9.9999936980980630e-01
1.0999999999999977e+01 +8.5665244377934915e+00 +0.0000000000000000e+00 +1.0999997646718466e+01 -1.1329662428990193e-03 +0.0000000000000000e+00 +9.9999935819354002e-01
1.1099999999999977e+01 +8.5664106261801756e+00 +0.0000000000000000e+00 +1.1099997581952586e+01 -1.1432660239148161e-03 +0.0000000000000000e+00 +9.9999934647118549e-01
1.1199999999999976e+01 +8.5662957845886076e+00 +0.0000000000000000e+00 +1.1199997516009166e+01 -1.1535658079511251e-03 +0.0000000000000000e+00 +9.9999933464274182e-01
1.1299999999999976e+01 +8.5661799130184839e+00 +0.0000000000000000e+00 +1.1299997448877598e+01 -1.1638655950300815e-03 +0.0000000000000000e+00 +9.9999932270820879e-01
1.1399999999999975e+01 +8.5660630114694989e+00 +0.0000000000000000e+00 +1.1399997380547271e+01 -1.1741653851738117e-03 +0.0000000000000000e+00 +9.9999931066758629e-01
1.1499999999999975e+01 +8.5659450799413452e+00 +0.0000000000000000e+00 +1.1499997311007577e+01 -1.1844651784044394e-03 +0.0000000000000000e+00 +9.9999929852087432e-01
1.1599999999999975e+01 +8.5658261184337139e+00 +0.0000000000000000e+00 +1.1599997240247909e+01 -1.1947649747440854e-03 +0.0000000000000000e+00 +9.9999928626807266e-01
1.1699999999999974e+01 +8.5657061269462922e+00 +0.0000000000000000e+00 +1.1699997168257656e+01 -1.2050647742148674e-03 +0.0000000000000000e+00 +9.9999927390918120e-01
1.1799999999999974e+01 +8.5655851054787657e+00 +0.0000000000000000e+00 +1.1799997095026210e+01 -1.2153645768389000e-03 +0.0000000000000000e+00 +9.9999926144419982e-01
