# multipoles
# s[mm] polynom_b[n=0][T/m^n] polynom_b[n=1][T/m^n] polynom_b[n=2][T/m^n] polynom_b[n=3][T/m^n] polynom_b[n=4][T/m^n] polynom_b[n=5][T/m^n] polynom_b[n=6][T/m^n] 
+0.0000000000000000e+00 -1.0325403053995572e+00 +2.2762683820058762e+00 +2.1062417366527836e+01 +5.7046040729905189e+02 -9.7694254284342551e+03 -3.2314597248928873e+06 +6.5349614966803022e+07 
+1.0005104645227200e-01 -1.0325399803697430e+00 +2.2762832079627353e+00 +2.1043787607113924e+01 +5.7684566642027573e+02 -8.8093308778613937e+03 -3.2868081681508236e+06 +5.9052156454439908e+07 
+2.0010209290454301e-01 -1.0325396958272657e+00 +2.2763289110805260e+00 +2.1028293819868463e+01 +5.8259823175433689e+02 -7.9510741372759703e+03 -3.3390433705680673e+06 +5.3357498537637129e+07 
+3.0015313935681498e-01 -1.0325394581690079e+00 +2.2764029755947179e+00 +2.1016358374030343e+01 +5.8776838556575171e+02 -7.2070722192813582e+03 -3.3884001840030462e+06 +4.8339857918925308e+07 
+4.0020418580908601e-01 -1.0325392737921206e+00 +2.2765028857836036e+00 +2.1008403665859930e+01 +5.9240640948230168e+02 -6.5897426358519451e+03 -3.4351134600685351e+06 +4.4073453713751331e+07 
+5.0025523226135804e-01 -1.0325391490939859e+00 +2.2766261259817675e+00 +2.1004852117411492e+01 +5.9656258425333635e+02 -6.1115033958635249e+03 -3.4794180496841250e+06 +4.0632507518762626e+07 
+6.0030627871362996e-01 -1.0325390886282189e+00 +2.2767703750170121e+00 +2.1006011231573186e+01 +6.0028264826133545e+02 -5.7814152310165546e+03 -3.5215244590997463e+06 +3.8071556579418093e+07 
+7.0035732516590099e-01 -1.0325390896436513e+00 +2.2769341042491735e+00 +2.1011733124806394e+01 +6.0359307241877400e+02 -5.5952235889655376e+03 -3.5615382659041057e+06 +3.6367043817974091e+07 
+8.0040837161817302e-01 -1.0325391475805799e+00 +2.2771159868035848e+00 +2.1021757151742435e+01 +6.0651524006045122e+02 -5.5453734330755924e+03 -3.5995369607169251e+06 +3.5476047868228160e+07 
+9.0045941807044405e-01 -1.0325392578793411e+00 +2.2773146958443533e+00 +2.1035822672596844e+01 +6.0907053396591527e+02 -5.6243098363070285e+03 -3.6355980344219124e+06 +3.5355647899501018e+07 
+1.0005104645227201e+00 -1.0325394159804275e+00 +2.2775289045565623e+00 +2.1053669066651725e+01 +6.1128033682412445e+02 -5.8244782435397756e+03 -3.6697989806371676e+06 +3.5962924861500897e+07 
+1.1005615109749900e+00 -1.0325396173243981e+00 +2.2777572861614659e+00 +2.1075035721745145e+01 +6.1316603071909344e+02 -6.1383242619209614e+03 -3.7022172924161423e+06 +3.7254960434294671e+07 
+1.2006125574272599e+00 -1.0325398573518718e+00 +2.2779985138969177e+00 +2.1099662032458358e+01 +6.1474899768851878e+02 -6.5582936289419504e+03 -3.7329304653944066e+06 +3.9188836857848383e+07 
+1.3006636038795301e+00 -1.0325401315034997e+00 +2.2782512610194505e+00 +2.1127287401284924e+01 +6.1605061958571730e+02 -7.0768322395473942e+03 -3.7620159966207980e+06 +4.1721637056169465e+07 
+1.4007146503318000e+00 -1.0325404352199365e+00 +2.2785142008001746e+00 +2.1157651230052128e+01 +6.1709227815435611e+02 -7.6863859702098362e+03 -3.7895513848254504e+06 +4.4810443737018101e+07 
+1.5007656967840699e+00 -1.0325407639418811e+00 +2.2787860065223731e+00 +2.1190492931007761e+01 +6.1789535506922732e+02 -8.3794008992694744e+03 -3.8156141304218913e+06 +4.8412340445814580e+07 
+1.6008167432363500e+00 -1.0325411131099294e+00 +2.2790653514732440e+00 +2.1225551904853511e+01 +6.1848123209843948e+02 -9.1483228833880639e+03 -3.8402817361732014e+06 +5.2484409508735187e+07 
+1.7008677896886200e+00 -1.0325414781646571e+00 +2.2793509089473329e+00 +2.1262567553286704e+01 +6.1887129097696084e+02 -9.9855977930821646e+03 -3.8636317062703865e+06 +5.6983733122838542e+07 
+1.8009188361408901e+00 -1.0325418545465797e+00 +2.2796413522302283e+00 +2.1301279274859006e+01 +6.1908691381331300e+02 -1.0883671439866446e+04 -3.8857415483998461e+06 +6.1867393003003053e+07 
+1.9009698825931600e+00 -1.0325422376960653e+00 +2.2799353546104677e+00 +2.1341426453279137e+01 +6.1914948271675280e+02 -1.1834989341596909e+04 -3.9066887714141849e+06 +6.7092469207482651e+07 
+2.0010209290454299e+00 -1.0325426230533961e+00 +2.2802315893644298e+00 +2.1382748467890714e+01 +6.1908038017265346e+02 -1.2831996934408922e+04 -3.9265508872285760e+06 +7.2616041156296134e+07 
+2.1010719754977001e+00 -1.0325430060586975e+00 +2.2805287297529797e+00 +2.1424984681776667e+01 +6.1890098908571588e+02 -1.3867139333827246e+04 -3.9454054108405579e+06 +7.8395186439049184e+07 
+2.2011230219499698e+00 -1.0325433821519212e+00 +2.2808254490218829e+00 +2.1467874443731240e+01 +6.1863269273173819e+02 -1.4932861375765797e+04 -3.9633298598137824e+06 +8.4386980994968310e+07 
+2.3011740684022501e+00 -1.0325437467728003e+00 +2.2811204203998163e+00 +2.1511157082009849e+01 +6.1829687477493519e+02 -1.6021607499607628e+04 -3.9804017541888678e+06 +9.0548498538593188e+07 
+2.4012251148545198e+00 -1.0325440953608997e+00 +2.2814123170843277e+00 +2.1554571909560341e+01 +6.1791491958971153e+02 -1.7125821837575779e+04 -3.9966986180228912e+06 +9.6836810931177229e+07 
+2.5012761613067900e+00 -1.0325444233555197e+00 +2.2816998122532510e+00 +2.1597858214571922e+01 +6.1750821189498379e+02 -1.8237948057260979e+04 -4.0122979774688822e+06 +1.0320898744249417e+08 
+2.6013272077590601e+00 -1.0325447267277967e+00 +2.2819819448872334e+00 +2.1640777399762005e+01 +6.1709021321925354e+02 -1.9351189354720402e+04 -4.0272430480078044e+06 +1.0962628150392507e+08 
+2.7013782542113298e+00 -1.0325450034634731e+00 +2.2822591467220170e+00 +2.1683160485020395e+01 +6.1664519044121846e+02 -2.0461347386426554e+04 -4.0414520125821712e+06 +1.1606459251056391e+08 
+2.8014293006636000e+00 -1.0325452520238640e+00 +2.2825321814965092e+00 +2.1724851365983874e+01 +6.1615068692645127e+02 -2.1564769639466089e+04 -4.0548146257958151e+06 +1.2250298774379410e+08 
+2.9014803471158799e+00 -1.0325454708704545e+00 +2.2828018129492222e+00 +2.1765693965166047e+01 +6.1558424600344938e+02 -2.2657804127956086e+04 -4.0672206412232146e+06 +1.2892053699611565e+08 
+3.0015313935681500e+00 -1.0325456584648633e+00 +2.2830688048178707e+00 +2.1805532228036597e+01 +6.1492341094191204e+02 -2.3736799321737788e+04 -4.0785598110592943e+06 +1.3529631225299484e+08 
+3.1015824400204202e+00 -1.0325458132689298e+00 +2.2833339208496612e+00 +2.1844210134983982e+01 +6.1414572464056698e+02 -2.4798104380714289e+04 -4.0887218841034714e+06 +1.4160938884047988e+08 
+3.2016334864726899e+00 -1.0325459337446439e+00 +2.2835979247872409e+00 +2.1881571689668327e+01 +6.1322873000838672e+02 -2.5838068919072131e+04 -4.0975966077771173e+06 +1.4783884427185506e+08 
+3.3016845329249600e+00 -1.0325460183542263e+00 +2.2838615803772071e+00 +2.1917460932522296e+01 +6.1214996970588845e+02 -2.6853043284851399e+04 -4.1050737264243350e+06 +1.5396375965683779e+08 
+3.4017355793772301e+00 -1.0325460655601315e+00 +2.2841256513690542e+00 +2.1951721941425113e+01 +6.1088698615378098e+02 -2.7839378560759051e+04 -4.1110429811353516e+06 +1.5996321968110257e+08 
+3.5017866258295101e+00 -1.0325460738250438e+00 +2.2843909015126926e+00 +2.1984198828005770e+01 +6.0941732158359127e+02 -2.8793426494792024e+04 -4.1153941098707695e+06 +1.6581631229252598e+08 
+3.6018376722817802e+00 -1.0325460416119063e+00 +2.2846580945606423e+00 +2.2014735744998543e+01 +6.0771851795699911e+02 -2.9711539651759209e+04 -4.1180168467754819e+06 +1.7150212946408972e+08 
+3.7018887187340499e+00 -1.0325459673839896e+00 +2.2849279942656291e+00 +2.2043176893411275e+01 +6.0576811702298244e+02 -3.0590071541377558e+04 -4.1188009223273918e+06 +1.7699976779369777e+08 
+3.8019397651863200e+00 -1.0325458496047666e+00 +2.2852013643838682e+00 +2.2069366507845874e+01 +6.0354366018866313e+02 -3.1425376346914214e+04 -4.1176360623449851e+06 +1.8228832724634895e+08 
+3.9019908116385902e+00 -1.0325456867381080e+00 +2.2854789686732659e+00 +2.2093148879300486e+01 +6.0102268856411013e+02 -3.2213809357730701e+04 -4.1144119881007364e+06 +1.8734691322093317e+08 
+4.0020418580908599e+00 -1.0325454772481706e+00 +2.2857615708883947e+00 +2.2114368344189884e+01 +5.9818274308609045e+02 -3.2951726761488309e+04 -4.1090184167971476e+06 +1.9215463557561541e+08 
+4.1020929045431300e+00 -1.0325452195994462e+00 +2.2860499347930632e+00 +2.2132869289321523e+01 +5.9500136413294206e+02 -3.3635485743740668e+04 -4.1013450591376806e+06 +1.9669060912891987e+08 
+4.2021439509954099e+00 -1.0325449122568329e+00 +2.2863448241462008e+00 +2.2148496160497043e+01 +5.9145609192209918e+02 -3.4261444651947400e+04 -4.0912816214753850e+06 +2.0093395444876903e+08 
+4.3021949974476801e+00 -1.0325445536855615e+00 +2.2866470027098078e+00 +2.2161093454032375e+01 +5.8752446624113270e+02 -3.4825962834308128e+04 -4.0787178039679797e+06 +2.0486379710366157e+08 
+4.4022460438999502e+00 -1.0325441423512731e+00 +2.2869572342486517e+00 +2.2170505725991571e+01 +5.8318402645939989e+02 -3.5325400815032954e+04 -4.0635433005272592e+06 +2.0845926850299007e+08 
+4.5022970903522204e+00 -1.0325436767200598e+00 +2.2872762825039743e+00 +2.2176577596061779e+01 +5.7841231219806423e+02 -3.5756120349850928e+04 -4.0456478005952239e+06 +2.1169950628312120e+08 
+4.6023481368044896e+00 -1.0325431563284146e+00 +2.2876045886988985e+00 +2.2179189611391241e+01 +5.7319558089293571e+02 -3.6114852180390903e+04 -4.0249636410294641e+06 +2.1456521753710705e+08 
+4.7023991832567598e+00 -1.0325425847825092e+00 +2.2879414181018980e+00 +2.2178383301844239e+01 +5.6755227143819434e+02 -3.6400362891757082e+04 -4.0015835846183333e+06 +2.1704622317970103e+08 
+4.8024502297090397e+00 -1.0325419666595079e+00 +2.2882857655439017e+00 +2.2174244585001517e+01 +5.6150833107510562e+02 -3.6612060082714816e+04 -3.9756385191233940e+06 +2.1913530079512626e+08 
+4.9025012761613098e+00 -1.0325413065364484e+00 +2.2886366257909856e+00 +2.2166859372185407e+01 +5.5508970774615068e+02 -3.6749351311658000e+04 -3.9472593316898341e+06 +2.2082522790324241e+08 
+5.0025523226135800e+00 -1.0325406089901383e+00 +2.2889929935389697e+00 +2.2156313557060056e+01 +5.4832235020156827e+02 -3.6811643872472567e+04 -3.9165769092600308e+06 +2.2210878086384991e+08 
+5.1026033690658501e+00 -1.0325398785971944e+00 +2.2893538634059931e+00 +2.2142693017619930e+01 +5.4123220813268244e+02 -3.6798344840000929e+04 -3.8837221391201532e+06 +2.2297873511648858e+08 
+5.2026544155181202e+00 -1.0325391199340115e+00 +2.2897182299377152e+00 +2.2126083615742385e+01 +5.3384523198313764e+02 -3.6708861070453742e+04 -3.8488259076341363e+06 +2.2342786520356178e+08 
+5.3027054619703904e+00 -1.0325383375767510e+00 +2.2900850875932441e+00 +2.2106571191955144e+01 +5.2618737328263614e+02 -3.6542599091422817e+04 -3.8120191019703280e+06 +2.2344894421425518e+08 
+5.4027565084226703e+00 -1.0325375361013320e+00 +2.2904534307524025e+00 +2.2084241569472784e+01 +5.1828458439680435e+02 -3.6298965190078619e+04 -3.7734326084491001e+06 +2.2303474423218891e+08 
+5.5028075548749404e+00 -1.0325367200833890e+00 +2.2908222537018985e+00 +2.2059180544499192e+01 +5.1016281886644686e+02 -3.5977365229998781e+04 -3.7331973143532947e+06 +2.2217803546825993e+08 
+5.6028586013272097e+00 -1.0325358940982732e+00 +2.2911905506403785e+00 +2.2031473889861125e+01 +5.0184803119865785e+02 -3.5577204725171636e+04 -3.6914441064804769e+06 +2.2087158661931631e+08 
+5.7029096477794798e+00 -1.0325350627210879e+00 +2.2915573156692584e+00 +2.2001207357483366e+01 +4.9336617708795336e+02 -3.5097888884772707e+04 -3.6483038722649482e+06 +2.1910816507598284e+08 
+5.8029606942317500e+00 -1.0325342305265246e+00 +2.2919215427924118e+00 +2.1968466659054727e+01 +4.8474321336005346e+02 -3.4538822249682329e+04 -3.6039074992409563e+06 +2.1688053520024240e+08 
+5.9030117406840201e+00 -1.0325334020890402e+00 +2.2922822259130728e+00 +2.1933337488748830e+01 +4.7600509800449424e+02 -3.3899409130132401e+04 -3.5583858750148523e+06 +2.1418146041984114e+08 
+6.0030627871363000e+00 -1.0325325819826829e+00 +2.2926383588295489e+00 +2.1895905500765767e+01 +4.6717779024267656e+02 -3.3179053185752964e+04 -3.5118698875002456e+06 +2.1100370125014061e+08 
+6.1031138335885702e+00 -1.0325317747811624e+00 +2.2929889352253592e+00 +2.1856256317904585e+01 +4.5828725076647208e+02 -3.2377157574906400e+04 -3.4644904261038303e+06 +2.0734001596040100e+08 
+6.2031648800408403e+00 -1.0325309850578162e+00 +2.2933329486798351e+00 +2.1814475529174061e+01 +4.4935944136499722e+02 -3.1493124931085153e+04 -3.4163783793521370e+06 +2.0318316052224502e+08 
+6.3032159264931096e+00 -1.0325302173855850e+00 +2.2936693926519727e+00 +2.1770648685634498e+01 +4.4042032534414847e+02 -3.0526357276123457e+04 -3.3676646371446038e+06 +1.9852588817161858e+08 
+6.4032669729453797e+00 -1.0325294763369708e+00 +2.2939972604836534e+00 +2.1724861295861871e+01 +4.3149586736170392e+02 -2.9476255934846256e+04 -3.3184800895587699e+06 +1.9336094900206161e+08 
+6.5033180193976499e+00 -1.0325287664840197e+00 +2.2943155455260591e+00 +2.1677198848259490e+01 +4.2261202900221997e+02 -2.8342222236790516e+04 -3.2689556032404485e+06 +1.8768109375108156e+08 
+6.6033690658499298e+00 -1.0325280909459229e+00 +2.2946234973571382e+00 +2.1627757008217852e+01 +4.1378972864877750e+02 -2.7125119133406512e+04 -3.2192011844431120e+06 +1.8148866311106598e+08 
+6.7034201123021999e+00 -1.0325274476942929e+00 +2.2949210049216755e+00 +2.1576668949123285e+01 +4.0504213869571799e+02 -2.5831176107635467e+04 -3.1693124641391081e+06 +1.7482148251374945e+08 
+6.8034711587544701e+00 -1.0325268335636382e+00 +2.2952080348800341e+00 +2.1524078022641248e+01 +3.9638316273284357e+02 -2.4467906161509098e+04 -3.1193964514419059e+06 +1.6772588206997257e+08 
+6.9035222052067402e+00 -1.0325262453884387e+00 +2.2954845539895166e+00 +2.1470127581454516e+01 +3.8782670450105695e+02 -2.3042822527717639e+04 -3.0695601679871269e+06 +1.6024819415937379e+08 
+7.0035732516590103e+00 -1.0325256800032776e+00 +2.2957505291244993e+00 +2.1414960989878974e+01 +3.7938666735140555e+02 -2.1563438857101759e+04 -3.0199106451846091e+06 +1.5243475430355054e+08 
+7.1036242981112796e+00 -1.0325251342426411e+00 +2.2960059272770743e+00 +2.1358721600911398e+01 +3.7107695436541769e+02 -2.0037268785879300e+04 -2.9705549254282587e+06 +1.4433189914053503e+08 
+7.2036753445635497e+00 -1.0325246049410952e+00 +2.2962507155584984e+00 +2.1301552779260746e+01 +3.6291146844385275e+02 -1.8471826389505510e+04 -2.9216000631472976e+06 +1.3598596865119240e+08 
+7.3037263910158297e+00 -1.0325240889332894e+00 +2.2964848612154656e+00 +2.1243597897925451e+01 +3.5490411194975735e+02 -1.6874626110109421e+04 -2.8731531232434744e+06 +1.2744330581698650e+08 
+7.4037774374680998e+00 -1.0325235830537967e+00 +2.2967083316239290e+00 +2.1185000322801780e+01 +3.4706878703288879e+02 -1.5253182476690808e+04 -2.8253211834954652e+06 +1.1875025534692807e+08 
+7.5038284839203699e+00 -1.0325230841372717e+00 +2.2969210942986393e+00 +2.1125903427346408e+01 +3.3941939547751826e+02 -1.3615010383848907e+04 -2.7782113342375476e+06 +1.0995316502773997e+08 
+7.6038795303726401e+00 -1.0325225890183580e+00 +2.2971231169005293e+00 +2.1066450584422931e+01 +3.3196983860802686e+02 -1.1967624944371259e+04 -2.7319306782707763e+06 +1.0109838506598032e+08 
+7.7039305768249102e+00 -1.0325220945317839e+00 +2.2973143672410412e+00 +2.1006785174510576e+01 +3.2473401730336371e+02 -1.0318541650293699e+04 -2.6865863315344499e+06 +9.2232268893985629e+07 
+7.8039816232771804e+00 -1.0325215975122621e+00 +2.2974948132862028e+00 +2.0947050577899034e+01 +3.1772583200626468e+02 -8.6752762319300200e+03 -2.6422854236361333e+06 +8.3401172537827834e+07 
+7.9040326697294496e+00 -1.0325210947945780e+00 +2.2976644231629177e+00 +2.0887390180122118e+01 +3.1095918265936882e+02 -7.0453447607163043e+03 -2.5991350980186504e+06 +7.4651455134884968e+07 
+8.0040837161817304e+00 -1.0325205832135278e+00 +2.2978231651601964e+00 +2.0827947367388870e+01 +3.0444796882117259e+02 -5.4362635671350981e+03 -2.5572425131910103e+06 +6.6029478574123554e+07 
+8.1041347626340006e+00 -1.0325200596039363e+00 +2.2979710077424085e+00 +2.0768865526954695e+01 +2.9820608938220903e+02 -3.8555492608122281e+03 -2.5167148415420097e+06 +5.7581607655871972e+07 
+8.2041858090862707e+00 -1.0325195208007003e+00 +2.2981079195469007e+00 +2.0710288052994251e+01 +2.9224744278489402e+02 -2.3107188387448455e+03 -2.4776592711979975e+06 +4.9354210616770841e+07 
+8.3042368555385409e+00 -1.0325189636387357e+00 +2.2982338693957556e+00 +2.0652358339198738e+01 +2.8658592679327467e+02 -8.0928955161456815e+02 -2.4401830051435926e+06 +4.1393658539934188e+07 
+8.4042879019908092e+00 -1.0325183849530217e+00 +2.2983488262959391e+00 +2.0595219784896130e+01 +2.8123543864729817e+02 +6.4122097208029925e+02 -2.4043932627440756e+06 +3.3746325987416096e+07 
+8.5043389484430794e+00 -1.0325177815785898e+00 +2.2984527592473296e+00 +2.0539015757959895e+01 +2.7620988231929164e+02 +2.0332958929711274e+03 -2.3703973167903535e+06 +2.6458584929604739e+07 
+8.6043899948953602e+00 -1.0325171512640821e+00 +2.2985455884244952e+00 +2.0483860618745265e+01 +2.7152284020213079e+02 +3.3611622273794806e+03 -2.3382963646512749e+06 +1.9566218048566386e+07 
+8.7044410413476303e+00 -1.0325164946614167e+00 +2.2986274177602160e+00 +2.0429722996406500e+01 +2.6717317436360997e+02 +4.6262699661481201e+03 -2.3080938166936305e+06 +1.3061839344493756e+07 
+8.8044920877999004e+00 -1.0325158129734906e+00 +2.2986984798703824e+00 +2.0376525138937673e+01 +2.6315311598211792e+02 +5.8320297118169092e+03 -2.2797523100309470e+06 +6.9265552649982460e+06 
+8.9045431342521706e+00 -1.0325151074031342e+00 +2.2987590074271536e+00 +2.0324189278748513e+01 +2.5945489235311760e+02 +6.9818525402495106e+03 -2.2532344527224191e+06 +1.1414693992987112e+06 
+9.0045941807044407e+00 -1.0325143791531182e+00 +2.2988092331380576e+00 +2.0272637636109863e+01 +2.5607072760052722e+02 +8.0791498924916459e+03 -2.2285028275702866e+06 -4.3123169300029855e+06 
+9.1046452271567109e+00 -1.0325136294260826e+00 +2.2988493897479216e+00 +2.0221792408636134e+01 +2.5299284256737369e+02 +9.1273337920102331e+03 -2.2055199912800645e+06 -9.4537057562192436e+06 
+9.2046962736089899e+00 -1.0325128594246096e+00 +2.2988797100414260e+00 +2.0171575780003252e+01 +2.5021345460932818e+02 +1.0129816677897350e+04 -2.1842484728643564e+06 -1.4301601684586043e+07 
+9.3047473200612600e+00 -1.0325120703511939e+00 +2.2989004268411866e+00 +2.0121909916924071e+01 +2.4772477763154285e+02 +1.1090011476037300e+04 -2.1646507737367847e+06 -1.8874912277119916e+07 
+9.4047983665135302e+00 -1.0325112634082605e+00 +2.2989117730090247e+00 +2.0072716970178210e+01 +2.4551902193140253e+02 +1.2011331579678334e+04 -2.1466893664394030e+06 -2.3192547970918842e+07 
+9.5048494129658003e+00 -1.0325104397981055e+00 +2.2989139814471704e+00 +2.0023919067794683e+01 +2.4358839409260179e+02 +1.2897190986063277e+04 -2.1303266937586865e+06 -2.7273422756776292e+07 
+9.6049004594180705e+00 -1.0325096007229877e+00 +2.2989072850932075e+00 +1.9975438326131790e+01 +2.4192509705968692e+02 +1.3751004098466727e+04 -2.1155251689174678e+06 -3.1136453282676168e+07 
+9.7049515058703406e+00 -1.0325087473850190e+00 +2.2988919169317490e+00 +1.9927196834226677e+01 +2.4052132970739160e+02 +1.4576186027888174e+04 -2.1022471727809124e+06 -3.4800560310651883e+07 
+9.8050025523226108e+00 -1.0325078809862740e+00 +2.2988681099789243e+00 +1.9879116670631106e+01 +2.3936928723281832e+02 +1.5376152272933674e+04 -2.0904550559117913e+06 -3.8284667204030842e+07 
+9.9050535987748898e+00 -1.0325070027286991e+00 +2.2988360973049335e+00 +1.9831119886959559e+01 +2.3846116037777526e+02 +1.6154319052140963e+04 -2.0801111336786521e+06 -4.1607701571589634e+07 
+1.0005104645227201e+01 -1.0325061138141485e+00 +2.2987961120042453e+00 +1.9783128517811001e+01 +2.3778913626838261e+02 +1.6914103108421070e+04 -2.0711776909866214e+06 -4.4788594328099705e+07 
+1.0105155691679400e+01 -1.0325052154443957e+00 +2.2987483872273460e+00 +1.9735064577138029e+01 +2.3734539737619144e+02 +1.7658921797765524e+04 -2.0636169759002982e+06 -4.7846280179706059e+07 
