# multipoles
# s[mm] polynom_b[n=0][T/m^n] polynom_b[n=1][T/m^n] polynom_b[n=2][T/m^n] polynom_b[n=3][T/m^n] polynom_b[n=4][T/m^n] polynom_b[n=5][T/m^n] polynom_b[n=6][T/m^n] 
+0.0000000000000000e+00 -1.0968313540570771e+00 +2.4541733015929084e+00 +1.9888878298215928e+01 +3.6137499792360629e+01 +2.2960480370404748e+04 +4.7615959369249560e+05 -5.4065380135493383e+07 
+1.0000000000000001e-01 -1.0968305510460801e+00 +2.4538425822676420e+00 +1.9745952106194821e+01 +4.6987645315835707e+01 +2.5737943721755761e+04 +4.2215916582389246e+05 -6.8114009407148883e+07 
+2.0000000000000001e-01 -1.0968295716622993e+00 +2.4533887102151812e+00 +1.9583218024171721e+01 +6.1254753858943175e+01 +2.8837203789239527e+04 +3.5021102511149080e+05 -8.3539060820638657e+07 
+3.0000000000000004e-01 -1.0968284921653528e+00 +2.4528295527110537e+00 +1.9409254908990714e+01 +7.8401150574426225e+01 +3.2097255247033692e+04 +2.6299820478619274e+05 -9.9541306361122221e+07 
+4.0000000000000002e-01 -1.0968273888141895e+00 +2.4521829768081105e+00 +1.9232641549883006e+01 +9.7889170812649098e+01 +3.5357093807171848e+04 +1.6320365446097075e+05 -1.1532152199412110e+08 
+5.0000000000000000e-01 -1.0968263378672956e+00 +2.4514668491255138e+00 +1.9061956689377151e+01 +1.1918116825209610e+02 +3.8455715959843270e+04 +5.3510179234890958e+04 -1.3008048689007600e+08 
+5.9999999999999998e-01 -1.0968254089691558e+00 +2.4507014086937491e+00 +1.8904757394315233e+01 +1.4167440620078003e+02 +4.1253288557568863e+04 -6.3012932251792095e+04 -1.4313494714964902e+08 
+6.9999999999999996e-01 -1.0968246451401149e+00 +2.4499165364691460e+00 +1.8764475271694387e+01 +1.6450043210811216e+02 +4.3695552927578268e+04 -1.8170885851144005e+05 -1.5427035047648373e+08 
+7.9999999999999993e-01 -1.0968240827009057e+00 +2.4491445617527758e+00 +1.8643500583614284e+01 +1.8672303554701364e+02 +4.5749874493341449e+04 -2.9751357909520564e+05 -1.6339057154564258e+08 
+8.9999999999999991e-01 -1.0968237579734506e+00 +2.4484178136785788e+00 +1.8544223723202368e+01 +2.0740601092977229e+02 +4.7383616846088786e+04 -4.0536310137002572e+05 -1.7039947893894669e+08 
+9.9999999999999989e-01 -1.0968237072814422e+00 +2.4477686212890495e+00 +1.8469035276483503e+01 +2.2561315386695983e+02 +4.8564140784409567e+04 -5.0019342977355316e+05 -1.7520093142134675e+08 
+1.0999999999999999e+00 -1.0968239669506139e+00 +2.4472293136005385e+00 +1.8420326049758287e+01 +2.4040825783470478e+02 +4.9258803973475617e+04 -5.7694053687091439e+05 -1.7769877706139672e+08 
+1.2000000000000000e+00 -1.0968245733093172e+00 +2.4468322196600543e+00 +1.8400487134211556e+01 +2.5085511109370472e+02 +4.9434959921873306e+04 -6.3054033589550073e+05 -1.7779684918749693e+08 
+1.3000000000000000e+00 -1.0968255626888523e+00 +2.4466096686292049e+00 +1.8411909939019239e+01 +2.5601749280224584e+02 +4.9059957543534932e+04 -6.5592864853996155e+05 -1.7539896507786894e+08 
+1.4000000000000001e+00 -1.0968269714239134e+00 +2.4465939898418769e+00 +1.8456986238387685e+01 +2.5495916989907715e+02 +4.8101140464960306e+04 -6.4804117726799694e+05 -1.7040892347163078e+08 
+1.5000000000000002e+00 -1.0968288358530254e+00 +2.4468175128756009e+00 +1.8538108218366744e+01 +2.4674389369099262e+02 +4.6525846349789354e+04 -6.0181347548317059e+05 -1.6273050214973193e+08 
+1.6000000000000003e+00 -1.0968311666515183e+00 +2.4472964755873625e+00 +1.8655472661649647e+01 +2.3092317972567002e+02 +4.4338597399612721e+04 -5.1483677084201324e+05 -1.5242558922697455e+08 
+1.7000000000000004e+00 -1.0968338711766503e+00 +2.4479830210916216e+00 +1.8800699840252015e+01 +2.0899425885690999e+02 +4.1685476906697440e+04 -3.9531982601702359e+05 -1.4014840810314661e+08 
+1.8000000000000005e+00 -1.0968368307817538e+00 +2.4488133245670007e+00 +1.8963315706085378e+01 +1.8293993422151692e+02 +3.8746193408859792e+04 -2.5412706878415606e+05 -1.2669135996938205e+08 
+1.9000000000000006e+00 -1.0968399268152702e+00 +2.4497235618766608e+00 +1.9132845627518748e+01 +1.5474298863051808e+02 +3.5700464625976463e+04 -1.0212280804884018e+05 -1.1284688155845739e+08 
+2.0000000000000004e+00 -1.0968430406197556e+00 +2.4506499096780159e+00 +1.9298814272394544e+01 +1.2638618157512111e+02 +3.2728019338749898e+04 +4.9828781255069080e+04 -9.9407452603868544e+07 
+2.1000000000000005e+00 -1.0968460535310838e+00 +2.4515285455144471e+00 +1.9450745516012887e+01 +9.9852246849310532e+01 +3.0008598763734677e+04 +1.9086366966021460e+05 -8.7165600819511563e+07 
+2.2000000000000006e+00 -1.0968488468775048e+00 +2.4522956478977425e+00 +1.9578162330843583e+01 +7.7123890458876659e+01 +2.7721958288451129e+04 +3.1011798295083822e+05 -7.6913908635565951e+07 
+2.3000000000000007e+00 -1.0968513019788646e+00 +2.4528873964211217e+00 +1.9670586697838711e+01 +6.0183787614962206e+01 +2.6047868780033950e+04 +3.9672801732538379e+05 -6.9445017860476613e+07 
+2.4000000000000008e+00 -1.0968533001455145e+00 +2.4532399718204760e+00 +1.9717539476778050e+01 +5.1014581294661674e+01 +2.5166118685751946e+04 +4.3983024532069196e+05 -6.5551638139532655e+07 
+2.5000000000000009e+00 -1.0968547226777992e+00 +2.4532895561782397e+00 +1.9708540363211423e+01 +5.1598875685425497e+01 +2.5256514269668678e+04 +4.2856135066005168e+05 -6.6026546168797910e+07 
+2.6000000000000010e+00 -1.0968554895066918e+00 +2.4529952650719080e+00 +1.9637025699931602e+01 +6.3194720320526379e+01 +2.6428535502701958e+04 +3.5607135163337929e+05 -7.1341543945431441e+07 
+2.7000000000000011e+00 -1.0968556781587482e+00 +2.4524066072487622e+00 +1.9511827181590029e+01 +8.4196610032608973e+01 +2.8523908947010532e+04 +2.3138640801210128e+05 -8.0764920350292340e+07 
+2.8000000000000012e+00 -1.0968554064042786e+00 +2.4515953996735149e+00 +1.9345570840031947e+01 +1.1228991723784132e+02 +3.1320529694099179e+04 +6.7467879288849101e+04 -9.3282781225816920e+07 
+2.9000000000000012e+00 -1.0968547920231535e+00 +2.4506334572652402e+00 +1.9150883886687097e+01 +1.4516008471707082e+02 +3.4596273665924535e+04 -1.2272335432910317e+05 -1.0788115552080719e+08 
+3.0000000000000013e+00 -1.0968539528056933e+00 +2.4495925926936075e+00 +1.8940394820852614e+01 +1.8049263328955905e+02 +3.8128995831810920e+04 -3.2622694167876395e+05 -1.2354598838254990e+08 
+3.1000000000000014e+00 -1.0968530065536923e+00 +2.4485446161599844e+00 +1.8726733555205804e+01 +2.1597316922678149e+02 +4.1696528178516615e+04 -5.3008310990913305e+05 -1.3926313308684823e+08 
+3.2000000000000015e+00 -1.0968520710816045e+00 +2.4475613351816143e+00 +1.8522531562963458e+01 +2.4928739156113437e+02 +4.5076677270789827e+04 -7.2133271311094949e+05 -1.5401834104311472e+08 
+3.3000000000000016e+00 -1.0968512642174209e+00 +2.4467145543624111e+00 +1.8340421983949195e+01 +2.7812109984149095e+02 +4.8047222599479428e+04 -8.8701728369766369e+05 -1.6679725554865548e+08 
+3.4000000000000017e+00 -1.0968507038038438e+00 +2.4460760752178952e+00 +1.8193039770231803e+01 +3.0016020024408766e+02 +5.0385914168095216e+04 -1.0141790740418354e+06 -1.7658540190457329e+08 
+3.5000000000000018e+00 -1.0968505076987907e+00 +2.4457176956251874e+00 +1.8093021707884631e+01 +3.1309072535605304e+02 +5.1870473081454074e+04 -1.0898611800333357e+06 -1.8236819342681628e+08 
+3.6000000000000019e+00 -1.0968507638692566e+00 +2.4456895014065427e+00 +1.8049077799783831e+01 +3.1529634430889803e+02 +5.2352413278342065e+04 -1.1050146121997794e+06 -1.8348372396764186e+08 
+3.7000000000000020e+00 -1.0968514356875547e+00 +2.4459573202608302e+00 +1.8054426765637949e+01 +3.0788260112640285e+02 +5.1962917450258654e+04 -1.0658041095483524e+06 -1.8058465688007703e+08 
+3.8000000000000020e+00 -1.0968524539401352e+00 +2.4464664853089872e+00 +1.8098436535549816e+01 +2.9262175558234117e+02 +5.0899890255341881e+04 -9.8211237472210370e+05 -1.7463182469225299e+08 
+3.9000000000000021e+00 -1.0968537494049231e+00 +2.4471623328662560e+00 +1.8170474062063743e+01 +2.7128594804598873e+02 +4.9361249917546818e+04 -8.6382122626342997e+05 -1.6658610332824004e+08 
+4.0000000000000018e+00 -1.0968552528508599e+00 +2.4479902026295508e+00 +1.8259905273571018e+01 +2.4564719054903600e+02 +4.7544928927900808e+04 -7.2081154095177841e+05 -1.5740841343660572e+08 
+4.1000000000000014e+00 -1.0968568950372313e+00 +2.4488954379340862e+00 +1.8356094996373304e+01 +2.1747735724784908e+02 +4.5648875163692937e+04 -5.6296318497661478e+05 -1.4805972409131449e+08 
+4.2000000000000011e+00 -1.0968586067129065e+00 +2.4498233860103609e+00 +1.8448406866291908e+01 +1.8854817491186421e+02 +4.3871053193822438e+04 -4.0015494538314897e+05 -1.3950105733690861e+08 
+4.3000000000000007e+00 -1.0968603186156705e+00 +2.4507193982062763e+00 +1.8526203249865127e+01 +1.6063121434549103e+02 +4.2409445419088443e+04 -2.4226446669443845e+05 -1.3269349199851494e+08 
+4.4000000000000004e+00 -1.0968619614715438e+00 +2.4515288302491669e+00 +1.8578845166447898e+01 +1.3549788075648428e+02 +4.1462053178887938e+04 -9.9168181728514028e+04 -1.2859816728702979e+08 
+4.5000000000000000e+00 -1.0968634659950081e+00 +2.4521970430046385e+00 +1.8595692387683961e+01 +1.1491938478169742e+02 +4.1226893424696886e+04 +1.9258884061545508e+04 -1.2817626183393639e+08 
+4.5999999999999996e+00 -1.0968647756328986e+00 +2.4526810100340830e+00 +1.8569008206986087e+01 +1.0028191039344811e+02 +4.1842247543106991e+04 +1.0528971959946099e+05 -1.3208099048162605e+08 
+4.6999999999999993e+00 -1.0968658877203934e+00 +2.4529804713541123e+00 +1.8502467087808615e+01 +9.1539350221024819e+01 +4.3219709298227128e+04 +1.5904754779023994e+05 -1.3980649208674872e+08 
+4.7999999999999989e+00 -1.0968668140316717e+00 +2.4531050058040953e+00 +1.8402589944114332e+01 +8.8311462179145835e+01 +4.5216262438387341e+04 +1.8244805743111498e+05 -1.5056966740941730e+08 
+4.8999999999999986e+00 -1.0968675663383145e+00 +2.4530641895198011e+00 +1.8275897202773603e+01 +9.0218121825644161e+01 +4.7688905047433589e+04 +1.7740595834242651e+05 -1.6358750499038649e+08 
+4.9999999999999982e+00 -1.0968681564087639e+00 +2.4528675959283257e+00 +1.8128908705794935e+01 +9.6879324440526048e+01 +5.0494651792352059e+04 +1.4583498290170523e+05 -1.7807709593627891e+08 
+5.0999999999999979e+00 -1.0968685960082452e+00 +2.4525247956091016e+00 +1.7968143688104060e+01 +1.0791519131684363e+02 +5.3490534668377404e+04 +8.9647833906032203e+04 -1.9325563884764862e+08 
+5.1999999999999975e+00 -1.0968688968986724e+00 +2.4520453561004341e+00 +1.7800120755111880e+01 +1.2294597771200601e+02 +5.6533603746301727e+04 +1.0756122582863225e+04 -2.0834044476549882e+08 
+5.2999999999999972e+00 -1.0968690708384985e+00 +2.4514388417610475e+00 +1.7631357853917159e+01 +1.4159207912379196e+02 +5.9480928029909330e+04 -8.8929683450933837e+04 -2.2254894260729080e+08 
+5.3999999999999968e+00 -1.0968691295827055e+00 +2.4507148135941303e+00 +1.7468372260670346e+01 +1.6347403872367056e+02 +6.2189596024339335e+04 -2.0750031914621819e+05 -2.3509868328045872e+08 
+5.4999999999999964e+00 -1.0968690848814013e+00 +2.4498828286880854e+00 +1.7317680347109665e+01 +1.8821256986662377e+02 +6.4516721288598863e+04 -3.4304789357946510e+05 -2.4520737134263915e+08 
+5.5999999999999961e+00 -1.0968689641364793e+00 +2.4489582645305585e+00 +1.7185320747358922e+01 +2.1529107170311906e+02 +6.6340378613245266e+04 -4.9288627246122371e+05 -2.5223669933192289e+08 
+5.6999999999999957e+00 -1.0968688596364689e+00 +2.4479835344721899e+00 +1.7075314442469615e+01 +2.4351499449058733e+02 +6.7626423626286138e+04 -6.5026994875162374e+05 -2.5615318370070642e+08 
+5.7999999999999954e+00 -1.0968688803532078e+00 +2.4470088002648995e+00 +1.6991119628807059e+01 +2.7148621692361365e+02 +6.8364512498589858e+04 -8.0718616179065336e+05 -2.5708741971227291e+08 
+5.8999999999999950e+00 -1.0968691352795243e+00 +2.4460842231768312e+00 +1.6936197119105760e+01 +2.9780657950578581e+02 +6.8544252548620934e+04 -9.5562159599901154e+05 -2.5516977694721669e+08 
+5.9999999999999947e+00 -1.0968697334304758e+00 +2.4452599634554448e+00 +1.6914010560886723e+01 +3.2107790629206107e+02 +6.8155196814662457e+04 -1.0875625577872710e+06 -2.5053036554496658e+08 
+6.0999999999999943e+00 -1.0968707838440888e+00 +2.4445861802836628e+00 +1.6928026533475759e+01 +3.3990200408916814e+02 +6.7186842161618522e+04 -1.1949949578705591e+06 -2.4329902701786759e+08 
+6.1999999999999940e+00 -1.0968723955825046e+00 +2.4441130317529423e+00 +1.6981714694593133e+01 +3.5288066114337596e+02 +6.5628626449586867e+04 -1.2699042905855693e+06 -2.3360532060832617e+08 
+6.2999999999999936e+00 -1.0968746777327831e+00 +2.4438906748496683e+00 +1.7078547884158802e+01 +3.5861564541545062e+02 +6.3469926512146369e+04 -1.3042756107141771e+06 -2.2157851348756593e+08 
+6.3999999999999932e+00 -1.0968777394079456e+00 +2.4439692653912024e+00 +1.7222002258269409e+01 +3.5570870435449297e+02 +6.0700055570349061e+04 -1.2900935191281319e+06 -2.0734756829807609e+08 
+6.4999999999999929e+00 -1.0968816897478044e+00 +2.4443989572942253e+00 +1.7415557290108559e+01 +3.4276159004582559e+02 +5.7308264715598540e+04 -1.2193422887036244e+06 -1.9104115279064587e+08 
+6.5999999999999925e+00 -1.0968865794503737e+00 +2.4452066443819476e+00 +1.7659148638236616e+01 +3.1903026711712124e+02 +5.3333313714196171e+04 -1.0876649116566272e+06 -1.7297430307135382e+08 
+6.6999999999999922e+00 -1.0968922191071813e+00 +2.4463247997788686e+00 +1.7939527704506052e+01 +2.8645658848585981e+02 +4.8976750040248909e+04 -9.0589624900279276e+05 -1.5399692758893177e+08 
+6.7999999999999918e+00 -1.0968983574520426e+00 +2.4476616418704285e+00 +1.8240372946828810e+01 +2.4768300976836693e+02 +4.4472242701633928e+04 -6.8888387026360398e+05 -1.3503994311138570e+08 
+6.8999999999999915e+00 -1.0969047431815595e+00 +2.4491253935917867e+00 +1.8545358491984441e+01 +2.0535191188708623e+02 +4.0053532997306225e+04 -4.5147513598224684e+05 -1.1703456765873770e+08 
+6.9999999999999911e+00 -1.0969111249544388e+00 +2.4506242835788088e+00 +1.8838153941196165e+01 +1.6210554953383451e+02 +3.5954441028881556e+04 -2.0851683385166607e+05 -1.0091236215568857e+08 
+7.0999999999999908e+00 -1.0969172513901064e+00 +2.4520665463812694e+00 +1.9102424203453783e+01 +1.2058604649728335e+02 +3.2408868602372029e+04 +2.5144841894392841e+04 -8.7605243044706091e+07 
+7.1999999999999904e+00 -1.0969228710671752e+00 +2.4533604226815449e+00 +1.9321829313050245e+01 +8.3435390889186891e+01 +2.9650802428694104e+04 +2.3466431150902703e+05 -7.8045496329761341e+07 
+7.2999999999999901e+00 -1.0969277325220972e+00 +2.4544141595037088e+00 +1.9480024267430810e+01 +5.3295430625012017e+01 +2.7914316942445250e+04 +4.0519662938039174e+05 -7.3165789801647082e+07 
+7.3999999999999897e+00 -1.0969315842476841e+00 +2.4551360104276636e+00 +1.9560658850442916e+01 +3.2807868774845140e+01 +2.7433577394485852e+04 +5.2189750434845459e+05 -7.3899186560753971e+07 
+7.4999999999999893e+00 -1.0969341746950081e+00 +2.4554342388791515e+00 +1.9547378285934172e+01 +2.4614141400206151e+01 +2.8442820781367009e+04 +5.6992407072755543e+05 -8.1179033571455330e+07 
+7.5999999999999890e+00 -1.0969353355053819e+00 +2.4552488260413630e+00 +1.9430574570228124e+01 +3.0438838728198437e+01 +3.1062948134642727e+04 +5.3957080320190918e+05 -9.5425449960625231e+07 
+7.6999999999999886e+00 -1.0969352389163474e+00 +2.4546429864616588e+00 +1.9225831999769259e+01 +4.8430786789874155e+01 +3.5023139846490390e+04 +4.4110655499944219e+05 -1.1536489849321523e+08 
+7.7999999999999883e+00 -1.0969341450409098e+00 +2.4537103825838980e+00 +1.8954706580719936e+01 +7.5846404189548906e+01 +3.9967599789583161e+04 +2.8977925277519162e+05 -1.3937772986364514e+08 
+7.8999999999999879e+00 -1.0969323140324014e+00 +2.4525446699727591e+00 +1.8638758849544541e+01 +1.0994227957138926e+02 +4.5540462083892395e+04 +1.0083572928036188e+05 -1.6584402386376554e+08 
+7.9999999999999876e+00 -1.0969300060836198e+00 +2.4512394963051785e+00 +1.8299553855007172e+01 +1.4797522360050931e+02 +5.1385788152986730e+04 -1.1047857362813788e+05 -1.9314357105704153e+08 
+8.0999999999999872e+00 -1.0969274814282615e+00 +2.4498885010967864e+00 +1.7958661325260319e+01 +1.8720227660542096e+02 +5.7147563977070648e+04 -3.2891965223869332e+05 -2.1965586159040362e+08 
+8.1999999999999869e+00 -1.0969250003421205e+00 +2.4485853154398649e+00 +1.7637655802577164e+01 +2.2488071585731302e+02 +6.2469697972755130e+04 -5.3924498609895492e+05 -2.4376007701532272e+08 
+8.2999999999999865e+00 -1.0969228231445218e+00 +2.4474235617338005e+00 +1.7358116807702260e+01 +2.5826806310174879e+02 +6.6996018312833898e+04 -7.2621358464947587e+05 -2.6383507945564789e+08 
+8.3999999999999861e+00 -1.0969212101995978e+00 +2.4464968534284113e+00 +1.7141628985803994e+01 +2.8462209171311190e+02 +7.0370270587337494e+04 -8.7458603168094740e+05 -2.7825940238014108e+08 
+8.4999999999999858e+00 -1.0969204219099375e+00 +2.4458987892726571e+00 +1.7009780597311966e+01 +3.0120104467692255e+02 +7.2236158099004140e+04 -9.6912593046743318e+05 -2.8541148320136338e+08 
+8.5999999999999854e+00 -1.0969206527011541e+00 +2.4456951955781552e+00 +1.6977402299320769e+01 +3.0608572113217764e+02 +7.2361354617316494e+04 -9.9922207700957463e+05 -2.8427081846899146e+08 
+8.6999999999999851e+00 -1.0969218270248868e+00 +2.4458491180915498e+00 +1.7034245477619656e+01 +3.0039858938096057e+02 +7.0943655403711411e+04 -9.7102956458323169e+05 -2.7584428909195542e+08 
+8.7999999999999847e+00 -1.0969237991458201e+00 +2.4462993861926843e+00 +1.7164068441811029e+01 +2.8598374401968579e+02 +6.8276567094765574e+04 -8.9459532510652824e+05 -2.6157714039681759e+08 
+8.8999999999999844e+00 -1.0969264233033731e+00 +2.4469848361415680e+00 +1.7350626883443010e+01 +2.6468506100828324e+02 +6.4653628208040107e+04 -7.7996448894049646e+05 -2.4291471422401565e+08 
+8.9999999999999840e+00 -1.0969295537146204e+00 +2.4478443108761354e+00 +1.7577674281012300e+01 +2.3834619322938883e+02 +6.0368402788406675e+04 -6.3718054364334908e+05 -2.2130240324400508e+08 
+9.0999999999999837e+00 -1.0969330445736565e+00 +2.4488166602079802e+00 +1.7828961839995134e+01 +2.0881056399632851e+02 +5.5714481039220133e+04 -4.7628528627774387e+05 -1.9818565180843997e+08 
+9.1999999999999833e+00 -1.0969367500508680e+00 +2.4498407410343290e+00 +1.8088238418148130e+01 +1.7792136004716335e+02 +5.0985480254809409e+04 -3.0731877264557208e+05 -1.7500995828793642e+08 
+9.2999999999999829e+00 -1.0969405242922396e+00 +2.4508554175250485e+00 +1.8339250456924773e+01 +1.4752152529210602e+02 +4.6475045620722638e+04 -1.4031927095476910e+05 -1.5322087673722443e+08 
+9.3999999999999826e+00 -1.0969442214187350e+00 +2.4517995613469568e+00 +1.8565741921759116e+01 +1.1945375344047241e+02 +4.2476850851529649e+04 +1.4676791093622076e+04 -1.3426401780065688e+08 
+9.4999999999999822e+00 -1.0969476955355904e+00 +2.4526120576447084e+00 +1.8751456207084388e+01 +9.5560259649278052e+01 +3.9284549956502480e+04 +1.4763639741699089e+05 -1.1958477230448934e+08 
+9.5999999999999819e+00 -1.0969508288129022e+00 +2.4532458746581867e+00 +1.8884313905102175e+01 +7.7247910342310604e+01 +3.7108595863525516e+04 +2.5097317061444928e+05 -1.1019863115267466e+08 
+9.6999999999999815e+00 -1.0969536161645443e+00 +2.4537013113127522e+00 +1.8967494824631313e+01 +6.4462771663530660e+01 +3.5872113512684031e+04 +3.2481446910660341e+05 -1.0565038668890439e+08 
+9.7999999999999812e+00 -1.0969560818514419e+00 +2.4539886240642521e+00 +1.9007836250897778e+01 +5.6841456012774060e+01 +3.5433035315574045e+04 +3.7076824777632690e+05 -1.0515127391796578e+08 
+9.8999999999999808e+00 -1.0969582501305040e+00 +2.4541180646084397e+00 +1.9012174579355630e+01 +5.4020774426484905e+01 +3.5649322486606965e+04 +3.9044048251209100e+05 -1.0791268214589687e+08 
+9.9999999999999805e+00 -1.0969601452516355e+00 +2.4540998815318309e+00 +1.8987344753105148e+01 +5.5637670899990489e+01 +3.6378978028466845e+04 +3.8543596056304238e+05 -1.1314625753446350e+08 
+1.0099999999999980e+01 -1.0969617914577172e+00 +2.4539443202272189e+00 +1.8940180242580588e+01 +6.1329225934807695e+01 +3.7480047518769527e+04 +3.5735824900787522e+05 -1.2006390847289221e+08 
