# multipoles
# s[mm] polynom_b[n=0][T/m^n] polynom_b[n=1][T/m^n] polynom_b[n=2][T/m^n] polynom_b[n=3][T/m^n] polynom_b[n=4][T/m^n] polynom_b[n=5][T/m^n] polynom_b[n=6][T/m^n] 
+0.0000000000000000e+00 -1.0325545699219878e+00 +2.2759878621456706e+00 +2.1029552161529882e+01 +5.7128397782619527e+02 -9.1215717441453398e+03 -3.2382052185405423e+06 +6.2158028565908603e+07 
+1.0000000000000001e-01 -1.0325542424203356e+00 +2.2760025766204599e+00 +2.1010313643356398e+01 +5.7765535347577736e+02 -8.1478939607026023e+03 -3.2933879246735936e+06 +5.5791629655486040e+07 
+2.0000000000000001e-01 -1.0325539556346863e+00 +2.2760481867983047e+00 +2.0994233522087946e+01 +5.8339364289734613e+02 -7.2763849683799081e+03 -3.3454566501066345e+06 +5.0029384255552009e+07 
+3.0000000000000004e-01 -1.0325537159404030e+00 +2.2761221811996588e+00 +2.0981733317146354e+01 +5.8854913050492007e+02 -6.5194538891656903e+03 -3.3946469539168878e+06 +4.4945503919323228e+07 
+4.0000000000000002e-01 -1.0325535297129920e+00 +2.2762220483926274e+00 +2.0973234559983528e+01 +5.9317209995615724e+02 -5.8895100542221762e+03 -3.4411943942847052e+06 +4.0614201217337012e+07 
+5.0000000000000000e-01 -1.0325534033282193e+00 +2.2763452769953840e+00 +2.0969158812181981e+01 +5.9731283419890406e+02 -5.3989633792188088e+03 -3.4853345296564279e+06 +3.7109691631384619e+07 
+5.9999999999999998e-01 -1.0325533413345296e+00 +2.2764895478419884e+00 +2.0969813556752168e+01 +6.0101711047438778e+02 -5.0568905991899837e+03 -3.5272786453496865e+06 +3.4486643056769721e+07 
+6.9999999999999996e-01 -1.0325533409851568e+00 +2.2766533311535007e+00 +2.0975050765507635e+01 +6.0431144474224118e+02 -4.8590474786080986e+03 -3.5671326247972725e+06 +3.2721576727746300e+07 
+7.9999999999999993e-01 -1.0325533977133294e+00 +2.2768352997002785e+00 +2.0984608757846939e+01 +6.0721722702264560e+02 -4.7978626404119150e+03 -3.6049739241135167e+06 +3.1771488148397185e+07 
+8.9999999999999991e-01 -1.0325535069523335e+00 +2.2770341262866247e+00 +2.0998225859298771e+01 +6.0975584691342397e+02 -4.8657648265352482e+03 -3.6408800004509804e+06 +3.1593373399215613e+07 
+9.9999999999999989e-01 -1.0325536641356434e+00 +2.2772484837481088e+00 +2.1015640418711122e+01 +6.1194869361083863e+02 -5.0551832281132929e+03 -3.6749283118553488e+06 +3.2144230697288089e+07 
+1.0999999999999999e+00 -1.0325538646967534e+00 +2.2774770449424602e+00 +2.1036590787698945e+01 +6.1381715614750442e+02 -5.3585470921258384e+03 -3.7071963184730075e+06 +3.3381058493228730e+07 
+1.2000000000000000e+00 -1.0325541040692627e+00 +2.2777184827529142e+00 +2.1060815331603010e+01 +6.1538262322334003e+02 -5.7682859286767134e+03 -3.7377614812673512e+06 +3.5260856430815928e+07 
+1.3000000000000000e+00 -1.0325543776867578e+00 +2.2779714700786537e+00 +2.1088052414981885e+01 +6.1666648344499981e+02 -6.2768292305310642e+03 -3.7667012632106845e+06 +3.7740623978172645e+07 
+1.4000000000000001e+00 -1.0325546809828909e+00 +2.2782346798384014e+00 +2.1118040412874912e+01 +6.1769012517397175e+02 -6.8766066942301368e+03 -3.7940931281526661e+06 +4.0777361473483816e+07 
+1.5000000000000002e+00 -1.0325550093912763e+00 +2.2785067849524432e+00 +2.1150517697634960e+01 +6.1847493699091683e+02 -7.5600479615908744e+03 -3.8200145432739337e+06 +4.4328068850081846e+07 
+1.6000000000000003e+00 -1.0325553583454821e+00 +2.2787864583574655e+00 +2.1185222638726273e+01 +6.1904230722933869e+02 -8.3195826186269933e+03 -3.8445429761620830e+06 +4.8349745616308764e+07 
+1.7000000000000004e+00 -1.0325557232790585e+00 +2.2790723729832161e+00 +2.1221893606867958e+01 +6.1941362458659319e+02 -9.1476402737284643e+03 -3.8677558980836938e+06 +5.2799391202537268e+07 
+1.8000000000000005e+00 -1.0325560996254384e+00 +2.2793632017644643e+00 +2.1260268961252866e+01 +6.1961027775376806e+02 -1.0036650307234886e+04 -3.8897307816741555e+06 +5.7634003725273438e+07 
+1.9000000000000006e+00 -1.0325564828179910e+00 +2.2796576176315284e+00 +2.1300087058435583e+01 +6.1965365561085855e+02 -1.0979042051114791e+04 -3.9105451017322512e+06 +6.2810580848088130e+07 
+2.0000000000000004e+00 -1.0325568682899271e+00 +2.2799542935007189e+00 +2.1341086239460232e+01 +6.1956514748951543e+02 -1.1967244530443391e+04 -3.9302763366200421e+06 +6.8286118490139276e+07 
+2.1000000000000005e+00 -1.0325572514743324e+00 +2.2802519022812713e+00 +2.1383004835220039e+01 +6.1936614288039868e+02 -1.2993686572391691e+04 -3.9490019661967242e+06 +7.4017611342267171e+07 
+2.2000000000000006e+00 -1.0325576278041018e+00 +2.2805491168593885e+00 +2.1425581159029800e+01 +6.1907803189024025e+02 -1.4050796664087575e+04 -3.9667994743673950e+06 +7.9962052163563013e+07 
+2.3000000000000007e+00 -1.0325579927119946e+00 +2.2808446101055089e+00 +2.1468553513399922e+01 +6.1872220496232092e+02 -1.5131003074448896e+04 -3.9837463471531076e+06 +8.6076432318767712e+07 
+2.4000000000000008e+00 -1.0325583416304565e+00 +2.2811370548649865e+00 +2.1511660168829494e+01 +6.1832005308992643e+02 -1.6226733457230992e+04 -3.9999200736824716e+06 +9.2317739885365993e+07 
+2.5000000000000009e+00 -1.0325586699917797e+00 +2.2814251239517249e+00 +2.1554639384192825e+01 +6.1789296796448139e+02 -1.7330415233542699e+04 -4.0153981469707401e+06 +9.8642961421439812e+07 
+2.6000000000000010e+00 -1.0325589737436858e+00 +2.2817078423300536e+00 +2.1597251217585612e+01 +6.1745470939588358e+02 -1.8435216670316793e+04 -4.0302249895991078e+06 +1.0501316083064844e+08 
+2.7000000000000011e+00 -1.0325592508625161e+00 +2.2819856276574901e+00 +2.1639327348446503e+01 +6.1698983104004367e+02 -1.9536942394454789e+04 -4.0443198874631291e+06 +1.1140424161906828e+08 
+2.8000000000000012e+00 -1.0325594998221375e+00 +2.2822592424590393e+00 +2.1680713318519476e+01 +6.1647590024948170e+02 -2.0631973282833616e+04 -4.0575725809083413e+06 +1.1779544543682396e+08 
+2.9000000000000012e+00 -1.0325597190965663e+00 +2.2825294492539365e+00 +2.1721254693736164e+01 +6.1589048451363612e+02 -2.1716690689891617e+04 -4.0698728102947595e+06 +1.2416601621384557e+08 
+3.0000000000000013e+00 -1.0325599071599836e+00 +2.2827970105709863e+00 +2.1760797066679995e+01 +6.1521115094956087e+02 -2.2787476494835006e+04 -4.0811103127508597e+06 +1.3049520039953893e+08 
+3.1000000000000014e+00 -1.0325600624867137e+00 +2.2830626889398782e+00 +2.1799186054235765e+01 +6.1441546656992898e+02 -2.3840713060481798e+04 -4.0911748236354268e+06 +1.3676224678822732e+08 
+3.2000000000000015e+00 -1.0325601835513802e+00 +2.2833272468855412e+00 +2.1836267317816528e+01 +6.1348099840679015e+02 -2.4872783623643863e+04 -4.0999560769889895e+06 +1.4294640840434042e+08 
+3.3000000000000016e+00 -1.0325602688286819e+00 +2.2835914469395617e+00 +2.1871886534385382e+01 +6.1238531317358638e+02 -2.5880071736915368e+04 -4.1073438034131327e+06 +1.4902693983912963e+08 
+3.4000000000000017e+00 -1.0325603167936406e+00 +2.2838560516347051e+00 +2.1905889428904477e+01 +6.1110597738660374e+02 -2.6858961895684297e+04 -4.1132277305172114e+06 +1.5498310027142784e+08 
+3.5000000000000018e+00 -1.0325603259214828e+00 +2.2841218235019798e+00 +2.1938121759053448e+01 +6.0962055746691590e+02 -2.7805839245371386e+04 -4.1174975834204047e+06 +1.6079415208298659e+08 
+3.6000000000000019e+00 -1.0325602946877150e+00 +2.2843895250793054e+00 +2.1968429324727730e+01 +6.0790661942087070e+02 -2.8717089762284133e+04 -4.1200430825524400e+06 +1.6643936172995508e+08 
+3.7000000000000020e+00 -1.0325602215681131e+00 +2.2846599189000512e+00 +2.1996657967611458e+01 +6.0594172920497499e+02 -2.9589100252965709e+04 -4.1207539457187904e+06 +1.7189799977322719e+08 
+3.8000000000000020e+00 -1.0325601050387490e+00 +2.2849337674965331e+00 +2.2022653573973809e+01 +6.0370345256561598e+02 -3.0418258402444517e+04 -4.1195198868620005e+06 +1.7714934110477102e+08 
+3.9000000000000021e+00 -1.0325599435759938e+00 +2.2852118334114415e+00 +2.2046262075831894e+01 +6.0116935470182716e+02 -3.1200952802965578e+04 -4.1162306139346920e+06 +1.8217266511584035e+08 
+4.0000000000000018e+00 -1.0325597356565708e+00 +2.2854948791796228e+00 +2.2067329457691251e+01 +5.9831700078785639e+02 -3.1933573081650702e+04 -4.1107758317779605e+06 +1.8694725631375912e+08 
+4.1000000000000014e+00 -1.0325594797575324e+00 +2.2857836673392966e+00 +2.2085701753564901e+01 +5.9512395561843243e+02 -3.2612509846147106e+04 -4.1030452398341489e+06 +1.9145240408288860e+08 
+4.2000000000000011e+00 -1.0325591743563027e+00 +2.2860789604294092e+00 +2.2101225052693955e+01 +5.9156778365446280e+02 -3.3234154794903567e+04 -4.0929285321766911e+06 +1.9566740322435006e+08 
+4.3000000000000007e+00 -1.0325588179306640e+00 +2.2863815209909548e+00 +2.2113745498423228e+01 +5.8762604898727420e+02 -3.3794900699402409e+04 -4.0803153971539130e+06 +1.9957155389398724e+08 
+4.4000000000000004e+00 -1.0325584089588296e+00 +2.2866921115634540e+00 +2.2123109296793874e+01 +5.8327631541042126e+02 -3.4291141564136684e+04 -4.0650955175993331e+06 +2.0314416236429524e+08 
+4.5000000000000000e+00 -1.0325579459193837e+00 +2.2870114946823374e+00 +2.2129162709935841e+01 +5.7849614646873283e+02 -3.4719272508767266e+04 -4.0471585703209024e+06 +2.0636454054879680e+08 
+4.5999999999999996e+00 -1.0325574282857819e+00 +2.2873401313658492e+00 +2.2131784941205876e+01 +5.7327125057613102e+02 -3.5076021130830115e+04 -4.0264340670425543e+06 +2.0921340683532387e+08 
+4.6999999999999993e+00 -1.0325568595829953e+00 +2.2876773056788755e+00 +2.2131013754580252e+01 +5.6761952224244203e+02 -3.5360102656271825e+04 -4.0030119250207008e+06 +2.1168035644330612e+08 
+4.7999999999999989e+00 -1.0325562443715000e+00 +2.2880220118882737e+00 +2.2126933833731353e+01 +5.6156689543621405e+02 -3.5570906308663340e+04 -3.9770228661110015e+06 +2.1375808931061569e+08 
+4.8999999999999986e+00 -1.0325555872116166e+00 +2.2883732441830760e+00 +2.2119629853070911e+01 +5.5513930527460207e+02 -3.5707821223145285e+04 -3.9485976142410492e+06 +2.1543930510297382e+08 
+4.9999999999999982e+00 -1.0325548926635164e+00 +2.2887299966851122e+00 +2.2109186478943283e+01 +5.4836268757791549e+02 -3.5770236463943824e+04 -3.9178668925130786e+06 +2.1671670328148046e+08 
+5.0999999999999979e+00 -1.0325541652871353e+00 +2.2890912634385927e+00 +2.2095688357699942e+01 +5.4126297912946268e+02 -3.5757540791693362e+04 -3.8849614245512751e+06 +2.1758298197733361e+08 
+5.1999999999999975e+00 -1.0325534096421982e+00 +2.2894560384132698e+00 +2.2079220119364418e+01 +5.3386611751631801e+02 -3.5669122739425125e+04 -3.8500119333530017e+06 +2.1803083836911049e+08 
+5.2999999999999972e+00 -1.0325526302882007e+00 +2.2898233154980447e+00 +2.2059866375549067e+01 +5.2619804124673840e+02 -3.5504370573372493e+04 -3.8131491417375156e+06 +2.1805296849083534e+08 
+5.3999999999999968e+00 -1.0325518317843891e+00 +2.2901920884917519e+00 +2.2037711717196096e+01 +5.1828468999976872e+02 -3.5262672255615333e+04 -3.7745037737162719e+06 +2.1764206707194591e+08 
+5.4999999999999964e+00 -1.0325510186897124e+00 +2.2905613511146470e+00 +2.2012840708866658e+01 +5.1015200419158151e+02 -3.4943415338801933e+04 -3.7342065516559505e+06 +2.1679082704020518e+08 
+5.5999999999999961e+00 -1.0325501955628702e+00 +2.2909300969922990e+00 +2.1985337894263250e+01 +5.0182592541293326e+02 -3.4545987067930444e+04 -3.6923881986932661e+06 +2.1549193999382922e+08 
+5.6999999999999957e+00 -1.0325493669622750e+00 +2.2912973196517292e+00 +2.1955287792550681e+01 +4.9333239647718017e+02 -3.4069774322192621e+04 -3.6491794387992811e+06 +2.1373809595744213e+08 
+5.7999999999999954e+00 -1.0325485374459864e+00 +2.2916620125266998e+00 +2.1922774889887389e+01 +4.8469736120505411e+02 -3.3514163449050757e+04 -3.6047109953207425e+06 +2.1152198257369527e+08 
+5.8999999999999950e+00 -1.0325477115717625e+00 +2.2920231689500343e+00 +2.1887883646241225e+01 +4.7594676460120803e+02 -3.2878540402847910e+04 -3.5591135918407650e+06 +2.0883628578629649e+08 
+5.9999999999999947e+00 -1.0325468938970122e+00 +2.2923797821440663e+00 +2.1850698488799289e+01 +4.6710655306928442e+02 -3.2162290614979116e+04 -3.5125179532092148e+06 +2.0567368920781946e+08 
+6.0999999999999943e+00 -1.0325460889787741e+00 +2.2927308452327422e+00 +2.1811303810806784e+01 +4.5820267400713283e+02 -3.1364798981291813e+04 -3.4650548030185965e+06 +2.0202687408166596e+08 
+6.1999999999999940e+00 -1.0325453013737100e+00 +2.2930753512163031e+00 +2.1769783970015908e+01 +4.4926107648041028e+02 -3.0485449834120809e+04 -3.4168548672910416e+06 +1.9788851915276283e+08 
+6.2999999999999936e+00 -1.0325445356380858e+00 +2.2934122929897085e+00 +2.1726223286672351e+01 +4.4030771062611979e+02 -2.9523626901512311e+04 -3.3680488708129660e+06 +1.9325130046013254e+08 
+6.3999999999999932e+00 -1.0325437963277588e+00 +2.2937406633270321e+00 +2.1680706042245028e+01 +4.3136852806714836e+02 -2.8478713293517692e+04 -3.3187675394038907e+06 +1.8810789130312702e+08 
+6.4999999999999929e+00 -1.0325430879982065e+00 +2.2940594549016771e+00 +2.1633316487007104e+01 +4.2246948100412476e+02 -2.7350091707095664e+04 -3.2691415950016812e+06 +1.8245096328835961e+08 
+6.5999999999999925e+00 -1.0325424138905563e+00 +2.2943678961505882e+00 +2.1584148398332971e+01 +4.1363184450227357e+02 -2.6138474637468960e+04 -3.2192822993531786e+06 +1.7628190187736273e+08 
+6.6999999999999922e+00 -1.0325417721014389e+00 +2.2946658677778613e+00 +2.1533333663854588e+01 +4.0486877820580105e+02 -2.4849950134424133e+04 -3.1692846720343437e+06 +1.6963761714044470e+08 
+6.7999999999999918e+00 -1.0325411594713809e+00 +2.2949533397486359e+00 +2.1481015405738880e+01 +3.9619414838901105e+02 -2.3492022511218573e+04 -3.1192557845787299e+06 +1.6256440426035067e+08 
+6.8999999999999915e+00 -1.0325405728409802e+00 +2.2952302820862744e+00 +2.1427336760051869e+01 +3.8762182317565532e+02 -2.2072196648333484e+04 -3.0693027318649543e+06 +1.5510856253869438e+08 
+6.9999999999999911e+00 -1.0325400090508523e+00 +2.2954966649325161e+00 +2.1372440866137030e+01 +3.7916567024234223e+02 -2.0597977686756723e+04 -3.0195326181267803e+06 +1.4731639366698891e+08 
+7.0999999999999908e+00 -1.0325394649415998e+00 +2.2957524585431104e+00 +2.1316470861997679e+01 +3.7083955710223893e+02 -1.9076870942132886e+04 -2.9700525592073100e+06 +1.3923420134859994e+08 
+7.1999999999999904e+00 -1.0325389373538636e+00 +2.2959976333020253e+00 +2.1259569890476904e+01 +3.6265735079555179e+02 -1.7516382026214691e+04 -2.9209696812115842e+06 +1.3090829190854114e+08 
+7.2999999999999901e+00 -1.0325384231283261e+00 +2.2962321597175848e+00 +2.1201881099842389e+01 +3.5463291815199830e+02 -1.5924016867153299e+04 -2.8723911226100717e+06 +1.2238497444013390e+08 
+7.3999999999999897e+00 -1.0325379191056490e+00 +2.2964560084385393e+00 +2.1143547634426898e+01 +3.4678012543984732e+02 -1.4307281528350155e+04 -2.8244240326951132e+06 +1.1371055995806821e+08 
+7.4999999999999893e+00 -1.0325374221265369e+00 +2.2966691502492855e+00 +2.1084712644273722e+01 +3.3911283863755352e+02 -1.2673682405586504e+04 -2.7771755736796367e+06 +1.0493136239435488e+08 
+7.5999999999999890e+00 -1.0325369290317385e+00 +2.2968715560799109e+00 +2.1025519283047196e+01 +3.3164492327250372e+02 -1.1030726185424457e+04 -2.7307529202930499e+06 +9.6093698423302531e+07 
+7.6999999999999886e+00 -1.0325364366619776e+00 +2.2970631970120889e+00 +2.0966110700537183e+01 +3.2439024437013001e+02 -9.3859197109633151e+03 -2.6852632599909641e+06 +8.7243886864194661e+07 
+7.7999999999999883e+00 -1.0325359418580822e+00 +2.2972440442835018e+00 +2.0906630057950522e+01 +3.1736266648244725e+02 -7.7467702773202891e+03 -2.6408137937178039e+06 +7.8428250126108989e+07 
+7.8999999999999879e+00 -1.0325354414608579e+00 +2.2974140692898493e+00 +2.0847220511651685e+01 +3.1057605370830322e+02 -6.1207853248170013e+03 -2.5975117363973181e+06 +6.9693112776746869e+07 
+7.9999999999999876e+00 -1.0325349323111392e+00 +2.2975732435960405e+00 +2.0788025219870850e+01 +3.0404426954265932e+02 -4.5154725732393008e+03 -2.5554643167216484e+06 +6.1084802222687498e+07 
+8.0999999999999872e+00 -1.0325344112498311e+00 +2.2977215389403827e+00 +2.0729187347286899e+01 +2.9778117686958643e+02 -2.9383401165380906e+03 -2.5147787775815711e+06 +5.2649649205216773e+07 
+8.1999999999999869e+00 -1.0325338751178486e+00 +2.2978589272305476e+00 +2.0670850056877232e+01 +2.9180063819520046e+02 -1.3968962645928771e+03 -2.4755623779178914e+06 +4.4433987060086139e+07 
+8.2999999999999865e+00 -1.0325333207561558e+00 +2.2979853805657147e+00 +2.0613156515538833e+01 +2.8611651515207888e+02 +1.0135033500848381e+02 -2.4379223904023613e+06 +3.6484152361611463e+07 
+8.3999999999999861e+00 -1.0325327450057653e+00 +2.2981008712276449e+00 +2.0556249891986052e+01 +2.8074266887369470e+02 +1.5488907432260060e+03 -2.4019661041163425e+06 +2.8846484710349310e+07 
+8.4999999999999858e+00 -1.0325321447076898e+00 +2.2982053716472652e+00 +2.0500273346523056e+01 +2.7569296155128069e+02 +2.9382160182448165e+03 -2.3678008322711326e+06 +2.1567325344253585e+07 
+8.5999999999999854e+00 -1.0325315175084613e+00 +2.2982988064327694e+00 +2.0445344745139046e+01 +2.7098113502112750e+02 +4.2633459889300939e+03 -2.3355293844102491e+06 +1.4683727659228995e+07 
+8.6999999999999851e+00 -1.0325308639745279e+00 +2.2983812666215746e+00 +2.0391438126618414e+01 +2.6660676229600864e+02 +5.5254823059442579e+03 -2.3051595601903172e+06 +8.1897736381119173e+06 
+8.7999999999999847e+00 -1.0325301853061613e+00 +2.2984529845725774e+00 +2.0338475601501930e+01 +2.6256203630119194e+02 +6.7280390739393524e+03 -2.2766535982531388e+06 +2.0665402361438908e+06 
+8.8999999999999844e+00 -1.0325294827033675e+00 +2.2985141928322936e+00 +2.0286379223026920e+01 +2.5883914076948082e+02 +7.8744319800789635e+03 -2.2499736773158028e+06 -3.7049043897118028e+06 
+8.9999999999999840e+00 -1.0325287573660977e+00 +2.2985651239904610e+00 +2.0235071032113847e+01 +2.5543025603260023e+02 +8.9680770853669164e+03 -2.2250819494857378e+06 -9.1434944032811765e+06 
+9.0999999999999837e+00 -1.0325280104942107e+00 +2.2986060106698303e+00 +2.0184473052813019e+01 +2.5232755925900446e+02 +1.0012390913095118e+04 -2.2019405414358713e+06 -1.4268166725482574e+07 
+9.1999999999999833e+00 -1.0325272432874764e+00 +2.2986370855323539e+00 +2.0134507291198830e+01 +2.4952322417807409e+02 +1.1010790486138831e+04 -2.1805115524871890e+06 -1.9097861265054878e+07 
+9.2999999999999829e+00 -1.0325264569456156e+00 +2.2986585812791436e+00 +2.0085095741572058e+01 +2.4700942101165023e+02 +1.1966693202635553e+04 -2.1607570539670279e+06 -2.3651520319898259e+07 
+9.3999999999999826e+00 -1.0325256526682116e+00 +2.2986707306512999e+00 +2.0036160374042879e+01 +2.4477831635924008e+02 +1.2883517090629428e+04 -2.1426390882394374e+06 -2.7948089850755632e+07 
+9.4999999999999822e+00 -1.0325248316548041e+00 +2.2986737664258894e+00 +1.9987623146650233e+01 +2.4282207324305568e+02 +1.3764680577359015e+04 -2.1261196687275912e+06 -3.2006518392172318e+07 
+9.5999999999999819e+00 -1.0325239951048368e+00 +2.2986679214213943e+00 +1.9939405997897321e+01 +2.4113285086777765e+02 +1.4613602640306544e+04 -2.1111607782328706e+06 -3.5845757803343393e+07 
+9.6999999999999815e+00 -1.0325231442176455e+00 +2.2986534284967668e+00 +1.9891430846150605e+01 +2.3970280457093531e+02 +1.5433702821051993e+04 -2.0977243683913802e+06 -3.9484763355826378e+07 
+9.7999999999999812e+00 -1.0325222801925105e+00 +2.2986305205529471e+00 +1.9843619594281083e+01 +2.3852408569584159e+02 +1.6228401152967819e+04 -2.0857723586500962e+06 -4.2942493438841484e+07 
+9.8999999999999808e+00 -1.0325214042285888e+00 +2.2985994305253281e+00 +1.9795894122237673e+01 +2.3758884172310241e+02 +1.7001118299710848e+04 -2.0752666367452291e+06 -4.6237910223072857e+07 
+9.9999999999999805e+00 -1.0325205175249785e+00 +2.2985603913992816e+00 +1.9748176294283720e+01 +2.3688921575054295e+02 +1.7755275428149493e+04 -2.0661690554370601e+06 -4.9389979093401954e+07 
+1.0099999999999980e+01 -1.0325196212806464e+00 +2.2985136361942953e+00 +1.9700387949707331e+01 +2.3641734687607243e+02 +1.8494294392989294e+04 -2.0584414344729134e+06 -5.2417669560266815e+07 
