# field on trajectory
# s[mm] rx[mm] ry[mm] rz[mm] bx[T] by[T] bz[T]
0.0000000000000000e+00 +9.1762999999999995e+00 +0.0000000000000000e+00 +0.0000000000000000e+00 +1.0980016374532471e-02 -1.0320521549672934e+00 -5.9180252266015067e-02
1.0000000000000001e-01 +9.1762994843306771e+00 +0.0000000000000000e+00 +9.9999999998227229e-02 +1.0979855168802262e-02 -1.0320534780675379e+00 -5.9179221626698073e-02
2.0000000000000001e-01 +9.1762979373218290e+00 +0.0000000000000000e+00 +1.9999999998581786e-01 +1.0979691215742842e-02 -1.0320547909216287e+00 -5.9178195506861667e-02
3.0000000000000004e-01 +9.1762953589721423e+00 +0.0000000000000000e+00 +2.9999999995213522e-01 +1.0979525010939056e-02 -1.0320560922552013e+00 -5.9177174243648697e-02
4.0000000000000002e-01 +9.1762917492803187e+00 +0.0000000000000000e+00 +3.9999999988654267e-01 +1.0979357049972960e-02 -1.0320573807937481e+00 -5.9176158174267593e-02
5.0000000000000000e-01 +9.1762871082450719e+00 +0.0000000000000000e+00 +4.9999999977840343e-01 +1.0979187828422068e-02 -1.0320586552626261e+00 -5.9175147635998591e-02
5.9999999999999998e-01 +9.1762814358651266e+00 +0.0000000000000000e+00 +5.9999999961708073e-01 +1.0979017807965294e-02 -1.0320599141416829e+00 -5.9174142860562488e-02
6.9999999999999996e-01 +9.1762747321392268e+00 +0.0000000000000000e+00 +6.9999999939193780e-01 +1.0978847314706027e-02 -1.0320611549291177e+00 -5.9173143657204386e-02
7.9999999999999993e-01 +9.1762669970661328e+00 +0.0000000000000000e+00 +7.9999999909233777e-01 +1.0978676640851285e-02 -1.0320623748777145e+00 -5.9172149729590236e-02
8.9999999999999991e-01 +9.1762582306446276e+00 +0.0000000000000000e+00 +8.9999999870764380e-01 +1.0978506078604648e-02 -1.0320635712402719e+00 -5.9171160781437200e-02
9.9999999999999989e-01 +9.1762484328735159e+00 +0.0000000000000000e+00 +9.9999999822721897e-01 +1.0978335920166508e-02 -1.0320647412696387e+00 -5.9170176516508480e-02
1.0999999999999999e+00 +9.1762376037516304e+00 +0.0000000000000000e+00 +1.0999999976404264e+00 +1.0978166457734369e-02 -1.0320658822187516e+00 -5.9169196638608250e-02
1.2000000000000000e+00 +9.1762257432778327e+00 +0.0000000000000000e+00 +1.1999999969366291e+00 +1.0977997983503089e-02 -1.0320669913406728e+00 -5.9168220851576470e-02
1.3000000000000000e+00 +9.1762128514510160e+00 +0.0000000000000000e+00 +1.2999999961051898e+00 +1.0977830789665174e-02 -1.0320680658886254e+00 -5.9167248859283733e-02
1.4000000000000001e+00 +9.1761989282701073e+00 +0.0000000000000000e+00 +1.3999999951354718e+00 +1.0977665168411053e-02 -1.0320691031160314e+00 -5.9166280365626135e-02
1.5000000000000002e+00 +9.1761839737340711e+00 +0.0000000000000000e+00 +1.4999999940168378e+00 +1.0977501411929333e-02 -1.0320701002765476e+00 -5.9165315074520095e-02
1.6000000000000003e+00 +9.1761679878419145e+00 +0.0000000000000000e+00 +1.5999999927386508e+00 +1.0977339812407090e-02 -1.0320710546241028e+00 -5.9164352689897289e-02
1.7000000000000004e+00 +9.1761509705926834e+00 +0.0000000000000000e+00 +1.6999999912902737e+00 +1.0977180662030132e-02 -1.0320719634129354e+00 -5.9163392915699393e-02
1.8000000000000005e+00 +9.1761329219854737e+00 +0.0000000000000000e+00 +1.7999999896610692e+00 +1.0977024252983268e-02 -1.0320728238976293e+00 -5.9162435455873075e-02
1.9000000000000006e+00 +9.1761138420194275e+00 +0.0000000000000000e+00 +1.8999999878404004e+00 +1.0976870877450612e-02 -1.0320736333331511e+00 -5.9161480014364713e-02
2.0000000000000004e+00 +9.1760937306937382e+00 +0.0000000000000000e+00 +1.9999999858176301e+00 +1.0976720827615794e-02 -1.0320743889748862e+00 -5.9160526295115388e-02
2.1000000000000005e+00 +9.1760725880076510e+00 +0.0000000000000000e+00 +2.0999999835821210e+00 +1.0976574395662304e-02 -1.0320750880786769e+00 -5.9159574002055570e-02
2.2000000000000006e+00 +9.1760504139604731e+00 +0.0000000000000000e+00 +2.1999999811232360e+00 +1.0976431873773720e-02 -1.0320757279008581e+00 -5.9158622839100179e-02
2.3000000000000007e+00 +9.1760272085515648e+00 +0.0000000000000000e+00 +2.2999999784303378e+00 +1.0976293554134001e-02 -1.0320763056982940e+00 -5.9157672510143311e-02
2.4000000000000008e+00 +9.1760029717803526e+00 +0.0000000000000000e+00 +2.3999999754927890e+00 +1.0976159728927740e-02 -1.0320768187284166e+00 -5.9156722719053166e-02
2.5000000000000009e+00 +9.1759777036463266e+00 +0.0000000000000000e+00 +2.4999999722999529e+00 +1.0976030690340470e-02 -1.0320772642492604e+00 -5.9155773169666803e-02
2.6000000000000010e+00 +9.1759514041490444e+00 +0.0000000000000000e+00 +2.5999999688411917e+00 +1.0975906604074539e-02 -1.0320776417378454e+00 -5.9154823613853942e-02
2.7000000000000011e+00 +9.1759240732881313e+00 +0.0000000000000000e+00 +2.6999999651058686e+00 +1.0975787129893397e-02 -1.0320779595451717e+00 -5.9153873995742214e-02
2.8000000000000012e+00 +9.1758957110632711e+00 +0.0000000000000000e+00 +2.7999999610833464e+00 +1.0975671801070718e-02 -1.0320782282410594e+00 -5.9152924307550390e-02
2.9000000000000012e+00 +9.1758663174741972e+00 +0.0000000000000000e+00 +2.8999999567629877e+00 +1.0975560150873987e-02 -1.0320784583957936e+00 -5.9151974541526889e-02
3.0000000000000013e+00 +9.1758358925206824e+00 +0.0000000000000000e+00 +2.9999999521341554e+00 +1.0975451712564102e-02 -1.0320786605801373e+00 -5.9151024689951349e-02
3.1000000000000014e+00 +9.1758044362025277e+00 +0.0000000000000000e+00 +3.0999999471862121e+00 +1.0975346019394951e-02 -1.0320788453653438e+00 -5.9150074745136234e-02
3.2000000000000015e+00 +9.1757719485195484e+00 +0.0000000000000000e+00 +3.1999999419085210e+00 +1.0975242604613005e-02 -1.0320790233231700e+00 -5.9149124699428464e-02
3.3000000000000016e+00 +9.1757384294715720e+00 +0.0000000000000000e+00 +3.2999999362904449e+00 +1.0975141001456924e-02 -1.0320792050258900e+00 -5.9148174545211117e-02
3.4000000000000017e+00 +9.1757038790584176e+00 +0.0000000000000000e+00 +3.3999999303213464e+00 +1.0975040743157133e-02 -1.0320794010463086e+00 -5.9147224274904986e-02
3.5000000000000018e+00 +9.1756682972798931e+00 +0.0000000000000000e+00 +3.4999999239905883e+00 +1.0974941362935401e-02 -1.0320796219577724e+00 -5.9146273880970122e-02
3.6000000000000019e+00 +9.1756316841357801e+00 +0.0000000000000000e+00 +3.5999999172875334e+00 +1.0974842394004449e-02 -1.0320798783341849e+00 -5.9145323355907650e-02
3.7000000000000020e+00 +9.1755940396258264e+00 +0.0000000000000000e+00 +3.6999999102015444e+00 +1.0974743369567537e-02 -1.0320801807500180e+00 -5.9144372692261270e-02
3.8000000000000020e+00 +9.1755553637497318e+00 +0.0000000000000000e+00 +3.7999999027219840e+00 +1.0974643822818035e-02 -1.0320805397803272e+00 -5.9143421882618785e-02
3.9000000000000021e+00 +9.1755156565071427e+00 +0.0000000000000000e+00 +3.8999998948382149e+00 +1.0974543286939038e-02 -1.0320809660007624e+00 -5.9142470919613978e-02
4.0000000000000018e+00 +9.1754749178976347e+00 +0.0000000000000000e+00 +3.9999998865395998e+00 +1.0974441295102921e-02 -1.0320814699875829e+00 -5.9141519795927959e-02
4.1000000000000014e+00 +9.1754331479207085e+00 +0.0000000000000000e+00 +4.0999998778155016e+00 +1.0974337380470963e-02 -1.0320820623176681e+00 -5.9140568504290933e-02
4.2000000000000011e+00 +9.1753903465757745e+00 +0.0000000000000000e+00 +4.1999998686552820e+00 +1.0974231076192924e-02 -1.0320827535685353e+00 -5.9139617037483841e-02
4.3000000000000007e+00 +9.1753465138621468e+00 +0.0000000000000000e+00 +4.2999998590483042e+00 +1.0974121915406608e-02 -1.0320835543183469e+00 -5.9138665388339819e-02
4.4000000000000004e+00 +9.1753016497790281e+00 +0.0000000000000000e+00 +4.3999998489839305e+00 +1.0974009431237490e-02 -1.0320844751459284e+00 -5.9137713549745972e-02
4.5000000000000000e+00 +9.1752557543255033e+00 +0.0000000000000000e+00 +4.4999998384515232e+00 +1.0973893156798272e-02 -1.0320855266307787e+00 -5.9136761514644885e-02
4.5999999999999996e+00 +9.1752088275005246e+00 +0.0000000000000000e+00 +4.5999998274404446e+00 +1.0973772846663295e-02 -1.0320867165019922e+00 -5.9135809360886131e-02
4.6999999999999993e+00 +9.1751608693029088e+00 +0.0000000000000000e+00 +4.6999998159400569e+00 +1.0973649141290138e-02 -1.0320880410848570e+00 -5.9134857505761883e-02
4.7999999999999989e+00 +9.1751118797313378e+00 +0.0000000000000000e+00 +4.7999998039397225e+00 +1.0973522902580369e-02 -1.0320894938540348e+00 -5.9133906451426806e-02
4.8999999999999986e+00 +9.1750618587843658e+00 +0.0000000000000000e+00 +4.8999997914288027e+00 +1.0973394992399497e-02 -1.0320910682846642e+00 -5.9132956700042136e-02
4.9999999999999982e+00 +9.1750108064604259e+00 +0.0000000000000000e+00 +4.9999997783966599e+00 +1.0973266272575461e-02 -1.0320927578523600e+00 -5.9132008753774432e-02
5.0999999999999979e+00 +9.1749587227578342e+00 +0.0000000000000000e+00 +5.0999997648326554e+00 +1.0973137604897138e-02 -1.0320945560332133e+00 -5.9131063114794512e-02
5.1999999999999975e+00 +9.1749056076748001e+00 +0.0000000000000000e+00 +5.1999997507261506e+00 +1.0973009851112835e-02 -1.0320964563037931e+00 -5.9130120285276241e-02
5.2999999999999972e+00 +9.1748514612094318e+00 +0.0000000000000000e+00 +5.2999997360665079e+00 +1.0972883872928810e-02 -1.0320984521411476e+00 -5.9129180767395366e-02
5.3999999999999968e+00 +9.1747962833597416e+00 +0.0000000000000000e+00 +5.3999997208430877e+00 +1.0972760532007757e-02 -1.0321005370228020e+00 -5.9128245063328436e-02
5.4999999999999964e+00 +9.1747400741236511e+00 +0.0000000000000000e+00 +5.4999997050452523e+00 +1.0972640689967316e-02 -1.0321027044267626e+00 -5.9127313675251522e-02
5.5999999999999961e+00 +9.1746828334990003e+00 +0.0000000000000000e+00 +5.5999996886623622e+00 +1.0972525208378549e-02 -1.0321049478315119e+00 -5.9126387105339094e-02
5.6999999999999957e+00 +9.1746245614835562e+00 +0.0000000000000000e+00 +5.6999996716837789e+00 +1.0972414948764485e-02 -1.0321072607160144e+00 -5.9125465855762935e-02
5.7999999999999954e+00 +9.1745652580750132e+00 +0.0000000000000000e+00 +5.7999996540988628e+00 +1.0972310772598585e-02 -1.0321096365597160e+00 -5.9124550428690893e-02
5.8999999999999950e+00 +9.1745049232710034e+00 +0.0000000000000000e+00 +5.8999996358969753e+00 +1.0972213541303245e-02 -1.0321120688425403e+00 -5.9123641326285781e-02
5.9999999999999947e+00 +9.1744435570691039e+00 +0.0000000000000000e+00 +5.9999996170674770e+00 +1.0972124116248320e-02 -1.0321145510448948e+00 -5.9122739050704184e-02
6.0999999999999943e+00 +9.1743811594668401e+00 +0.0000000000000000e+00 +6.0999995975997283e+00 +1.0972043358749583e-02 -1.0321170766476675e+00 -5.9121844104095246e-02
6.1999999999999940e+00 +9.1743177304616967e+00 +0.0000000000000000e+00 +6.1999995774830898e+00 +1.0971972130067252e-02 -1.0321196391322278e+00 -5.9120956988599600e-02
6.2999999999999936e+00 +9.1742532700511195e+00 +0.0000000000000000e+00 +6.2999995567069220e+00 +1.0971911291404483e-02 -1.0321222319804293e+00 -5.9120078206348160e-02
6.3999999999999932e+00 +9.1741877782325254e+00 +0.0000000000000000e+00 +6.3999995352605845e+00 +1.0971861703905855e-02 -1.0321248486746060e+00 -5.9119208259460911e-02
6.4999999999999929e+00 +9.1741212550033069e+00 +0.0000000000000000e+00 +6.4999995131334387e+00 +1.0971824228655874e-02 -1.0321274826975779e+00 -5.9118347650045880e-02
6.5999999999999925e+00 +9.1740537003608402e+00 +0.0000000000000000e+00 +6.5999994903148442e+00 +1.0971799354019127e-02 -1.0321301268646330e+00 -5.9117496751216886e-02
6.6999999999999922e+00 +9.1739851143024893e+00 +0.0000000000000000e+00 +6.6999994667941616e+00 +1.0971786077685191e-02 -1.0321327713194512e+00 -5.9116655420113788e-02
6.7999999999999918e+00 +9.1739154968256216e+00 +0.0000000000000000e+00 +6.7999994425607495e+00 +1.0971783024730918e-02 -1.0321354055381555e+00 -5.9115823384795659e-02
6.8999999999999915e+00 +9.1738448479276116e+00 +0.0000000000000000e+00 +6.8999994176039694e+00 +1.0971788820303653e-02 -1.0321380189973417e+00 -5.9115000373214169e-02
6.9999999999999911e+00 +9.1737731676058569e+00 +0.0000000000000000e+00 +6.9999993919131800e+00 +1.0971802089624619e-02 -1.0321406011740817e+00 -5.9114186113209094e-02
7.0999999999999908e+00 +9.1737004558577837e+00 +0.0000000000000000e+00 +7.0999993654777418e+00 +1.0971821457992274e-02 -1.0321431415459223e+00 -5.9113380332503997e-02
7.1999999999999904e+00 +9.1736267126808642e+00 +0.0000000000000000e+00 +7.1999993382870144e+00 +1.0971845550785750e-02 -1.0321456295908862e+00 -5.9112582758701841e-02
7.2999999999999901e+00 +9.1735519380726203e+00 +0.0000000000000000e+00 +7.2999993103303566e+00 +1.0971872993468206e-02 -1.0321480547874708e+00 -5.9111793119280581e-02
7.3999999999999897e+00 +9.1734761320306362e+00 +0.0000000000000000e+00 +7.3999992815971289e+00 +1.0971902411590259e-02 -1.0321504066146510e+00 -5.9111011141588794e-02
7.4999999999999893e+00 +9.1733992945525724e+00 +0.0000000000000000e+00 +7.4999992520766909e+00 +1.0971932430793349e-02 -1.0321526745518765e+00 -5.9110236552841304e-02
7.5999999999999890e+00 +9.1733214256361713e+00 +0.0000000000000000e+00 +7.5999992217584023e+00 +1.0971961676813176e-02 -1.0321548480790748e+00 -5.9109469080114926e-02
7.6999999999999886e+00 +9.1732425252792691e+00 +0.0000000000000000e+00 +7.6999991906316225e+00 +1.0971988775483036e-02 -1.0321569166766502e+00 -5.9108708450343814e-02
7.7999999999999883e+00 +9.1731625934798071e+00 +0.0000000000000000e+00 +7.7999991586857114e+00 +1.0972012352737289e-02 -1.0321588698254849e+00 -5.9107954390315388e-02
7.8999999999999879e+00 +9.1730816302358438e+00 +0.0000000000000000e+00 +7.8999991259100284e+00 +1.0972031034614726e-02 -1.0321606970069388e+00 -5.9107206626665840e-02
7.9999999999999876e+00 +9.1729996355455636e+00 +0.0000000000000000e+00 +7.9999990922939332e+00 +1.0972043447261966e-02 -1.0321623877028494e+00 -5.9106464885875745e-02
8.0999999999999872e+00 +9.1729166094072863e+00 +0.0000000000000000e+00 +8.0999990578267855e+00 +1.0972048216936876e-02 -1.0321639313955335e+00 -5.9105728894265686e-02
8.1999999999999869e+00 +9.1728325518194787e+00 +0.0000000000000000e+00 +8.1999990224979449e+00 +1.0972043970011990e-02 -1.0321653175677881e+00 -5.9104998377992053e-02
8.2999999999999865e+00 +9.1727474627807641e+00 +0.0000000000000000e+00 +8.2999989862967727e+00 +1.0972029332977872e-02 -1.0321665357028884e+00 -5.9104273063042466e-02
8.3999999999999861e+00 +9.1726613422899366e+00 +0.0000000000000000e+00 +8.3999989492126286e+00 +1.0972002932446573e-02 -1.0321675752845907e+00 -5.9103552675231555e-02
8.4999999999999858e+00 +9.1725741903459674e+00 +0.0000000000000000e+00 +8.4999989112348722e+00 +1.0971963395155012e-02 -1.0321684257971317e+00 -5.9102836940196579e-02
8.5999999999999854e+00 +9.1724860069480165e+00 +0.0000000000000000e+00 +8.5999988723528631e+00 +1.0971909848732229e-02 -1.0321690793341749e+00 -5.9102125736705362e-02
8.6999999999999851e+00 +9.1723967920954408e+00 +0.0000000000000000e+00 +8.6999988325559627e+00 +1.0971843423988072e-02 -1.0321695384252574e+00 -5.9101419556691910e-02
8.7999999999999847e+00 +9.1723065457877890e+00 +0.0000000000000000e+00 +8.7999987918335307e+00 +1.0971765752464247e-02 -1.0321698082074695e+00 -5.9100719045453137e-02
8.8999999999999844e+00 +9.1722152680248001e+00 +0.0000000000000000e+00 +8.8999987501749285e+00 +1.0971678465617344e-02 -1.0321698938160939e+00 -5.9100024848349739e-02
8.9999999999999840e+00 +9.1721229588063995e+00 +0.0000000000000000e+00 +8.9999987075695174e+00 +1.0971583194815976e-02 -1.0321698003845448e+00 -5.9099337610808919e-02
9.0999999999999837e+00 +9.1720296181326901e+00 +0.0000000000000000e+00 +9.0999986640066570e+00 +1.0971481571337920e-02 -1.0321695330443008e+00 -5.9098657978327196e-02
9.1999999999999833e+00 +9.1719352460039474e+00 +0.0000000000000000e+00 +9.1999986194757106e+00 +1.0971375226367274e-02 -1.0321690969248463e+00 -5.9097986596473237e-02
9.2999999999999829e+00 +9.1718398424206171e+00 +0.0000000000000000e+00 +9.2999985739660378e+00 +1.0971265790991584e-02 -1.0321684971536045e+00 -5.9097324110890505e-02
9.3999999999999826e+00 +9.1717434073833086e+00 +0.0000000000000000e+00 +9.3999985274670017e+00 +1.0971154896198999e-02 -1.0321677388558761e+00 -5.9096671167300226e-02
9.4999999999999822e+00 +9.1716459408927893e+00 +0.0000000000000000e+00 +9.4999984799679638e+00 +1.0971044172875390e-02 -1.0321668271547759e+00 -5.9096028411504027e-02
9.5999999999999819e+00 +9.1715474429499810e+00 +0.0000000000000000e+00 +9.5999984314582854e+00 +1.0970935251801496e-02 -1.0321657671711679e+00 -5.9095396489386734e-02
9.6999999999999815e+00 +9.1714479135559515e+00 +0.0000000000000000e+00 +9.6999983819273279e+00 +1.0970829763650049e-02 -1.0321645640236048e+00 -5.9094776046919213e-02
9.7999999999999812e+00 +9.1713473527119138e+00 +0.0000000000000000e+00 +9.7999983313644545e+00 +1.0970729338982911e-02 -1.0321632228282620e+00 -5.9094167730161087e-02
9.8999999999999808e+00 +9.1712457604192199e+00 +0.0000000000000000e+00 +9.8999982797590285e+00 +1.0970635608248191e-02 -1.0321617486988770e+00 -5.9093572185263531e-02
9.9999999999999805e+00 +9.1711431366793512e+00 +0.0000000000000000e+00 +9.9999982271004111e+00 +1.0970550201777366e-02 -1.0321601467466839e+00 -5.9092990058472079e-02
1.0099999999999980e+01 +9.1710394814939207e+00 +0.0000000000000000e+00 +1.0099998173377966e+01 +1.0970474749782425e-02 -1.0321584220803512e+00 -5.9092421996129331e-02
1.0199999999999980e+01 +9.1709347948646620e+00 +0.0000000000000000e+00 +1.0199998118581055e+01 +1.0970410882352953e-02 -1.0321565798059185e+00 -5.9091868644677741e-02
1.0299999999999979e+01 +9.1708290767934262e+00 +0.0000000000000000e+00 +1.0299998062699043e+01 +1.0970360229453267e-02 -1.0321546250267333e+00 -5.9091330650662403e-02
1.0399999999999979e+01 +9.1707223272821778e+00 +0.0000000000000000e+00 +1.0399998005721292e+01 +1.0970324420919542e-02 -1.0321525628433879e+00 -5.9090808660733865e-02
1.0499999999999979e+01 +9.1706145463329882e+00 +0.0000000000000000e+00 +1.0499997947637167e+01 +1.0970305086456879e-02 -1.0321503983536551e+00 -5.9090303321650772e-02
1.0599999999999978e+01 +9.1705057339480316e+00 +0.0000000000000000e+00 +1.0599997888436031e+01 +1.0970303296769618e-02 -1.0321481361487488e+00 -5.9089815060208481e-02
1.0699999999999978e+01 +9.1703958901295799e+00 +0.0000000000000000e+00 +1.0699997828107247e+01 +1.0970317886892305e-02 -1.0321457788039377e+00 -5.9089343422980389e-02
1.0799999999999978e+01 +9.1702850148800010e+00 +0.0000000000000000e+00 +1.0799997766640180e+01 +1.0970347132984644e-02 -1.0321433283928634e+00 -5.9088887736598109e-02
1.0899999999999977e+01 +9.1701731082017552e+00 +0.0000000000000000e+00 +1.0899997704024194e+01 +1.0970389311287231e-02 -1.0321407869917969e+00 -5.9088447327860866e-02
1.0999999999999977e+01 +9.1700601700973934e+00 +0.0000000000000000e+00 +1.0999997640248655e+01 +1.0970442698123844e-02 -1.0321381566797065e+00 -5.9088021523739098e-02
1.1099999999999977e+01 +9.1699462005695569e+00 +0.0000000000000000e+00 +1.1099997575302924e+01 +1.0970505569903744e-02 -1.0321354395383240e+00 -5.9087609651378534e-02
1.1199999999999976e+01 +9.1698311996209707e+00 +0.0000000000000000e+00 +1.1199997509176368e+01 +1.0970576203123993e-02 -1.0321326376522106e+00 -5.9087211038103923e-02
1.1299999999999976e+01 +9.1697151672544486e+00 +0.0000000000000000e+00 +1.1299997441858352e+01 +1.0970652874371755e-02 -1.0321297531088220e+00 -5.9086825011422990e-02
1.1399999999999975e+01 +9.1695981034728860e+00 +0.0000000000000000e+00 +1.1399997373338241e+01 +1.0970733860326603e-02 -1.0321267879985752e+00 -5.9086450899030286e-02
1.1499999999999975e+01 +9.1694800082792565e+00 +0.0000000000000000e+00 +1.1499997303605399e+01 +1.0970817437762867e-02 -1.0321237444149152e+00 -5.9086088028811115e-02
1.1599999999999975e+01 +9.1693608816766154e+00 +0.0000000000000000e+00 +1.1599997232649194e+01 +1.0970901883551933e-02 -1.0321206244543792e+00 -5.9085735728845325e-02
1.1699999999999974e+01 +9.1692407236680911e+00 +0.0000000000000000e+00 +1.1699997160458990e+01 +1.0970985474664565e-02 -1.0321174302166647e+00 -5.9085393327411251e-02
1.1799999999999974e+01 +9.1691195342568896e+00 +0.0000000000000000e+00 +1.1799997087024153e+01 +1.0971066488173252e-02 -1.0321141638046936e+00 -5.9085060152989553e-02
