# multipoles
# s[mm] polynom_b[n=0][T/m^n] polynom_b[n=1][T/m^n] polynom_b[n=2][T/m^n] polynom_b[n=3][T/m^n] polynom_b[n=4][T/m^n] polynom_b[n=5][T/m^n] polynom_b[n=6][T/m^n] 
+0.0000000000000000e+00 -1.0318882713159774e+00 +2.2700827020204390e+00 +2.3572415666199944e+01 +7.9662822117259827e+02 -1.2196542010152843e+05 -4.0584859108207724e+06 +7.6719992986184323e+08 
+1.0000000000000001e-01 -1.0318904021417179e+00 +2.2703855690954331e+00 +2.3641500494032609e+01 +7.9058801518959081e+02 -1.2279998624136634e+05 -4.0323485193826444e+06 +7.6984010160418940e+08 
+2.0000000000000001e-01 -1.0318926025215285e+00 +2.2707258244775184e+00 +2.3711209615086869e+01 +7.8366510424585272e+02 -1.2359651002515331e+05 -4.0016007947476637e+06 +7.7219492019097829e+08 
+3.0000000000000004e-01 -1.0318948684685765e+00 +2.2711043604408960e+00 +2.3781219010985325e+01 +7.7585009028965180e+02 -1.2434706744428044e+05 -3.9661987375766831e+06 +7.7422244669187093e+08 
+4.0000000000000002e-01 -1.0318971959962786e+00 +2.2715220692394973e+00 +2.3851204683252533e+01 +7.6713357481274454e+02 -1.2504373475054048e+05 -3.9260983415348167e+06 +7.7588074299123013e+08 
+5.0000000000000000e-01 -1.0318995811184100e+00 +2.2719798431042566e+00 +2.3920842667612533e+01 +7.5750615882560805e+02 -1.2567858873183954e+05 -3.8812555925936941e+06 +7.7712787310611510e+08 
+5.9999999999999998e-01 -1.0319020191456652e+00 +2.2724777422927529e+00 +2.3989819000426216e+01 +7.4697453587527707e+02 -1.2624496738748730e+05 -3.8317108871361706e+06 +7.7792985420767474e+08 
+6.9999999999999996e-01 -1.0319045025448896e+00 +2.2730124818085105e+00 +2.4057860468387478e+01 +7.3561050251044628e+02 -1.2674126483320398e+05 -3.7778462677496108e+06 +7.7828460327677226e+08 
+7.9999999999999993e-01 -1.0319070230644913e+00 +2.2735799359570503e+00 +2.4124704276549799e+01 +7.2350231382893764e+02 -1.2716714286216046e+05 -3.7201301834913227e+06 +7.7819803759432161e+08 
+8.9999999999999991e-01 -1.0319095724529106e+00 +2.2741759790235765e+00 +2.4190087628455256e+01 +7.1073822512067818e+02 -1.2752226314429806e+05 -3.6590310824798271e+06 +7.7767607347353041e+08 
+9.9999999999999989e-01 -1.0319121424585569e+00 +2.2747964852852385e+00 +2.4253747718991303e+01 +6.9740649171006510e+02 -1.2780628709394456e+05 -3.5950174117092239e+06 +7.7672462563333166e+08 
+1.0999999999999999e+00 -1.0319147248298093e+00 +2.2754373290043541e+00 +2.4315421735957035e+01 +6.8359536933851928e+02 -1.2801887590741670e+05 -3.5285576199849132e+06 +7.7534960739862382e+08 
+1.2000000000000000e+00 -1.0319173113148719e+00 +2.2760943844275610e+00 +2.4374846844214446e+01 +6.6939311438938353e+02 -1.2815969026947857e+05 -3.4601201599774091e+06 +7.7355692931568432e+08 
+1.3000000000000000e+00 -1.0319198936618017e+00 +2.2767635257985233e+00 +2.4431760189345027e+01 +6.5488798371422945e+02 -1.2822839042400190e+05 -3.3901734879371338e+06 +7.7135249949056494e+08 
+1.4000000000000001e+00 -1.0319224636183131e+00 +2.2774406273469299e+00 +2.4485898875443489e+01 +6.4016823511426651e+02 -1.2822463576046292e+05 -3.3191860671301303e+06 +7.6874222163929260e+08 
+1.5000000000000002e+00 -1.0319250129318791e+00 +2.2781215632969678e+00 +2.4536999978497853e+01 +6.2532212732112328e+02 -1.2814808507229782e+05 -3.2476263685499849e+06 +7.6573199632641077e+08 
+1.6000000000000003e+00 -1.0319275333495270e+00 +2.2788022078636856e+00 +2.4584800523501873e+01 +6.1043792027120844e+02 -1.2799839613364740e+05 -3.1759628731673635e+06 +7.6232771897529221e+08 
+1.7000000000000004e+00 -1.0319300166178531e+00 +2.2794784352600361e+00 +2.4629037485270985e+01 +5.9560387510054807e+02 -1.2777522570553576e+05 -3.1046640726366723e+06 +7.5853527987142229e+08 
+1.8000000000000005e+00 -1.0319324544829174e+00 +2.2801461196922106e+00 +2.4669447779450863e+01 +5.8090825447508143e+02 -1.2747822939057047e+05 -3.0341984719518116e+06 +7.5436056353698945e+08 
+1.9000000000000006e+00 -1.0319348386902190e+00 +2.2808011353673479e+00 +2.4705768259058043e+01 +5.6643932254420963e+02 -1.2710706155832877e+05 -2.9650345898548393e+06 +7.4980944834276462e+08 
+2.0000000000000004e+00 -1.0319371609845980e+00 +2.2814393564849116e+00 +2.4737735704103279e+01 +5.5228534539559553e+02 -1.2666137515934008e+05 -2.8976409622326726e+06 +7.4488780565678656e+08 
+2.1000000000000005e+00 -1.0319394131101993e+00 +2.2820566572509033e+00 +2.4765086818455455e+01 +5.3853459083461053e+02 -1.2614082167205463e+05 -2.8324861415612511e+06 +7.3960149960030806e+08 
+2.2000000000000006e+00 -1.0319415868103752e+00 +2.2826489118674820e+00 +2.4787558218899097e+01 +5.2527532885679273e+02 -1.2554505089575908e+05 -2.7700387003073143e+06 +7.3395638606204569e+08 
+2.3000000000000007e+00 -1.0319436738276659e+00 +2.2832119945389984e+00 +2.4804886434246686e+01 +5.1259583169169082e+02 -1.2487371094463980e+05 -2.7107672319932710e+06 +7.2795831269838262e+08 
+2.4000000000000008e+00 -1.0319456659036899e+00 +2.2837417794764256e+00 +2.4816807892786052e+01 +5.0058437384954578e+02 -1.2412644801175898e+05 -2.6551403521248898e+06 +7.2161311781028378e+08 
+2.5000000000000009e+00 -1.0319475547791113e+00 +2.2842341408927629e+00 +2.4823058920316395e+01 +4.8932923242456201e+02 -1.2330290634126327e+05 -2.6036267003932991e+06 +7.1492663025552452e+08 
+2.6000000000000010e+00 -1.0319493359250345e+00 +2.2846858967533219e+00 +2.4823549875959248e+01 +4.7889688295666048e+02 -1.2240470311976295e+05 -2.5565723679250777e+06 +7.0791216020522964e+08 
+2.7000000000000011e+00 -1.0319510198897908e+00 +2.2850976965061740e+00 +2.4818879766423514e+01 +4.6926485177068008e+02 -1.2144110968060768e+05 -2.5138268794648699e+06 +7.0061132239572632e+08 
+2.8000000000000012e+00 -1.0319526210283592e+00 +2.2854711626920827e+00 +2.4809817593539378e+01 +4.6038795905867079e+02 -1.2042324445395175e+05 -2.4751137642332227e+06 +6.9307237177118838e+08 
+2.9000000000000012e+00 -1.0319541536957721e+00 +2.2858079177792185e+00 +2.4797132374968715e+01 +4.5222102682556584e+02 -1.1936222619343575e+05 -2.4401565615597675e+06 +6.8534356474381697e+08 
+3.0000000000000013e+00 -1.0319556322470282e+00 +2.2861095841572445e+00 +2.4781593133015772e+01 +4.4471887895776200e+02 -1.1826917377119532e+05 -2.4086788209805731e+06 +6.7747315824353266e+08 
+3.1000000000000014e+00 -1.0319570710371158e+00 +2.2863777841262283e+00 +2.4763968898308409e+01 +4.3783634142130194e+02 -1.1715520625073124e+05 -2.3804041030182708e+06 +6.6950941007072914e+08 
+3.2000000000000015e+00 -1.0319584844211256e+00 +2.2866141399028885e+00 +2.4745028724271954e+01 +4.3152824197140097e+02 -1.1603144317388974e+05 -2.3550559771881592e+06 +6.6150058030114734e+08 
+3.3000000000000016e+00 -1.0319598867542421e+00 +2.2868202735983454e+00 +2.4725541686123613e+01 +4.2574941068838979e+02 -1.1490900454327844e+05 -2.3323580247839112e+06 +6.5349493120411813e+08 
+3.4000000000000017e+00 -1.0319612923917512e+00 +2.2869978072291470e+00 +2.4706276881860639e+01 +4.2045467950675487e+02 -1.1379901084622266e+05 -2.3120338357113316e+06 +6.4554072737394309e+08 
+3.5000000000000018e+00 -1.0319627156891420e+00 +2.2871483626955373e+00 +2.4688003446300993e+01 +4.1559888277073281e+02 -1.1271258333482168e+05 -2.2938070115013863e+06 +6.3768623710175836e+08 
+3.6000000000000019e+00 -1.0319641710020722e+00 +2.2872735617888935e+00 +2.4671490545822156e+01 +4.1113685686338420e+02 -1.1166084392250855e+05 -2.2774011626950726e+06 +6.2997973187358928e+08 
+3.7000000000000020e+00 -1.0319656726864495e+00 +2.2873750261821519e+00 +2.4657507389418896e+01 +4.0702344039484171e+02 -1.1065491540608639e+05 -2.2625399096894483e+06 +6.2246948746344364e+08 
+3.8000000000000020e+00 -1.0319672350984546e+00 +2.2874543774190927e+00 +2.4646823232442514e+01 +4.0321347436862078e+02 -1.0970592154341729e+05 -2.2489468832737282e+06 +6.1520378432027268e+08 
+3.9000000000000021e+00 -1.0319688725945513e+00 +2.2875132369096129e+00 +2.4640207376961374e+01 +3.9966180223651645e+02 -1.0882498706096703e+05 -2.2363457247205316e+06 +6.0823090760997534e+08 
+4.0000000000000018e+00 -1.0319705995315687e+00 +2.2875532259336264e+00 +2.4638429183489521e+01 +3.9632326963050406e+02 -1.0802323789138424e+05 -2.2244600837707305e+06 +6.0159914838787448e+08 
+4.1000000000000014e+00 -1.0319724302666657e+00 +2.2875759656235379e+00 +2.4642258065837794e+01 +3.9315272477028770e+02 -1.0731180106988794e+05 -2.2130136207188242e+06 +5.9535680308975244e+08 
+4.2000000000000011e+00 -1.0319743791574387e+00 +2.2875830769660879e+00 +2.4652463506165819e+01 +3.9010501829378569e+02 -1.0670180504014266e+05 -2.2017300050779539e+06 +5.8955217504413950e+08 
+4.3000000000000007e+00 -1.0319764605619466e+00 +2.2875761807889314e+00 +2.4669815056708106e+01 +3.8713500352709610e+02 -1.0620437967974228e+05 -2.1903329168174141e+06 +5.8423357457734704e+08 
+4.4000000000000004e+00 -1.0319786888386497e+00 +2.2875568977627232e+00 +2.4695082334151579e+01 +3.8419753630757742e+02 -1.0583065620984140e+05 -2.1785460449857726e+06 +5.7944931862724829e+08 
+4.5000000000000000e+00 -1.0319810783465919e+00 +2.2875268483858044e+00 +2.4729035040701373e+01 +3.8124747548969793e+02 -1.0559176756616365e+05 -2.1660930906498875e+06 +5.7524773242791259e+08 
+4.5999999999999996e+00 -1.0319836394837509e+00 +2.2874878165753532e+00 +2.4772191072460778e+01 +3.7824028369084255e+02 -1.0549465778802244e+05 -2.1527132584946332e+06 +5.7165826824275303e+08 
+4.6999999999999993e+00 -1.0319863668241296e+00 +2.2874422959439511e+00 +2.4824054434428803e+01 +3.7513111613394602e+02 -1.0552958626406845e+05 -2.1381909520268594e+06 +5.6863590933926952e+08 
+4.7999999999999989e+00 -1.0319892509888573e+00 +2.2873929707923093e+00 +2.4883873514425193e+01 +3.7187444111764904e+02 -1.0568264417904947e+05 -2.1223182032428673e+06 +5.6611719395654321e+08 
+4.8999999999999986e+00 -1.0319922825996783e+00 +2.2873425255860482e+00 +2.4950896753801370e+01 +3.6842472038425922e+02 -1.0593992362026371e+05 -2.1048869995247968e+06 +5.6403866442467499e+08 
+4.9999999999999982e+00 -1.0319954522790862e+00 +2.2872936449497279e+00 +2.5024372665036022e+01 +3.6473640921072501e+02 -1.0628751791315357e+05 -2.0856892836700969e+06 +5.6233686875418496e+08 
+5.0999999999999979e+00 -1.0319987506503638e+00 +2.2872490136797006e+00 +2.5103549833574014e+01 +3.6076395594388634e+02 -1.0671152164362812e+05 -2.0645169508309041e+06 +5.6094836072281253e+08 
+5.1999999999999975e+00 -1.0320021683375720e+00 +2.2872113167659469e+00 +2.5187676916279038e+01 +3.5646180128458514e+02 -1.0719803062555502e+05 -2.0411618440090513e+06 +5.5980969971832049e+08 
+5.2999999999999972e+00 -1.0320056959655854e+00 +2.2871832393937321e+00 +2.5276002643111411e+01 +3.5178437818000509e+02 -1.0773314192311162e+05 -2.0154157531680008e+06 +5.5885745083555675e+08 
+5.3999999999999968e+00 -1.0320093241601924e+00 +2.2871674669559829e+00 +2.5367775828674059e+01 +3.4668611137778231e+02 -1.0830295406297280e+05 -1.9870704122919871e+06 +5.5802818587247229e+08 
+5.4999999999999964e+00 -1.0320130435480517e+00 +2.2871666850680872e+00 +2.5462245365909716e+01 +3.4112141692227198e+02 -1.0889356691618676e+05 -1.9559174961397783e+06 +5.5725848278798711e+08 
+5.5999999999999961e+00 -1.0320168447567861e+00 +2.2871835795768582e+00 +2.5558660234510754e+01 +3.3504470182638704e+02 -1.0949108183508563e+05 -1.9217486180502537e+06 +5.5648492629717946e+08 
+5.6999999999999957e+00 -1.0320207184150236e+00 +2.2872208365707820e+00 +2.5656269506908057e+01 +3.2841036367990569e+02 -1.1008160178002779e+05 -1.8843553272878395e+06 +5.5564410852476954e+08 
+5.7999999999999954e+00 -1.0320246551523629e+00 +2.2872811423946775e+00 +2.5754322340043093e+01 +3.2117279017987744e+02 -1.1065123113880219e+05 -1.8435291060988146e+06 +5.5467262808829021e+08 
+5.8999999999999950e+00 -1.0320286455995020e+00 +2.2873671836581195e+00 +2.5852067991626711e+01 +3.1328635877093842e+02 -1.1118607603967033e+05 -1.7990613671773828e+06 +5.5350709161044180e+08 
+5.9999999999999947e+00 -1.0320326803881883e+00 +2.2874816472488324e+00 +2.5948755811350402e+01 +3.0470543622351829e+02 -1.1167224417204913e+05 -1.7507434510295733e+06 +5.5208411284308040e+08 
+6.0999999999999943e+00 -1.0320367501513374e+00 +2.2876272203410286e+00 +2.6043635254986309e+01 +2.9538437827763914e+02 -1.1209584505303300e+05 -1.6983666234705194e+06 +5.5034031394292915e+08 
+6.1999999999999940e+00 -1.0320408455230177e+00 +2.2878065904105993e+00 +2.6135955880551467e+01 +2.8527752915054481e+02 -1.1244298994481776e+05 -1.6417220725174989e+06 +5.4821232506292212e+08 
+6.2999999999999936e+00 -1.0320449571384818e+00 +2.2880224452433917e+00 +2.6224967350253984e+01 +2.7433922120740982e+02 -1.1269979188038156e+05 -1.5806009061219124e+06 +5.4563678445306575e+08 
+6.3999999999999932e+00 -1.0320490756342633e+00 +2.2882774729476911e+00 +2.6309919441922375e+01 +2.6252377454346936e+02 -1.1285236588432308e+05 -1.5147941494838966e+06 +5.4255033953601944e+08 
+6.4999999999999929e+00 -1.0320531916481501e+00 +2.2885743619794221e+00 +2.6390062044081272e+01 +2.4978549566988039e+02 -1.1288682894255042e+05 -1.4440927387271579e+06 +5.3888964673028684e+08 
+6.5999999999999925e+00 -1.0320572962039178e+00 +2.2889148661076022e+00 +2.6464762485650517e+01 +2.3609378546311871e+02 -1.1279222267329902e+05 -1.3683491029480230e+06 +5.3460580022874087e+08 
+6.6999999999999922e+00 -1.0320613820863018e+00 +2.2892967029040188e+00 +2.6533967109819081e+01 +2.2148796067804204e+02 -1.1257123044292413e+05 -1.2877052789501294e+06 +5.2971616732623738e+08 
+6.7999999999999918e+00 -1.0320654425876747e+00 +2.2897164958048033e+00 +2.6597797749309958e+01 +2.0602736411264260e+02 -1.1223051786538000e+05 -1.2023871644198846e+06 +5.2425722090365767e+08 
+6.8999999999999915e+00 -1.0320694710000642e+00 +2.2901708681534840e+00 +2.6656376272173141e+01 +1.8977134585776156e+02 -1.1177675202135371e+05 -1.1126207119268428e+06 +5.1826544275299549e+08 
+6.9999999999999911e+00 -1.0320734606150423e+00 +2.2906564432462164e+00 +2.6709824561170191e+01 +1.7277926242843924e+02 -1.1121660103385260e+05 -1.0186319283864292e+06 +5.1177732176223159e+08 
+7.0999999999999908e+00 -1.0320774047236445e+00 +2.2911698443405304e+00 +2.6758264506453820e+01 +1.5511047669479123e+02 -1.1055673396121555e+05 -9.2064687529007520e+05 +5.0482935349832755e+08 
+7.1999999999999904e+00 -1.0320812966164419e+00 +2.2917076946355763e+00 +2.6801818016902260e+01 +1.3682435868996620e+02 -1.0980382103466686e+05 -8.1889167419711652e+05 +4.9745804139851010e+08 
+7.2999999999999901e+00 -1.0320851295833620e+00 +2.2922666172870247e+00 +2.6840607001019237e+01 +1.1798028538959545e+02 -1.0896453332831383e+05 -7.1359250617076061e+05 +4.8969989529276264e+08 
+7.3999999999999897e+00 -1.0320888969137827e+00 +2.2928432353878838e+00 +2.6874753381881867e+01 +9.8637641472536032e+01 -1.0804554307477873e+05 -6.0497561690410809e+05 +4.8159143299386662e+08 
+7.4999999999999893e+00 -1.0320925918964909e+00 +2.2934341719728777e+00 +2.6904379093561470e+01 +7.8855819429449440e+01 -1.0705352361661257e+05 -4.9326731813633197e+05 +4.7316918012160921e+08 
+7.5999999999999890e+00 -1.0320962078195528e+00 +2.2940360500135819e+00 +2.6929606068669521e+01 +5.8694219901207788e+01 -1.0599514920403164e+05 -3.7869399030654627e+05 +4.6446966923592734e+08 
+7.6999999999999886e+00 -1.0320997379704411e+00 +2.2946454924156536e+00 +2.6950556257051002e+01 +3.8212251978041074e+01 -1.0487709538114426e+05 -2.6148208503045086e+05 +4.5552944176262444e+08 
+7.7999999999999883e+00 -1.0321031756358292e+00 +2.2952591220105538e+00 +2.6967351601949957e+01 +1.7469333662367962e+01 -1.0370603855219232e+05 -1.4185812854683716e+05 +4.4638504598349100e+08 
+7.8999999999999879e+00 -1.0321065141017023e+00 +2.2958735615579204e+00 +2.6980114057892916e+01 -3.4751079952015456e+00 -1.0248865635804641e+05 -2.0048723209103140e+04 +4.3707303892852712e+08 
+7.9999999999999876e+00 -1.0321097466532656e+00 +2.2964854337412777e+00 +2.6988965581063908e+01 -2.4561636542825678e+01 -1.0123162751729910e+05 +1.0371944969114925e+05 +4.2762998568942010e+08 
+8.0999999999999872e+00 -1.0321128665749477e+00 +2.2970913611598069e+00 +2.6994028133508596e+01 -4.5730805694419203e+01 -9.9941631941072628e+04 +2.2921962673618618e+05 +4.1809246006421828e+08 
+8.1999999999999869e+00 -1.0321158671502904e+00 +2.2976879663281000e+00 +2.6995423670430597e+01 -6.6923159083365121e+01 -9.8625350504983988e+04 +3.5622496014871134e+05 +4.0849704350718522e+08 
+8.2999999999999865e+00 -1.0321187416620230e+00 +2.2982718716737298e+00 +2.6993274154761931e+01 -8.8079229991253484e+01 -9.7289465376438355e+04 +4.8450851552234130e+05 +3.9888032683133519e+08 
+8.3999999999999861e+00 -1.0321214833919630e+00 +2.2988396995323863e+00 +2.6987701544934787e+01 -1.0913954099079311e+02 -9.5940659788057485e+04 +6.1384326901382860e+05 +3.8927890914421815e+08 
+8.4999999999999858e+00 -1.0321240856210689e+00 +2.2993880721584454e+00 +2.6978827810183127e+01 -1.3004460313591966e+02 -9.4585618291726962e+04 +7.4400209927930613e+05 +3.7972939885572624e+08 
+8.5999999999999854e+00 -1.0321265438866347e+00 +2.2999142012663558e+00 +2.6966801351540795e+01 -1.5074270116975211e+02 -9.3230478521868412e+04 +8.7477181027766317e+05 +3.7026431931086451e+08 
+8.6999999999999851e+00 -1.0321288617664444e+00 +2.3004180517555910e+00 +2.6951668990226974e+01 -1.7122364120747534e+02 -9.1875390915726894e+04 +1.0060412988775511e+06 +3.6088367757253581e+08 
+8.7999999999999847e+00 -1.0321310445903151e+00 +2.3009003978930660e+00 +2.6933395909724400e+01 -1.9149058274558135e+02 -9.0517956344244099e+04 +1.1377370663865213e+06 +3.5157484936562258e+08 
+8.8999999999999844e+00 -1.0321330976876713e+00 +2.3013620141189941e+00 +2.6911947184145234e+01 -2.1154669066477229e+02 -8.9155773082016050e+04 +1.2697856350730017e+06 +3.4232519786471164e+08 
+8.9999999999999840e+00 -1.0321350263877724e+00 +2.3018036749210626e+00 +2.6887287828609740e+01 -2.3139513275982023e+02 -8.7786437821275103e+04 +1.4021135474192495e+06 +3.3312207766367882e+08 
+9.0999999999999837e+00 -1.0321368360196941e+00 +2.3022261548360046e+00 +2.6859382794798069e+01 -2.5103907988602086e+02 -8.6407545564789383e+04 +1.5346473672471126e+06 +3.2395283421040809e+08 
+9.1999999999999833e+00 -1.0321385319123031e+00 +2.3026302284513585e+00 +2.6828196966244501e+01 -2.7048170604670810e+02 -8.5016689518875864e+04 +1.6673136803197586e+06 +3.1480480325468957e+08 
+9.2999999999999829e+00 -1.0321401193942676e+00 +2.3030166704018553e+00 +2.6793695157935780e+01 -2.8972618841422803e+02 -8.3611461061834518e+04 +1.8000390948058516e+06 +3.0566531063552487e+08 
+9.3999999999999826e+00 -1.0321416037940609e+00 +2.3033862553738134e+00 +2.6755842114614332e+01 -3.0877570749587227e+02 -8.2189449693589268e+04 +1.9327502423381521e+06 +2.9652167200072533e+08 
+9.4999999999999822e+00 -1.0321429904399484e+00 +2.3037397581050958e+00 +2.6714602508348566e+01 -3.2763344724278295e+02 -8.0748242971390486e+04 +2.0653737789542940e+06 +2.8736119245365536e+08 
+9.5999999999999819e+00 -1.0321442846599604e+00 +2.3040779533899998e+00 +2.6669940932454509e+01 -3.4630259526353558e+02 -7.9285426367793567e+04 +2.1978363865212533e+06 +2.7817116581043380e+08 
+9.6999999999999815e+00 -1.0321454917819357e+00 +2.3044016160684850e+00 +2.6621821906771476e+01 -3.6478634257497214e+02 -7.7798583364041013e+04 +2.3300647714603958e+06 +2.6893887503042293e+08 
+9.7999999999999812e+00 -1.0321466171334366e+00 +2.3047115210413911e+00 +2.6570209862590602e+01 -3.8308788415001800e+02 -7.6285295119438350e+04 +2.4619856682206178e+06 +2.5965159052771571e+08 
+9.8999999999999808e+00 -1.0321476660418605e+00 +2.3050084432597040e+00 +2.6515069158178857e+01 -4.0121041867396042e+02 -7.4743140777051391e+04 +2.5935258380379016e+06 +2.5029657166127601e+08 
+9.9999999999999805e+00 -1.0321486438342851e+00 +2.3052931577334403e+00 +2.6456364055656948e+01 -4.1915714886520436e+02 -7.3169696978801338e+04 +2.7246120709678638e+06 +2.4086106430346945e+08 
+1.0099999999999980e+01 -1.0321495558376010e+00 +2.3055664395259678e+00 +2.6394058736210425e+01 -4.3693128141973472e+02 -7.1562538145755549e+04 +2.8551711858686171e+06 +2.3133230215995952e+08 
