# field on trajectory
# s[mm] rx[mm] ry[mm] rz[mm] bx[T] by[T] bz[T]
0.0000000000000000e+00 +9.1076201166355002e+00 +0.0000000000000000e+00 +0.0000000000000000e+00 +1.1507864225205217e-02 -1.0340749849908819e+00 -5.8962862362614887e-02
1.0005104645227200e-01 +9.1076196006322601e+00 +0.0000000000000000e+00 +1.0005104645049701e-01 +1.1507775657660292e-02 -1.0340744957809342e+00 -5.8962441243994683e-02
2.0010209290454301e-01 +9.1076180526189905e+00 +0.0000000000000000e+00 +2.0010209289035000e-01 +1.1507680017007428e-02 -1.0340740919254603e+00 -5.8962020574500215e-02
3.0015313935681498e-01 +9.1076154725992300e+00 +0.0000000000000000e+00 +3.0015313930891202e-01 +1.1507576329430096e-02 -1.0340737796985442e+00 -5.8961601019863995e-02
4.0020418580908601e-01 +9.1076118605712200e+00 +0.0000000000000000e+00 +4.0020418569554000e-01 +1.1507463621138508e-02 -1.0340735653734252e+00 -5.8961183245774970e-02
5.0025523226135804e-01 +9.1076072165331805e+00 +0.0000000000000000e+00 +5.0025523203958799e-01 +1.1507340918374047e-02 -1.0340734552224335e+00 -5.8960767917879443e-02
6.0030627871362996e-01 +9.1076015404886608e+00 +0.0000000000000000e+00 +6.0030627833041095e-01 +1.1507207614442299e-02 -1.0340734547048971e+00 -5.8960355682709562e-02
7.0035732516590099e-01 +9.1075948324376501e+00 +0.0000000000000000e+00 +7.0035732455736299e-01 +1.1507064559600867e-02 -1.0340735660557299e+00 -5.8959947111058626e-02
8.0040837161817302e-01 +9.1075870923766207e+00 +0.0000000000000000e+00 +8.0040837070980198e-01 +1.1506912965573372e-02 -1.0340737907089235e+00 -5.8959542754929983e-02
9.0045941807044405e-01 +9.1075783203073204e+00 +0.0000000000000000e+00 +9.0045941677707997e-01 +1.1506754044087002e-02 -1.0340741300971001e+00 -5.8959143166333224e-02
1.0005104645227201e+00 +9.1075685162297706e+00 +0.0000000000000000e+00 +1.0005104627485499e+00 +1.1506589006865721e-02 -1.0340745856514157e+00 -5.8958748897297270e-02
1.1005615109749900e+00 +9.1075576801457405e+00 +0.0000000000000000e+00 +1.1005615086135800e+00 +1.1506419065623346e-02 -1.0340751588014383e+00 -5.8958360499882310e-02
1.2006125574272599e+00 +9.1075458120516792e+00 +0.0000000000000000e+00 +1.2006125543615100e+00 +1.1506245432056790e-02 -1.0340758509750578e+00 -5.8957978526193063e-02
1.3006636038795301e+00 +9.1075329119511395e+00 +0.0000000000000000e+00 +1.3006635999817000e+00 +1.1506069317838935e-02 -1.0340766635983372e+00 -5.8957603528389455e-02
1.4007146503318000e+00 +9.1075189798405596e+00 +0.0000000000000000e+00 +1.4007146454635000e+00 +1.1505891934612043e-02 -1.0340775980954400e+00 -5.8957236058700825e-02
1.5007656967840699e+00 +9.1075040157234994e+00 +0.0000000000000000e+00 +1.5007656907962801e+00 +1.1505714493980608e-02 -1.0340786558884825e+00 -5.8956876669436539e-02
1.6008167432363500e+00 +9.1074880195981898e+00 +0.0000000000000000e+00 +1.6008167359693799e+00 +1.1505538207504674e-02 -1.0340798383974488e+00 -5.8956525912999720e-02
1.7008677896886200e+00 +9.1074709914646199e+00 +0.0000000000000000e+00 +1.7008677809721600e+00 +1.1505364286692856e-02 -1.0340811470400659e+00 -5.8956184341898810e-02
1.8009188361408901e+00 +9.1074529313228005e+00 +0.0000000000000000e+00 +1.8009188257939699e+00 +1.1505193942995463e-02 -1.0340825832316909e+00 -5.8955852508760079e-02
1.9009698825931600e+00 +9.1074338391727103e+00 +0.0000000000000000e+00 +1.9009698704241800e+00 +1.1505028387797652e-02 -1.0340841483852046e+00 -5.8955530966340063e-02
2.0010209290454299e+00 +9.1074137150161505e+00 +0.0000000000000000e+00 +2.0010209148521301e+00 +1.1504868832412474e-02 -1.0340858439108884e+00 -5.8955220267537536e-02
2.1010719754977001e+00 +9.1073925588495506e+00 +0.0000000000000000e+00 +2.1010719590671898e+00 +1.1504716488074140e-02 -1.0340876712163365e+00 -5.8954920965406853e-02
2.2011230219499698e+00 +9.1073703706746993e+00 +0.0000000000000000e+00 +2.2011230030586999e+00 +1.1504572565930940e-02 -1.0340896317063120e+00 -5.8954633613168904e-02
2.3011740684022501e+00 +9.1073471504933696e+00 +0.0000000000000000e+00 +2.3011740468160200e+00 +1.1504438277038467e-02 -1.0340917267826484e+00 -5.8954358764224113e-02
2.4012251148545198e+00 +9.1073228983037797e+00 +0.0000000000000000e+00 +2.4012250903285000e+00 +1.1504314832352766e-02 -1.0340939578441499e+00 -5.8954096972165249e-02
2.5012761613067900e+00 +9.1072976141041497e+00 +0.0000000000000000e+00 +2.5012761335854998e+00 +1.1504203442722551e-02 -1.0340963262864631e+00 -5.8953848790788951e-02
2.6013272077590601e+00 +9.1072712978980501e+00 +0.0000000000000000e+00 +2.6013271765763899e+00 +1.1504104885279722e-02 -1.0340988315200650e+00 -5.8953614579564537e-02
2.7013782542113298e+00 +9.1072439496836903e+00 +0.0000000000000000e+00 +2.7013782192905000e+00 +1.1504018267775635e-02 -1.0341014653236960e+00 -5.8953393949162942e-02
2.8014293006636000e+00 +9.1072155694610704e+00 +0.0000000000000000e+00 +2.8014292617172001e+00 +1.1503942296324239e-02 -1.0341042176413704e+00 -5.8953186330105205e-02
2.9014803471158799e+00 +9.1071861572302009e+00 +0.0000000000000000e+00 +2.9014803038458301e+00 +1.1503875677081263e-02 -1.0341070784189716e+00 -5.8952991152954423e-02
3.0015313935681500e+00 +9.1071557129910694e+00 +0.0000000000000000e+00 +3.0015313456657702e+00 +1.1503817116251971e-02 -1.0341100376045986e+00 -5.8952807848310522e-02
3.1015824400204202e+00 +9.1071242367454595e+00 +0.0000000000000000e+00 +3.1015823871663502e+00 +1.1503765320098870e-02 -1.0341130851489029e+00 -5.8952635846804657e-02
3.2016334864726899e+00 +9.1070917284915893e+00 +0.0000000000000000e+00 +3.2016334283369399e+00 +1.1503718994949579e-02 -1.0341162110054460e+00 -5.8952474579094701e-02
3.3016845329249600e+00 +9.1070581882277004e+00 +0.0000000000000000e+00 +3.3016844691668901e+00 +1.1503676847204502e-02 -1.0341194051310343e+00 -5.8952323475859471e-02
3.4017355793772301e+00 +9.1070236159573206e+00 +0.0000000000000000e+00 +3.4017355096455599e+00 +1.1503637583344531e-02 -1.0341226574860500e+00 -5.8952181967792804e-02
3.5017866258295101e+00 +9.1069880116786806e+00 +0.0000000000000000e+00 +3.5017865497623002e+00 +1.1503599909938940e-02 -1.0341259580348203e+00 -5.8952049485599567e-02
3.6018376722817802e+00 +9.1069513753917892e+00 +0.0000000000000000e+00 +3.6018375895064700e+00 +1.1503562533653072e-02 -1.0341292967459441e+00 -5.8951925459989542e-02
3.7018887187340499e+00 +9.1069137070966395e+00 +0.0000000000000000e+00 +3.7018886288674100e+00 +1.1503524161256084e-02 -1.0341326635926396e+00 -5.8951809321672426e-02
3.8019397651863200e+00 +9.1068750067950095e+00 +0.0000000000000000e+00 +3.8019396678344899e+00 +1.1503483499628707e-02 -1.0341360485530828e+00 -5.8951700501352101e-02
3.9019908116385902e+00 +9.1068352744833394e+00 +0.0000000000000000e+00 +3.9019907063970600e+00 +1.1503439255771113e-02 -1.0341394416107696e+00 -5.8951598429722488e-02
4.0020418580908599e+00 +9.1067945101634198e+00 +0.0000000000000000e+00 +4.0020417445444796e+00 +1.1503390136810510e-02 -1.0341428327548354e+00 -5.8951502537460891e-02
4.1020929045431300e+00 +9.1067527138370199e+00 +0.0000000000000000e+00 +4.1020927822660997e+00 +1.1503334850008963e-02 -1.0341462119804068e+00 -5.8951412255223198e-02
4.2021439509954099e+00 +9.1067098855023705e+00 +0.0000000000000000e+00 +4.2021438195512797e+00 +1.1503272102771259e-02 -1.0341495692889580e+00 -5.8951327013639303e-02
4.3021949974476801e+00 +9.1066660251594502e+00 +0.0000000000000000e+00 +4.3021948563893604e+00 +1.1503200602652544e-02 -1.0341528946886405e+00 -5.8951246243306964e-02
4.4022460438999502e+00 +9.1066211328065094e+00 +0.0000000000000000e+00 +4.4022458927697201e+00 +1.1503119057366156e-02 -1.0341561781946349e+00 -5.8951169374787060e-02
4.5022970903522204e+00 +9.1065752084488594e+00 +0.0000000000000000e+00 +4.5022969286816901e+00 +1.1503026174795986e-02 -1.0341594098294955e+00 -5.8951095838597804e-02
4.6023481368044896e+00 +9.1065282520811692e+00 +0.0000000000000000e+00 +4.6023479641146396e+00 +1.1502921079711464e-02 -1.0341625814602347e+00 -5.8951025118496939e-02
4.7023991832567598e+00 +9.1064802637070095e+00 +0.0000000000000000e+00 +4.7023989990579196e+00 +1.1502804452965101e-02 -1.0341656918176063e+00 -5.8950956897139944e-02
4.8024502297090397e+00 +9.1064312433245895e+00 +0.0000000000000000e+00 +4.8024500335008904e+00 +1.1502677338491626e-02 -1.0341687412343252e+00 -5.8950890903514526e-02
4.9025012761613098e+00 +9.1063811909321402e+00 +0.0000000000000000e+00 +4.9025010674329002e+00 +1.1502540780190770e-02 -1.0341717300440554e+00 -5.8950826866499051e-02
5.0025523226135800e+00 +9.1063301065332105e+00 +0.0000000000000000e+00 +5.0025521008432996e+00 +1.1502395821923372e-02 -1.0341746585813547e+00 -5.8950764514854440e-02
5.1026033690658501e+00 +9.1062779901260207e+00 +0.0000000000000000e+00 +5.1026031337214599e+00 +1.1502243507507700e-02 -1.0341775271816525e+00 -5.8950703577217781e-02
5.2026544155181202e+00 +9.1062248417123506e+00 +0.0000000000000000e+00 +5.2026541660567203e+00 +1.1502084880715495e-02 -1.0341803361811819e+00 -5.8950643782093692e-02
5.3027054619703904e+00 +9.1061706612886404e+00 +0.0000000000000000e+00 +5.3027051978384501e+00 +1.1501920985268274e-02 -1.0341830859169578e+00 -5.8950584857847925e-02
5.4027565084226703e+00 +9.1061154488584606e+00 +0.0000000000000000e+00 +5.4027562290559903e+00 +1.1501752864833313e-02 -1.0341857767267009e+00 -5.8950526532698201e-02
5.5028075548749404e+00 +9.1060592044200206e+00 +0.0000000000000000e+00 +5.5028072596986997e+00 +1.1501581563019996e-02 -1.0341884089488185e+00 -5.8950468534708214e-02
5.6028586013272097e+00 +9.1060019279733204e+00 +0.0000000000000000e+00 +5.6028582897559396e+00 +1.1501408123375892e-02 -1.0341909829223461e+00 -5.8950410591779141e-02
5.7029096477794798e+00 +9.1059436195183707e+00 +0.0000000000000000e+00 +5.7029093192170599e+00 +1.1501233589382938e-02 -1.0341934989869039e+00 -5.8950352431642324e-02
5.8029606942317500e+00 +9.1058842790551608e+00 +0.0000000000000000e+00 +5.8029603480714202e+00 +1.1501059004453607e-02 -1.0341959574826509e+00 -5.8950293781851723e-02
5.9030117406840201e+00 +9.1058239065854707e+00 +0.0000000000000000e+00 +5.9030113763083696e+00 +1.1500885411927078e-02 -1.0341983587502348e+00 -5.8950234369776089e-02
6.0030627871363000e+00 +9.1057625021075204e+00 +0.0000000000000000e+00 +6.0030624039172604e+00 +1.1500713855065445e-02 -1.0342007031307598e+00 -5.8950173922592081e-02
6.1031138335885702e+00 +9.1057000656213205e+00 +0.0000000000000000e+00 +6.1031134308874604e+00 +1.1500545377049842e-02 -1.0342029909657282e+00 -5.8950112167276018e-02
6.2031648800408403e+00 +9.1056365971268605e+00 +0.0000000000000000e+00 +6.2031644572083096e+00 +1.1500381020976612e-02 -1.0342052225969978e+00 -5.8950048830596583e-02
6.3032159264931096e+00 +9.1055720966241402e+00 +0.0000000000000000e+00 +6.3032154828691800e+00 +1.1500221829853489e-02 -1.0342073983667361e+00 -5.8949983639107188e-02
6.4032669729453797e+00 +9.1055065641149504e+00 +0.0000000000000000e+00 +6.4032665078594100e+00 +1.1500068846595740e-02 -1.0342095186173728e+00 -5.8949916319138214e-02
6.5033180193976499e+00 +9.1054399995957205e+00 +0.0000000000000000e+00 +6.5033175321683601e+00 +1.1499923114012368e-02 -1.0342115836916110e+00 -5.8949846596793420e-02
6.6033690658499298e+00 +9.1053724030699996e+00 +0.0000000000000000e+00 +6.6033685557853898e+00 +1.1499785369922248e-02 -1.0342135952509410e+00 -5.8949774290107518e-02
6.7034201123021999e+00 +9.1053037745378091e+00 +0.0000000000000000e+00 +6.7034195786998501e+00 +1.1499655247854793e-02 -1.0342155597319451e+00 -5.8949699550773248e-02
6.8034711587544701e+00 +9.1052341139955892e+00 +0.0000000000000000e+00 +6.8034706009011003e+00 +1.1499532131418926e-02 -1.0342174846501779e+00 -5.8949622606024758e-02
6.9035222052067402e+00 +9.1051634214468908e+00 +0.0000000000000000e+00 +6.9035216223784897e+00 +1.1499415404209000e-02 -1.0342193775190660e+00 -5.8949543683112095e-02
7.0035732516590103e+00 +9.1050916968899305e+00 +0.0000000000000000e+00 +7.0035726431213803e+00 +1.1499304449804635e-02 -1.0342212458498166e+00 -5.8949463009304953e-02
7.1036242981112796e+00 +9.1050189403247099e+00 +0.0000000000000000e+00 +7.1036236631191203e+00 +1.1499198651770258e-02 -1.0342230971512776e+00 -5.8949380811894249e-02
7.2036753445635497e+00 +9.1049451517530091e+00 +0.0000000000000000e+00 +7.2036746823610702e+00 +1.1499097393654716e-02 -1.0342249389298153e+00 -5.8949297318194399e-02
7.3037263910158297e+00 +9.1048703311712806e+00 +0.0000000000000000e+00 +7.3037257008365799e+00 +1.1499000058991035e-02 -1.0342267786892085e+00 -5.8949212755546543e-02
7.4037774374680998e+00 +9.1047944785830701e+00 +0.0000000000000000e+00 +7.4037767185350001e+00 +1.1498906031295837e-02 -1.0342286239304961e+00 -5.8949127351319353e-02
7.5038284839203699e+00 +9.1047175939865994e+00 +0.0000000000000000e+00 +7.5038277354457001e+00 +1.1498814694069208e-02 -1.0342304821518846e+00 -5.8949041332912865e-02
7.6038795303726401e+00 +9.1046396773836609e+00 +0.0000000000000000e+00 +7.6038787515580202e+00 +1.1498725430794148e-02 -1.0342323608486046e+00 -5.8948954927759777e-02
7.7039305768249102e+00 +9.1045607287706805e+00 +0.0000000000000000e+00 +7.7039297668613296e+00 +1.1498637624936383e-02 -1.0342342675128087e+00 -5.8948868363328848e-02
7.8039816232771804e+00 +9.1044807481512198e+00 +0.0000000000000000e+00 +7.8039807813449800e+00 +1.1498550659943764e-02 -1.0342362096334201e+00 -5.8948781867125731e-02
7.9040326697294496e+00 +9.1043997355235007e+00 +0.0000000000000000e+00 +7.9040317949983097e+00 +1.1498463919246124e-02 -1.0342381946960377e+00 -5.8948695666696770e-02
8.0040837161817304e+00 +9.1043176908892995e+00 +0.0000000000000000e+00 +8.0040828078106898e+00 +1.1498376786254767e-02 -1.0342402301827960e+00 -5.8948609989630328e-02
8.1041347626340006e+00 +9.1042346142468507e+00 +0.0000000000000000e+00 +8.1041338197714801e+00 +1.1498288644362196e-02 -1.0342423235722547e+00 -5.8948525063559958e-02
8.2041858090862707e+00 +9.1041505055961398e+00 +0.0000000000000000e+00 +8.2041848308700196e+00 +1.1498198876941678e-02 -1.0342444823392674e+00 -5.8948441116166095e-02
8.3042368555385409e+00 +9.1040653649371706e+00 +0.0000000000000000e+00 +8.3042358410956805e+00 +1.1498106867346895e-02 -1.0342467139548608e+00 -5.8948358375178617e-02
8.4042879019908092e+00 +9.1039791922699393e+00 +0.0000000000000000e+00 +8.4042868504377992e+00 +1.1498011998911579e-02 -1.0342490258861123e+00 -5.8948277068379136e-02
8.5043389484430794e+00 +9.1038919875980202e+00 +0.0000000000000000e+00 +8.5043378588857408e+00 +1.1497913654963861e-02 -1.0342514255957820e+00 -5.8948197423612923e-02
8.6043899948953602e+00 +9.1038037509160592e+00 +0.0000000000000000e+00 +8.6043888664288701e+00 +1.1497811424792724e-02 -1.0342539172296126e+00 -5.8948119807299880e-02
8.7044410413476303e+00 +9.1037144822276108e+00 +0.0000000000000000e+00 +8.7044398730565202e+00 +1.1497705621312099e-02 -1.0342564932917344e+00 -5.8948045072483107e-02
8.8044920877999004e+00 +9.1036241815309200e+00 +0.0000000000000000e+00 +8.8044908787580596e+00 +1.1497596716284929e-02 -1.0342591437301085e+00 -5.8947974178924868e-02
8.9045431342521706e+00 +9.1035328488259601e+00 +0.0000000000000000e+00 +8.9045418835228496e+00 +1.1497485181508185e-02 -1.0342618584909951e+00 -5.8947908086290253e-02
9.0045941807044407e+00 +9.1034404841127508e+00 +0.0000000000000000e+00 +9.0045928873402303e+00 +1.1497371488814074e-02 -1.0342646275189193e+00 -5.8947847754145327e-02
9.1046452271567109e+00 +9.1033470873930593e+00 +0.0000000000000000e+00 +9.1046438901995597e+00 +1.1497256110071179e-02 -1.0342674407566226e+00 -5.8947794141954696e-02
9.2046962736089899e+00 +9.1032526586651095e+00 +0.0000000000000000e+00 +9.2046948920902096e+00 +1.1497139517185737e-02 -1.0342702881450321e+00 -5.8947748209080095e-02
9.3047473200612600e+00 +9.1031571979306793e+00 +0.0000000000000000e+00 +9.3047458930015097e+00 +1.1497022182102683e-02 -1.0342731596232027e+00 -5.8947710914777310e-02
9.4047983665135302e+00 +9.1030607051879997e+00 +0.0000000000000000e+00 +9.4047968929228301e+00 +1.1496904576806946e-02 -1.0342760451282895e+00 -5.8947683218194956e-02
9.5048494129658003e+00 +9.1029631804370599e+00 +0.0000000000000000e+00 +9.5048478918435304e+00 +1.1496787173324556e-02 -1.0342789345954946e+00 -5.8947666078371638e-02
9.6049004594180705e+00 +9.1028646236796291e+00 +0.0000000000000000e+00 +9.6048988897529508e+00 +1.1496670443723780e-02 -1.0342818179580227e+00 -5.8947660454233823e-02
9.7049515058703406e+00 +9.1027650349139595e+00 +0.0000000000000000e+00 +9.7049498866404598e+00 +1.1496554860116418e-02 -1.0342846851470524e+00 -5.8947667304594255e-02
9.8050025523226108e+00 +9.1026644141418007e+00 +0.0000000000000000e+00 +9.8050008824953991e+00 +1.1496440894658847e-02 -1.0342875260916757e+00 -5.8947687588149139e-02
9.9050535987748898e+00 +9.1025627613596107e+00 +0.0000000000000000e+00 +9.9050518773071392e+00 +1.1496329019553343e-02 -1.0342903307188784e+00 -5.8947722263476901e-02
1.0005104645227201e+01 +9.1024600765709298e+00 +0.0000000000000000e+00 +1.0005102871065001e+01 +1.1496219707049032e-02 -1.0342930889534658e+00 -5.8947772289034507e-02
1.0105155691679400e+01 +9.1023563597757793e+00 +0.0000000000000000e+00 +1.0105153863758400e+01 +1.1496113429443266e-02 -1.0342957907180470e+00 -5.8947838623156688e-02
1.0205206738131700e+01 +9.1022516109723703e+00 +0.0000000000000000e+00 +1.0205204855376600e+01 +1.1496010659082739e-02 -1.0342984259329884e+00 -5.8947922224053581e-02
1.0305257784584001e+01 +9.1021458301607101e+00 +0.0000000000000000e+00 +1.0305255845909100e+01 +1.1495911868364616e-02 -1.0343009845163613e+00 -5.8948024049808014e-02
1.0405308831036200e+01 +9.1020390173425607e+00 +0.0000000000000000e+00 +1.0405306835345099e+01 +1.1495817529737698e-02 -1.0343034563839009e+00 -5.8948145058373459e-02
1.0505359877488500e+01 +9.1019311725161600e+00 +0.0000000000000000e+00 +1.0505357823674100e+01 +1.1495728115681525e-02 -1.0343058314492464e+00 -5.8948286207532848e-02
1.0605410923940800e+01 +9.1018222956832808e+00 +0.0000000000000000e+00 +1.0605408810885301e+01 +1.1495643930182608e-02 -1.0343081016804816e+00 -5.8948448153402451e-02
1.0705461970393101e+01 +9.1017123868421397e+00 +0.0000000000000000e+00 +1.0705459796968199e+01 +1.1495564702845049e-02 -1.0343102660546761e+00 -5.8948630524251540e-02
1.0805513016845300e+01 +9.1016014459927401e+00 +0.0000000000000000e+00 +1.0805510781912000e+01 +1.1495490040995161e-02 -1.0343123250426003e+00 -5.8948832729262032e-02
1.0905564063297600e+01 +9.1014894731368603e+00 +0.0000000000000000e+00 +1.0905561765706199e+01 +1.1495419551932244e-02 -1.0343142791171311e+00 -5.8949054177223223e-02
1.1005615109749900e+01 +9.1013764682745109e+00 +0.0000000000000000e+00 +1.1005612748340100e+01 +1.1495352842927874e-02 -1.0343161287533229e+00 -5.8949294276524448e-02
1.1105666156202100e+01 +9.1012624314038906e+00 +0.0000000000000000e+00 +1.1105663729803000e+01 +1.1495289521225197e-02 -1.0343178744284749e+00 -5.8949552435147101e-02
1.1205717202654400e+01 +9.1011473625250208e+00 +0.0000000000000000e+00 +1.1205714710084401e+01 +1.1495229194038139e-02 -1.0343195166221815e+00 -5.8949828060656309e-02
1.1305768249106700e+01 +9.1010312616396707e+00 +0.0000000000000000e+00 +1.1305765689173500e+01 +1.1495171468550693e-02 -1.0343210558163969e+00 -5.8950120560193178e-02
1.1405819295559001e+01 +9.1009141287460693e+00 +0.0000000000000000e+00 +1.1405816667059700e+01 +1.1495115951916266e-02 -1.0343224924955143e+00 -5.8950429340467514e-02
1.1505870342011200e+01 +9.1007959638459806e+00 +0.0000000000000000e+00 +1.1505867643732399e+01 +1.1495062251256851e-02 -1.0343238271464077e+00 -5.8950753807749064e-02
1.1605921388463500e+01 +9.1006767669376405e+00 +0.0000000000000000e+00 +1.1605918619181001e+01 +1.1495009973662410e-02 -1.0343250602585170e+00 -5.8951093367860544e-02
1.1705972434915800e+01 +9.1005565380228095e+00 +0.0000000000000000e+00 +1.1705969593394700e+01 +1.1494958726190059e-02 -1.0343261923238907e+00 -5.8951447426168875e-02
1.1806023481367999e+01 +9.1004352770997308e+00 +0.0000000000000000e+00 +1.1806020566362900e+01 +1.1494908115863428e-02 -1.0343272238372687e+00 -5.8951815387578266e-02
