# trajectory
# s[mm] rx[mm] ry[mm] rz[mm] px[rad] py[rad] pz[rad]
0.0000000000000000e+00 +9.0449999999999999e+00 +0.0000000000000000e+00 +0.0000000000000000e+00 +0.0000000000000000e+00 +0.0000000000000000e+00 +1.0000000000000000e+00
1.0000000000000001e-01 +9.0449994834941840e+00 +0.0000000000000000e+00 +9.9999999998221484e-02 -1.0330110718568304e-05 +0.0000000000000000e+00 +9.9999999994664446e-01
2.0000000000000001e-01 +9.0449979339790154e+00 +0.0000000000000000e+00 +1.9999999998577186e-01 -2.0660186751420313e-05 +0.0000000000000000e+00 +9.9999999978657839e-01
3.0000000000000004e-01 +9.0449953514580255e+00 +0.0000000000000000e+00 +2.9999999995198018e-01 -3.0990227086633087e-05 +0.0000000000000000e+00 +9.9999999951980301e-01
4.0000000000000002e-01 +9.0449917359347740e+00 +0.0000000000000000e+00 +3.9999999988617552e-01 -4.1320232168740488e-05 +0.0000000000000000e+00 +9.9999999914631932e-01
5.0000000000000000e-01 +9.0449870874127054e+00 +0.0000000000000000e+00 +4.9999999977768711e-01 -5.1650203898736059e-05 +0.0000000000000000e+00 +9.9999999866612832e-01
5.9999999999999998e-01 +9.0449814058949976e+00 +0.0000000000000000e+00 +5.9999999961584427e-01 -6.1980145566885070e-05 +0.0000000000000000e+00 +9.9999999807923090e-01
6.9999999999999996e-01 +9.0449746913844624e+00 +0.0000000000000000e+00 +6.9999999938997637e-01 -7.2310061113604510e-05 +0.0000000000000000e+00 +9.9999999738562761e-01
7.9999999999999993e-01 +9.0449669438835176e+00 +0.0000000000000000e+00 +7.9999999908941288e-01 -8.2639954390352155e-05 +0.0000000000000000e+00 +9.9999999658531902e-01
8.9999999999999991e-01 +9.0449581633942042e+00 +0.0000000000000000e+00 +8.9999999870348335e-01 -9.2969829092460129e-05 +0.0000000000000000e+00 +9.9999999567830544e-01
9.9999999999999989e-01 +9.0449483499182008e+00 +0.0000000000000000e+00 +9.9999999822151719e-01 -1.0329968875916891e-04 +0.0000000000000000e+00 +9.9999999466458711e-01
1.0999999999999999e+00 +9.0449375034568416e+00 +0.0000000000000000e+00 +1.0999999976328438e+00 -1.1362953677366789e-04 +0.0000000000000000e+00 +9.9999999354416413e-01
1.2000000000000000e+00 +9.0449256240111282e+00 +0.0000000000000000e+00 +1.1999999969267932e+00 -1.2395937636314257e-04 +0.0000000000000000e+00 +9.9999999231703640e-01
1.3000000000000000e+00 +9.0449127115817483e+00 +0.0000000000000000e+00 +1.2999999960926945e+00 -1.3428921059882828e-04 +0.0000000000000000e+00 +9.9999999098320380e-01
1.4000000000000001e+00 +9.0448987661690907e+00 +0.0000000000000000e+00 +1.3999999951198772e+00 -1.4461904239607064e-04 +0.0000000000000000e+00 +9.9999998954266611e-01
1.5000000000000002e+00 +9.0448837877732586e+00 +0.0000000000000000e+00 +1.4999999939976709e+00 -1.5494887451439256e-04 +0.0000000000000000e+00 +9.9999998799542300e-01
1.6000000000000003e+00 +9.0448677763940903e+00 +0.0000000000000000e+00 +1.5999999927154049e+00 -1.6527870951889282e-04 +0.0000000000000000e+00 +9.9999998634147391e-01
1.7000000000000004e+00 +9.0448507320311915e+00 +0.0000000000000000e+00 +1.6999999912624089e+00 -1.7560854935488076e-04 +0.0000000000000000e+00 +9.9999998458081851e-01
1.8000000000000005e+00 +9.0448326546840256e+00 +0.0000000000000000e+00 +1.7999999896280119e+00 -1.8593839492242578e-04 +0.0000000000000000e+00 +9.9999998271345647e-01
1.9000000000000006e+00 +9.0448135443520208e+00 +0.0000000000000000e+00 +1.8999999878015432e+00 -1.9626824603759751e-04 +0.0000000000000000e+00 +9.9999998073938756e-01
2.0000000000000004e+00 +9.0447934010346742e+00 +0.0000000000000000e+00 +1.9999999857723325e+00 -2.0659810143236097e-04 +0.0000000000000000e+00 +9.9999997865861201e-01
2.1000000000000005e+00 +9.0447722247316680e+00 +0.0000000000000000e+00 +2.0999999835297087e+00 -2.1692795875445447e-04 +0.0000000000000000e+00 +9.9999997647113004e-01
2.2000000000000006e+00 +9.0447500154429719e+00 +0.0000000000000000e+00 +2.1999999810630015e+00 -2.2725781456724991e-04 +0.0000000000000000e+00 +9.9999997417694253e-01
2.3000000000000007e+00 +9.0447267731689536e+00 +0.0000000000000000e+00 +2.2999999783615404e+00 -2.3758766434959551e-04 +0.0000000000000000e+00 +9.9999997177605049e-01
2.4000000000000008e+00 +9.0447024979104871e+00 +0.0000000000000000e+00 +2.3999999754146550e+00 -2.4791750249564124e-04 +0.0000000000000000e+00 +9.9999996926845547e-01
2.5000000000000009e+00 +9.0446771896690628e+00 +0.0000000000000000e+00 +2.4999999722116750e+00 -2.5824732231464662e-04 +0.0000000000000000e+00 +9.9999996665415969e-01
2.6000000000000010e+00 +9.0446508484468904e+00 +0.0000000000000000e+00 +2.5999999687419306e+00 -2.6857711616474692e-04 +0.0000000000000000e+00 +9.9999996393316570e-01
2.7000000000000011e+00 +9.0446234742469365e+00 +0.0000000000000000e+00 +2.6999999649947517e+00 -2.7890687692650921e-04 +0.0000000000000000e+00 +9.9999996110547629e-01
2.8000000000000012e+00 +9.0445950670727822e+00 +0.0000000000000000e+00 +2.7999999609594695e+00 -2.8923659947668455e-04 +0.0000000000000000e+00 +9.9999995817109388e-01
2.9000000000000012e+00 +9.0445656269284171e+00 +0.0000000000000000e+00 +2.8999999566254142e+00 -2.9956628082232245e-04 +0.0000000000000000e+00 +9.9999995513002071e-01
3.0000000000000013e+00 +9.0445351538180230e+00 +0.0000000000000000e+00 +2.9999999519819172e+00 -3.0989592010093308e-04 +0.0000000000000000e+00 +9.9999995198225822e-01
3.1000000000000014e+00 +9.0445036477457599e+00 +0.0000000000000000e+00 +3.0999999470183095e+00 -3.2022551858066717e-04 +0.0000000000000000e+00 +9.9999994872780729e-01
3.2000000000000015e+00 +9.0444711087155554e+00 +0.0000000000000000e+00 +3.1999999417239224e+00 -3.3055507966051393e-04 +0.0000000000000000e+00 +9.9999994536666814e-01
3.3000000000000016e+00 +9.0444375367308929e+00 +0.0000000000000000e+00 +3.2999999360880867e+00 -3.4088460887051652e-04 +0.0000000000000000e+00 +9.9999994189884001e-01
3.4000000000000017e+00 +9.0444029317945915e+00 +0.0000000000000000e+00 +3.3999999301001340e+00 -3.5121411387200528e-04 +0.0000000000000000e+00 +9.9999993832432121e-01
3.5000000000000018e+00 +9.0443672939086017e+00 +0.0000000000000000e+00 +3.4999999237493946e+00 -3.6154360445784888e-04 +0.0000000000000000e+00 +9.9999993464310888e-01
3.6000000000000019e+00 +9.0443306230737885e+00 +0.0000000000000000e+00 +3.5999999170251993e+00 -3.7187309235977412e-04 +0.0000000000000000e+00 +9.9999993085519923e-01
3.7000000000000020e+00 +9.0442929192898305e+00 +0.0000000000000000e+00 +3.6999999099168779e+00 -3.8220258912615660e-04 +0.0000000000000000e+00 +9.9999992696058781e-01
3.8000000000000020e+00 +9.0442541825553562e+00 +0.0000000000000000e+00 +3.7999999024137598e+00 -3.9253210399958050e-04 +0.0000000000000000e+00 +9.9999992295927076e-01
3.9000000000000021e+00 +9.0442144128681985e+00 +0.0000000000000000e+00 +3.8999998945051750e+00 -4.0286164372375764e-04 +0.0000000000000000e+00 +9.9999991885124473e-01
4.0000000000000018e+00 +9.0441736102256378e+00 +0.0000000000000000e+00 +3.9999998861804520e+00 -4.1319121254337692e-04 +0.0000000000000000e+00 +9.9999991463650728e-01
4.1000000000000014e+00 +9.0441317746246579e+00 +0.0000000000000000e+00 +4.0999998774289192e+00 -4.2352081220394254e-04 +0.0000000000000000e+00 +9.9999991031505675e-01
4.2000000000000011e+00 +9.0440889060621910e+00 +0.0000000000000000e+00 +4.1999998682399058e+00 -4.3385044195160032e-04 +0.0000000000000000e+00 +9.9999990588689258e-01
4.3000000000000007e+00 +9.0440450045353700e+00 +0.0000000000000000e+00 +4.2999998586027406e+00 -4.4418009853295232e-04 +0.0000000000000000e+00 +9.9999990135201522e-01
4.4000000000000004e+00 +9.0440000700417791e+00 +0.0000000000000000e+00 +4.3999998485067522e+00 -4.5450977619486020e-04 +0.0000000000000000e+00 +9.9999989671042644e-01
4.5000000000000000e+00 +9.0439541025797006e+00 +0.0000000000000000e+00 +4.4999998379412691e+00 -4.6483946668423671e-04 +0.0000000000000000e+00 +9.9999989196212935e-01
4.5999999999999996e+00 +9.0439071021483670e+00 +0.0000000000000000e+00 +4.5999998268956208e+00 -4.7516915943402637e-04 +0.0000000000000000e+00 +9.9999988710712862e-01
4.6999999999999993e+00 +9.0438590687481035e+00 +0.0000000000000000e+00 +4.6999998153591376e+00 -4.8549884361123356e-04 +0.0000000000000000e+00 +9.9999988214542945e-01
4.7999999999999989e+00 +9.0438100023802352e+00 +0.0000000000000000e+00 +4.7999998033211497e+00 -4.9582851016514019e-04 +0.0000000000000000e+00 +9.9999987707703664e-01
4.8999999999999986e+00 +9.0437599030468956e+00 +0.0000000000000000e+00 +4.8999997907709885e+00 -5.0615815201361007e-04 +0.0000000000000000e+00 +9.9999987190195427e-01
4.9999999999999982e+00 +9.0437087707508290e+00 +0.0000000000000000e+00 +4.9999997776979841e+00 -5.1648776404320256e-04 +0.0000000000000000e+00 +9.9999986662018581e-01
5.0999999999999979e+00 +9.0436566054951886e+00 +0.0000000000000000e+00 +5.0999997640914687e+00 -5.2681734310929234e-04 +0.0000000000000000e+00 +9.9999986123173379e-01
5.1999999999999975e+00 +9.0436034072833476e+00 +0.0000000000000000e+00 +5.1999997499407744e+00 -5.3714688803619618e-04 +0.0000000000000000e+00 +9.9999985573659989e-01
5.2999999999999972e+00 +9.0435491761186952e+00 +0.0000000000000000e+00 +5.2999997352352324e+00 -5.4747639961730547e-04 +0.0000000000000000e+00 +9.9999985013478465e-01
5.3999999999999968e+00 +9.0434939120044451e+00 +0.0000000000000000e+00 +5.3999997199641747e+00 -5.5780588061522546e-04 +0.0000000000000000e+00 +9.9999984442628764e-01
5.4999999999999964e+00 +9.0434376149434357e+00 +0.0000000000000000e+00 +5.4999997041169335e+00 -5.6813533576192043e-04 +0.0000000000000000e+00 +9.9999983861110708e-01
5.5999999999999961e+00 +9.0433802849379354e+00 +0.0000000000000000e+00 +5.5999996876828400e+00 -5.7846477163068090e-04 +0.0000000000000000e+00 +9.9999983268923998e-01
5.6999999999999957e+00 +9.0433219219895165e+00 +0.0000000000000000e+00 +5.6999996706512253e+00 -5.8879419522622105e-04 +0.0000000000000000e+00 +9.9999982666068277e-01
5.7999999999999954e+00 +9.0432625260990971e+00 +0.0000000000000000e+00 +5.7999996530114197e+00 -5.9912361257466592e-04 +0.0000000000000000e+00 +9.9999982052543224e-01
5.8999999999999950e+00 +9.0432020972670450e+00 +0.0000000000000000e+00 +5.8999996347527546e+00 -6.0945302859533837e-04 +0.0000000000000000e+00 +9.9999981428348561e-01
5.9999999999999947e+00 +9.0431406354932946e+00 +0.0000000000000000e+00 +5.9999996158645601e+00 -6.1978244710072866e-04 +0.0000000000000000e+00 +9.9999980793484056e-01
6.0999999999999943e+00 +9.0430781407774514e+00 +0.0000000000000000e+00 +6.0999995963361657e+00 -6.3011187079646265e-04 +0.0000000000000000e+00 +9.9999980147949530e-01
6.1999999999999940e+00 +9.0430146131189080e+00 +0.0000000000000000e+00 +6.1999995761569018e+00 -6.4044130128126865e-04 +0.0000000000000000e+00 +9.9999979491744861e-01
6.2999999999999936e+00 +9.0429500525169519e+00 +0.0000000000000000e+00 +6.2999995553160986e+00 -6.5077073904694306e-04 +0.0000000000000000e+00 +9.9999978824870006e-01
6.3999999999999932e+00 +9.0428844589708763e+00 +0.0000000000000000e+00 +6.3999995338030855e+00 -6.6110018347831432e-04 +0.0000000000000000e+00 +9.9999978147324975e-01
6.4999999999999929e+00 +9.0428178324800914e+00 +0.0000000000000000e+00 +6.4999995116071920e+00 -6.7142963285320644e-04 +0.0000000000000000e+00 +9.9999977459109857e-01
6.5999999999999925e+00 +9.0427501730442330e+00 +0.0000000000000000e+00 +6.5999994887177484e+00 -6.8175908440666622e-04 +0.0000000000000000e+00 +9.9999976760224829e-01
6.6999999999999922e+00 +9.0426814806632407e+00 +0.0000000000000000e+00 +6.6999994651240851e+00 -6.9208853503783716e-04 +0.0000000000000000e+00 +9.9999976050670103e-01
6.7999999999999918e+00 +9.0426117553373473e+00 +0.0000000000000000e+00 +6.7999994408155322e+00 -7.0241798201676141e-04 +0.0000000000000000e+00 +9.9999975330445867e-01
6.8999999999999915e+00 +9.0425409970670358e+00 +0.0000000000000000e+00 +6.8999994157814202e+00 -7.1274742304846400e-04 +0.0000000000000000e+00 +9.9999974599552299e-01
6.9999999999999911e+00 +9.0424692058529974e+00 +0.0000000000000000e+00 +6.9999993900110802e+00 -7.2307685627275877e-04 +0.0000000000000000e+00 +9.9999973857989555e-01
7.0999999999999908e+00 +9.0423963816960882e+00 +0.0000000000000000e+00 +7.0999993634938425e+00 -7.3340628026404757e-04 +0.0000000000000000e+00 +9.9999973105757767e-01
7.1999999999999904e+00 +9.0423225245972851e+00 +0.0000000000000000e+00 +7.1999993362190393e+00 -7.4373569403111137e-04 +0.0000000000000000e+00 +9.9999972342857024e-01
7.2999999999999901e+00 +9.0422476345576417e+00 +0.0000000000000000e+00 +7.2999993081760008e+00 -7.5406509701689424e-04 +0.0000000000000000e+00 +9.9999971569287405e-01
7.3999999999999897e+00 +9.0421717115782450e+00 +0.0000000000000000e+00 +7.3999992793540583e+00 -7.6439448909827983e-04 +0.0000000000000000e+00 +9.9999970785048953e-01
7.4999999999999893e+00 +9.0420947556601750e+00 +0.0000000000000000e+00 +7.4999992497425430e+00 -7.7472387058586029e-04 +0.0000000000000000e+00 +9.9999969990141679e-01
7.5999999999999890e+00 +9.0420167668044567e+00 +0.0000000000000000e+00 +7.5999992193307859e+00 -7.8505324223215964e-04 +0.0000000000000000e+00 +9.9999969184565562e-01
7.6999999999999886e+00 +9.0419377450120137e+00 +0.0000000000000000e+00 +7.6999991881081185e+00 -7.9538260532455434e-04 +0.0000000000000000e+00 +9.9999968368320524e-01
7.7999999999999883e+00 +9.0418576902836136e+00 +0.0000000000000000e+00 +7.7999991560638708e+00 -8.0571196177853352e-04 +0.0000000000000000e+00 +9.9999967541406432e-01
7.8999999999999879e+00 +9.0417766026197963e+00 +0.0000000000000000e+00 +7.8999991231873743e+00 -8.1604131414652812e-04 +0.0000000000000000e+00 +9.9999966703823107e-01
7.9999999999999876e+00 +9.0416944820208158e+00 +0.0000000000000000e+00 +7.9999990894679600e+00 -8.2637066561830070e-04 +0.0000000000000000e+00 +9.9999965855570294e-01
8.0999999999999872e+00 +9.0416113284865762e+00 +0.0000000000000000e+00 +8.0999990548949583e+00 -8.3670002002134885e-04 +0.0000000000000000e+00 +9.9999964996647672e-01
8.1999999999999869e+00 +9.0415271420165659e+00 +0.0000000000000000e+00 +8.1999990194576995e+00 -8.4702938182132142e-04 +0.0000000000000000e+00 +9.9999964127054852e-01
8.2999999999999865e+00 +9.0414419226097955e+00 +0.0000000000000000e+00 +8.2999989831455121e+00 -8.5735875612244798e-04 +0.0000000000000000e+00 +9.9999963246791379e-01
8.3999999999999861e+00 +9.0413556702647337e+00 +0.0000000000000000e+00 +8.3999989459477256e+00 -8.6768814866798160e-04 +0.0000000000000000e+00 +9.9999962355856720e-01
8.4999999999999858e+00 +9.0412683849792419e+00 +0.0000000000000000e+00 +8.4999989078536675e+00 -8.7801756584065464e-04 +0.0000000000000000e+00 +9.9999961454250252e-01
8.5999999999999854e+00 +9.0411800667505133e+00 +0.0000000000000000e+00 +8.5999988688526674e+00 -8.8834701454595900e-04 +0.0000000000000000e+00 +9.9999960541971278e-01
8.6999999999999851e+00 +9.0410907155750735e+00 +0.0000000000000000e+00 +8.6999988289340529e+00 -8.9867650092339180e-04 +0.0000000000000000e+00 +9.9999959619019152e-01
8.7999999999999847e+00 +9.0410003314489327e+00 +0.0000000000000000e+00 +8.7999987880871480e+00 -9.0900602905716983e-04 +0.0000000000000000e+00 +9.9999958685393397e-01
8.8999999999999844e+00 +9.0409089143678028e+00 +0.0000000000000000e+00 +8.8999987463012804e+00 -9.1933560085860990e-04 +0.0000000000000000e+00 +9.9999957741093692e-01
8.9999999999999840e+00 +9.0408164643273103e+00 +0.0000000000000000e+00 +8.9999987035657760e+00 -9.2966521606567955e-04 +0.0000000000000000e+00 +9.9999956786119937e-01
9.0999999999999837e+00 +9.0407229813232206e+00 +0.0000000000000000e+00 +9.0999986598699607e+00 -9.3999487224253545e-04 +0.0000000000000000e+00 +9.9999955820472219e-01
9.1999999999999833e+00 +9.0406284653516469e+00 +0.0000000000000000e+00 +9.1999986152031621e+00 -9.5032456477904949e-04 +0.0000000000000000e+00 +9.9999954844150851e-01
9.2999999999999829e+00 +9.0405329164092763e+00 +0.0000000000000000e+00 +9.2999985695547043e+00 -9.6065428689032218e-04 +0.0000000000000000e+00 +9.9999953857156376e-01
9.3999999999999826e+00 +9.0404363344935792e+00 +0.0000000000000000e+00 +9.3999985229139167e+00 -9.7098402961618422e-04 +0.0000000000000000e+00 +9.9999952859489571e-01
9.4999999999999822e+00 +9.0403387196030334e+00 +0.0000000000000000e+00 +9.4999984752701270e+00 -9.8131378182068582e-04 +0.0000000000000000e+00 +9.9999951851151458e-01
9.5999999999999819e+00 +9.0402400717373368e+00 +0.0000000000000000e+00 +9.5999984266126628e+00 -9.9164353038466669e-04 +0.0000000000000000e+00 +9.9999950832143314e-01
9.6999999999999815e+00 +9.0401403908975144e+00 +0.0000000000000000e+00 +9.6999983769308571e+00 -1.0019732623294773e-03 +0.0000000000000000e+00 +9.9999949802466448e-01
9.7999999999999812e+00 +9.0400396770857849e+00 +0.0000000000000000e+00 +9.7999983262140411e+00 -1.0123029669413667e-03 +0.0000000000000000e+00 +9.9999948762121993e-01
9.8999999999999808e+00 +9.0399379303053156e+00 +0.0000000000000000e+00 +9.8999982744515460e+00 -1.0226326359651340e-03 +0.0000000000000000e+00 +9.9999947711110881e-01
9.9999999999999805e+00 +9.0398351505599752e+00 +0.0000000000000000e+00 +9.9999982216327066e+00 -1.0329622636046972e-03 +0.0000000000000000e+00 +9.9999946649433824e-01
1.0099999999999980e+01 +9.0397313378540893e+00 +0.0000000000000000e+00 +1.0099998167746858e+01 -1.0432918465236741e-03 +0.0000000000000000e+00 +9.9999945577091298e-01
1.0199999999999980e+01 +9.0396264921921947e+00 +0.0000000000000000e+00 +1.0199998112783334e+01 -1.0536213838459754e-03 +0.0000000000000000e+00 +9.9999944494083526e-01
1.0299999999999979e+01 +9.0395206135787909e+00 +0.0000000000000000e+00 +1.0299998056731470e+01 -1.0639508771564121e-03 +0.0000000000000000e+00 +9.9999943400410485e-01
1.0399999999999979e+01 +9.0394137020180985e+00 +0.0000000000000000e+00 +1.0399997999580600e+01 -1.0742803305013151e-03 +0.0000000000000000e+00 +9.9999942296071875e-01
1.0499999999999979e+01 +9.0393057575138087e+00 +0.0000000000000000e+00 +1.0499997941320059e+01 -1.0846097503891662e-03 +0.0000000000000000e+00 +9.9999941181067120e-01
1.0599999999999978e+01 +9.0391967800688420e+00 +0.0000000000000000e+00 +1.0599997881939180e+01 -1.0949391456470778e-03 +0.0000000000000000e+00 +9.9999940055395353e-01
1.0699999999999978e+01 +9.0390867696851807e+00 +0.0000000000000000e+00 +1.0699997821427294e+01 -1.1052685258353611e-03 +0.0000000000000000e+00 +9.9999938919055587e-01
1.0799999999999978e+01 +9.0389757263638870e+00 +0.0000000000000000e+00 +1.0799997759773735e+01 -1.1155978996612926e-03 +0.0000000000000000e+00 +9.9999937772046898e-01
1.0899999999999977e+01 +9.0388636501052027e+00 +0.0000000000000000e+00 +1.0899997696967832e+01 -1.1259272748342674e-03 +0.0000000000000000e+00 +9.9999936614368445e-01
1.0999999999999977e+01 +9.0387505409086497e+00 +0.0000000000000000e+00 +1.0999997632998914e+01 -1.1362566580651028e-03 +0.0000000000000000e+00 +9.9999935446019461e-01
1.1099999999999977e+01 +9.0386363987731286e+00 +0.0000000000000000e+00 +1.1099997567856313e+01 -1.1465860550653290e-03 +0.0000000000000000e+00 +9.9999934266999257e-01
1.1199999999999976e+01 +9.0385212236970194e+00 +0.0000000000000000e+00 +1.1199997501529356e+01 -1.1569154705464630e-03 +0.0000000000000000e+00 +9.9999933077307257e-01
1.1299999999999976e+01 +9.0384050156782791e+00 +0.0000000000000000e+00 +1.1299997434007372e+01 -1.1672449082192700e-03 +0.0000000000000000e+00 +9.9999931876942960e-01
1.1399999999999975e+01 +9.0382877747145454e+00 +0.0000000000000000e+00 +1.1399997365279685e+01 -1.1775743707930092e-03 +0.0000000000000000e+00 +9.9999930665905978e-01
1.1499999999999975e+01 +9.0381695008032334e+00 +0.0000000000000000e+00 +1.1499997295335625e+01 -1.1879038599746654e-03 +0.0000000000000000e+00 +9.9999929444196034e-01
1.1599999999999975e+01 +9.0380501939416398e+00 +0.0000000000000000e+00 +1.1599997224164518e+01 -1.1982333764661965e-03 +0.0000000000000000e+00 +9.9999928211812961e-01
1.1699999999999974e+01 +9.0379298541270394e+00 +0.0000000000000000e+00 +1.1699997151755692e+01 -1.2085629199422056e-03 +0.0000000000000000e+00 +9.9999926968756714e-01
1.1799999999999974e+01 +9.0378084813567963e+00 +0.0000000000000000e+00 +1.1799997078098473e+01 -1.2188924890282351e-03 +0.0000000000000000e+00 +9.9999925715027371e-01
