# field on trajectory
# s[mm] rx[mm] ry[mm] rz[mm] bx[T] by[T] bz[T]
-0.0000000000000000e+00 +9.1476323485342608e+00 +0.0000000000000000e+00 -0.0000000000000000e+00 +1.1090747416962315e-02 -1.0317969716248465e+00 -5.8818485610819170e-02
-1.0000000000000001e-01 +9.1476318316365202e+00 +0.0000000000000000e+00 -9.9999999998218805e-02 +1.1090850732234880e-02 -1.0317968166789275e+00 -5.8821270148516749e-02
-2.0000000000000001e-01 +9.1476302809427192e+00 +0.0000000000000000e+00 -1.9999999998574999e-01 +1.1090954944309048e-02 -1.0317965785139547e+00 -5.8824070792484293e-02
-2.9999999999999999e-01 +9.1476276964536503e+00 +0.0000000000000000e+00 -2.9999999995190701e-01 +1.1091059682355133e-02 -1.0317962649327570e+00 -5.8826886998803000e-02
-4.0000000000000002e-01 +9.1476240781675404e+00 +0.0000000000000000e+00 -3.9999999988600199e-01 +1.1091164575553147e-02 -1.0317958837380423e+00 -5.8829718223547704e-02
-5.0000000000000000e-01 +9.1476194260861501e+00 +0.0000000000000000e+00 -4.9999999977734699e-01 +1.1091269253088835e-02 -1.0317954427324187e+00 -5.8832563922785644e-02
-5.9999999999999998e-01 +9.1476137402094899e+00 +0.0000000000000000e+00 -5.9999999961525596e-01 +1.1091373344150010e-02 -1.0317949497184438e+00 -5.8835423552575934e-02
-6.9999999999999996e-01 +9.1476070205357907e+00 +0.0000000000000000e+00 -6.9999999938904001e-01 +1.1091476477922753e-02 -1.0317944124986582e+00 -5.8838296568969106e-02
-8.0000000000000004e-01 +9.1475992670650292e+00 +0.0000000000000000e+00 -7.9999999908801400e-01 +1.1091578283587476e-02 -1.0317938388756136e+00 -5.8841182428005616e-02
-9.0000000000000002e-01 +9.1475904798007797e+00 +0.0000000000000000e+00 -8.9999999870148795e-01 +1.1091678390315064e-02 -1.0317932366519045e+00 -5.8844080585714970e-02
-1.0000000000000000e+00 +9.1475806587394892e+00 +0.0000000000000000e+00 -9.9999999821877705e-01 +1.1091776427263401e-02 -1.0317926136302280e+00 -5.8846990498116050e-02
-1.1000000000000001e+00 +9.1475698038829201e+00 +0.0000000000000000e+00 -1.0999999976291901e+00 +1.1091872023573155e-02 -1.0317919776133913e+00 -5.8849911621214980e-02
-1.2000000000000000e+00 +9.1475579152292994e+00 +0.0000000000000000e+00 -1.1999999969220501e+00 +1.1091964808364255e-02 -1.0317913364043654e+00 -5.8852843411005232e-02
-1.3000000000000000e+00 +9.1475449927804107e+00 +0.0000000000000000e+00 -1.2999999960866500e+00 +1.1092054410731862e-02 -1.0317906978063083e+00 -5.8855785323466109e-02
-1.3999999999999999e+00 +9.1475310365362503e+00 +0.0000000000000000e+00 -1.3999999951123201e+00 +1.1092140459742718e-02 -1.0317900696226097e+00 -5.8858736814562419e-02
-1.5000000000000000e+00 +9.1475160464950402e+00 +0.0000000000000000e+00 -1.4999999939883699e+00 +1.1092222584431320e-02 -1.0317894596569255e+00 -5.8861697340243761e-02
-1.6000000000000001e+00 +9.1475000226585603e+00 +0.0000000000000000e+00 -1.5999999927041100e+00 +1.1092300586308737e-02 -1.0317888738990000e+00 -5.8864666231996370e-02
-1.7000000000000000e+00 +9.1474829650268106e+00 +0.0000000000000000e+00 -1.6999999912488499e+00 +1.1092374956909302e-02 -1.0317883110820700e+00 -5.8867642323510466e-02
-1.8000000000000000e+00 +9.1474648735980093e+00 +0.0000000000000000e+00 -1.7999999896119101e+00 +1.1092446360271454e-02 -1.0317877681254708e+00 -5.8870624324034102e-02
-1.8999999999999999e+00 +9.1474457483739400e+00 +0.0000000000000000e+00 -1.8999999877825899e+00 +1.1092515460429019e-02 -1.0317872419488507e+00 -5.8873610942823777e-02
-2.0000000000000000e+00 +9.1474255893528191e+00 +0.0000000000000000e+00 -1.9999999857502100e+00 +1.1092582921412983e-02 -1.0317867294722112e+00 -5.8876600889147770e-02
-2.1000000000000001e+00 +9.1474043965364302e+00 +0.0000000000000000e+00 -2.0999999835040901e+00 +1.1092649407252835e-02 -1.0317862276159155e+00 -5.8879592872287979e-02
-2.2000000000000002e+00 +9.1473821699247697e+00 +0.0000000000000000e+00 -2.1999999810335300e+00 +1.1092715581978314e-02 -1.0317857333007259e+00 -5.8882585601543129e-02
-2.2999999999999998e+00 +9.1473589095160595e+00 +0.0000000000000000e+00 -2.2999999783278602e+00 +1.1092782109620955e-02 -1.0317852434478272e+00 -5.8885577786231470e-02
-2.3999999999999999e+00 +9.1473346153120794e+00 +0.0000000000000000e+00 -2.3999999753763701e+00 +1.1092849654215507e-02 -1.0317847549788421e+00 -5.8888568135692709e-02
-2.5000000000000000e+00 +9.1473092873128206e+00 +0.0000000000000000e+00 -2.4999999721683901e+00 +1.1092918879801657e-02 -1.0317842648158662e+00 -5.8891555359291317e-02
-2.6000000000000001e+00 +9.1472829255165191e+00 +0.0000000000000000e+00 -2.5999999686932198e+00 +1.1092990450425604e-02 -1.0317837698814925e+00 -5.8894538166419097e-02
-2.7000000000000002e+00 +9.1472555299249496e+00 +0.0000000000000000e+00 -2.6999999649401798e+00 +1.1093065030141448e-02 -1.0317832670988254e+00 -5.8897515266497211e-02
-2.7999999999999998e+00 +9.1472271005398795e+00 +0.0000000000000000e+00 -2.7999999608985902e+00 +1.1093143283012882e-02 -1.0317827533915129e+00 -5.8900485368979322e-02
-2.8999999999999999e+00 +9.1471976373559905e+00 +0.0000000000000000e+00 -2.8999999565577501e+00 +1.1093225873114973e-02 -1.0317822256837874e+00 -5.8903447183354815e-02
-3.0000000000000000e+00 +9.1471671403768209e+00 +0.0000000000000000e+00 -2.9999999519069700e+00 +1.1093313464535242e-02 -1.0317816809004559e+00 -5.8906399419149873e-02
-3.1000000000000001e+00 +9.1471356096023904e+00 +0.0000000000000000e+00 -3.0999999469355801e+00 +1.1093406721375605e-02 -1.0317811159669492e+00 -5.8909340785931297e-02
-3.2000000000000002e+00 +9.1471030450308994e+00 +0.0000000000000000e+00 -3.1999999416328699e+00 +1.1093506307753888e-02 -1.0317805278093477e+00 -5.8912269993309084e-02
-3.2999999999999998e+00 +9.1470694466641493e+00 +0.0000000000000000e+00 -3.2999999359881800e+00 +1.1093612887805245e-02 -1.0317799133543895e+00 -5.8915185750938348e-02
-3.3999999999999999e+00 +9.1470348145021205e+00 +0.0000000000000000e+00 -3.3999999299908001e+00 +1.1093727125683883e-02 -1.0317792695295118e+00 -5.8918086768522705e-02
-3.5000000000000000e+00 +9.1469991485430509e+00 +0.0000000000000000e+00 -3.4999999236300501e+00 +1.1093849685564625e-02 -1.0317785932628707e+00 -5.8920971755816710e-02
-3.6000000000000001e+00 +9.1469624487887007e+00 +0.0000000000000000e+00 -3.5999999168952499e+00 +1.1093981012834894e-02 -1.0317778825494033e+00 -5.8923839463655849e-02
-3.7000000000000002e+00 +9.1469247152390807e+00 +0.0000000000000000e+00 -3.6999999097757001e+00 +1.1094120677667452e-02 -1.0317771396487285e+00 -5.8926688807029712e-02
-3.7999999999999998e+00 +9.1468859478924092e+00 +0.0000000000000000e+00 -3.7999999022607200e+00 +1.1094268031453601e-02 -1.0317763678865237e+00 -5.8929518741975905e-02
-3.8999999999999999e+00 +9.1468461467522495e+00 +0.0000000000000000e+00 -3.8999998943396199e+00 +1.1094422425615527e-02 -1.0317755705883616e+00 -5.8932328224547748e-02
-4.0000000000000000e+00 +9.1468053118132708e+00 +0.0000000000000000e+00 -3.9999998860017101e+00 +1.1094583211608579e-02 -1.0317747510797106e+00 -5.8935116210815833e-02
-4.0999999999999996e+00 +9.1467634430807898e+00 +0.0000000000000000e+00 -4.0999998772363098e+00 +1.1094749740922467e-02 -1.0317739126858567e+00 -5.8937881656865476e-02
-4.2000000000000002e+00 +9.1467205405512608e+00 +0.0000000000000000e+00 -4.1999998680327302e+00 +1.1094921365083712e-02 -1.0317730587319178e+00 -5.8940623518798828e-02
-4.2999999999999998e+00 +9.1466766042264602e+00 +0.0000000000000000e+00 -4.2999998583802803e+00 +1.1095097435657036e-02 -1.0317721925427785e+00 -5.8943340752733123e-02
-4.4000000000000004e+00 +9.1466316341046099e+00 +0.0000000000000000e+00 -4.3999998482682798e+00 +1.1095277304247440e-02 -1.0317713174430783e+00 -5.8946032314801340e-02
-4.5000000000000000e+00 +9.1465856301892607e+00 +0.0000000000000000e+00 -4.4999998376860297e+00 +1.1095460322501792e-02 -1.0317704367571594e+00 -5.8948697161151191e-02
-4.5999999999999996e+00 +9.1465385924768707e+00 +0.0000000000000000e+00 -4.5999998266228497e+00 +1.1095645842110988e-02 -1.0317695538090625e+00 -5.8951334247946213e-02
-4.7000000000000002e+00 +9.1464905209674292e+00 +0.0000000000000000e+00 -4.6999998150680504e+00 +1.1095833214811475e-02 -1.0317686719224721e+00 -5.8953942531364427e-02
-4.7999999999999998e+00 +9.1464414156644995e+00 +0.0000000000000000e+00 -4.7999998030109499e+00 +1.1096021792387082e-02 -1.0317677944206820e+00 -5.8956520967598118e-02
-4.9000000000000004e+00 +9.1463912765645095e+00 +0.0000000000000000e+00 -4.8999997904408596e+00 +1.1096210926671148e-02 -1.0317669246265897e+00 -5.8959068512854880e-02
-5.0000000000000000e+00 +9.1463401036692602e+00 +0.0000000000000000e+00 -4.9999997773470897e+00 +1.1096399969547980e-02 -1.0317660658626353e+00 -5.8961584123356059e-02
-5.0999999999999996e+00 +9.1462878969787305e+00 +0.0000000000000000e+00 -5.0999997637189498e+00 +1.1096588272954871e-02 -1.0317652214507849e+00 -5.8964066755337163e-02
-5.2000000000000002e+00 +9.1462346564911599e+00 +0.0000000000000000e+00 -5.1999997495457499e+00 +1.1096775188883941e-02 -1.0317643947124999e+00 -5.8966515365047989e-02
-5.2999999999999998e+00 +9.1461803822083105e+00 +0.0000000000000000e+00 -5.2999997348168204e+00 +1.1096960069383790e-02 -1.0317635889686914e+00 -5.8968928908751515e-02
-5.4000000000000004e+00 +9.1461250741284204e+00 +0.0000000000000000e+00 -5.3999997195214604e+00 +1.1097142266561520e-02 -1.0317628075397065e+00 -5.8971306342724704e-02
-5.5000000000000000e+00 +9.1460687322550296e+00 +0.0000000000000000e+00 -5.4999997036489701e+00 +1.1097321132584301e-02 -1.0317620537452725e+00 -5.8973646623257200e-02
-5.5999999999999996e+00 +9.1460113565845909e+00 +0.0000000000000000e+00 -5.5999996871886903e+00 +1.1097496213840971e-02 -1.0317613299214643e+00 -5.8975948828661626e-02
-5.7000000000000002e+00 +9.1459529471188894e+00 +0.0000000000000000e+00 -5.6999996701299196e+00 +1.1097667833383042e-02 -1.0317606344715948e+00 -5.8978212525284179e-02
-5.7999999999999998e+00 +9.1458935038561293e+00 +0.0000000000000000e+00 -5.7999996524619597e+00 +1.1097836508362432e-02 -1.0317599648154732e+00 -5.8980437401441453e-02
-5.9000000000000004e+00 +9.1458330267980994e+00 +0.0000000000000000e+00 -5.8999996341741401e+00 +1.1098002755853051e-02 -1.0317593183724376e+00 -5.8982623145401314e-02
-6.0000000000000000e+00 +9.1457715159465796e+00 +0.0000000000000000e+00 -5.9999996152557697e+00 +1.1098167092846684e-02 -1.0317586925613456e+00 -5.8984769445380301e-02
-6.0999999999999996e+00 +9.1457089712962301e+00 +0.0000000000000000e+00 -6.0999995956961603e+00 +1.1098330036248973e-02 -1.0317580848005674e+00 -5.8986875989541852e-02
-6.2000000000000002e+00 +9.1456453928523906e+00 +0.0000000000000000e+00 -6.1999995754846200e+00 +1.1098492102874662e-02 -1.0317574925079238e+00 -5.8988942465991533e-02
-6.2999999999999998e+00 +9.1455807806132707e+00 +0.0000000000000000e+00 -6.2999995546104604e+00 +1.1098653809443901e-02 -1.0317569131007078e+00 -5.8990968562776191e-02
-6.4000000000000004e+00 +9.1455151345771100e+00 +0.0000000000000000e+00 -6.3999995330630002e+00 +1.1098815672577828e-02 -1.0317563439956472e+00 -5.8992953967880638e-02
-6.5000000000000000e+00 +9.1454484547456794e+00 +0.0000000000000000e+00 -6.4999995108315600e+00 +1.1098978208794217e-02 -1.0317557826088744e+00 -5.8994898369224273e-02
-6.5999999999999996e+00 +9.1453807411171901e+00 +0.0000000000000000e+00 -6.5999994879054302e+00 +1.1099141934503497e-02 -1.0317552263559229e+00 -5.8996801454659319e-02
-6.7000000000000002e+00 +9.1453119936934399e+00 +0.0000000000000000e+00 -6.6999994642739402e+00 +1.1099307366004297e-02 -1.0317546726516909e+00 -5.8998662911967176e-02
-6.7999999999999998e+00 +9.1452422124761892e+00 +0.0000000000000000e+00 -6.7999994399263999e+00 +1.1099475019479350e-02 -1.0317541189104269e+00 -5.9000482428856159e-02
-6.9000000000000004e+00 +9.1451713974618905e+00 +0.0000000000000000e+00 -6.8999994148521200e+00 +1.1099645410991428e-02 -1.0317535625457219e+00 -5.9002259692959268e-02
-7.0000000000000000e+00 +9.1450995486523308e+00 +0.0000000000000000e+00 -6.9999993890404202e+00 +1.1099819056478801e-02 -1.0317530009704641e+00 -5.9003994391830288e-02
-7.0999999999999996e+00 +9.1450266660474906e+00 +0.0000000000000000e+00 -7.0999993624805997e+00 +1.1099996471751266e-02 -1.0317524315968361e+00 -5.9005686212941916e-02
-7.2000000000000002e+00 +9.1449527496438208e+00 +0.0000000000000000e+00 -7.1999993351619702e+00 +1.1100178172485934e-02 -1.0317518518362925e+00 -5.9007334843683042e-02
-7.2999999999999998e+00 +9.1448777994484391e+00 +0.0000000000000000e+00 -7.2999993070738700e+00 +1.1100364674222643e-02 -1.0317512590995142e+00 -5.9008939971354681e-02
-7.4000000000000004e+00 +9.1448018154560096e+00 +0.0000000000000000e+00 -7.3999992782055797e+00 +1.1100556492360412e-02 -1.0317506507964338e+00 -5.9010501283169502e-02
-7.5000000000000000e+00 +9.1447247976682995e+00 +0.0000000000000000e+00 -7.4999992485464304e+00 +1.1100754142152650e-02 -1.0317500243361748e+00 -5.9012018466247117e-02
-7.5999999999999996e+00 +9.1446467460835503e+00 +0.0000000000000000e+00 -7.5999992180857303e+00 +1.1100957965509252e-02 -1.0317493777625186e+00 -5.9013491295663280e-02
-7.7000000000000002e+00 +9.1445676607035296e+00 +0.0000000000000000e+00 -7.6999991868127999e+00 +1.1101167611471787e-02 -1.0317487116605009e+00 -5.9014919898674169e-02
-7.7999999999999998e+00 +9.1444875415300100e+00 +0.0000000000000000e+00 -7.7999991547169403e+00 +1.1101382555937803e-02 -1.0317480272502733e+00 -5.9016304490677789e-02
-7.9000000000000004e+00 +9.1444063885594495e+00 +0.0000000000000000e+00 -7.8999991217874603e+00 +1.1101602274885098e-02 -1.0317473257516609e+00 -5.9017645287180225e-02
-8.0000000000000000e+00 +9.1443242017936104e+00 +0.0000000000000000e+00 -7.9999990880136904e+00 +1.1101826244374717e-02 -1.0317466083841305e+00 -5.9018942503798202e-02
-8.0999999999999996e+00 +9.1442409812307197e+00 +0.0000000000000000e+00 -8.0999990533849306e+00 +1.1102053940554579e-02 -1.0317458763668081e+00 -5.9020196356263939e-02
-8.1999999999999993e+00 +9.1441567268743391e+00 +0.0000000000000000e+00 -8.1999990178904891e+00 +1.1102284839662541e-02 -1.0317451309184558e+00 -5.9021407060428077e-02
-8.3000000000000007e+00 +9.1440714387209105e+00 +0.0000000000000000e+00 -8.2999989815196997e+00 +1.1102518418030087e-02 -1.0317443732574936e+00 -5.9022574832264814e-02
-8.4000000000000004e+00 +9.1439851167722104e+00 +0.0000000000000000e+00 -8.3999989442618492e+00 +1.1102754152085333e-02 -1.0317436046019695e+00 -5.9023699887874516e-02
-8.5000000000000000e+00 +9.1438977610300203e+00 +0.0000000000000000e+00 -8.4999989061062706e+00 +1.1102991518356481e-02 -1.0317428261695667e+00 -5.9024782443488001e-02
-8.5999999999999996e+00 +9.1438093714890005e+00 +0.0000000000000000e+00 -8.5999988670422596e+00 +1.1103229993475386e-02 -1.0317420391776158e+00 -5.9025822715471382e-02
-8.6999999999999993e+00 +9.1437199481544802e+00 +0.0000000000000000e+00 -8.6999988270591402e+00 +1.1103469054180347e-02 -1.0317412448430487e+00 -5.9026820920327711e-02
-8.8000000000000007e+00 +9.1436294910247007e+00 +0.0000000000000000e+00 -8.7999987861462294e+00 +1.1103708177319996e-02 -1.0317404443824376e+00 -5.9027777274703021e-02
-8.9000000000000004e+00 +9.1435380000978608e+00 +0.0000000000000000e+00 -8.8999987442928301e+00 +1.1103946839856374e-02 -1.0317396390119735e+00 -5.9028691995389335e-02
-9.0000000000000000e+00 +9.1434454753775292e+00 +0.0000000000000000e+00 -8.9999987014882503e+00 +1.1104184518868125e-02 -1.0317388299474495e+00 -5.9029565299327846e-02
-9.0999999999999996e+00 +9.1433519168619295e+00 +0.0000000000000000e+00 -9.0999986577218195e+00 +1.1104420691554161e-02 -1.0317380184042817e+00 -5.9030397403614057e-02
-9.1999999999999993e+00 +9.1432573245492801e+00 +0.0000000000000000e+00 -9.1999986129828297e+00 +1.1104654835236800e-02 -1.0317372055974932e+00 -5.9031188525501065e-02
-9.3000000000000007e+00 +9.1431616984413608e+00 +0.0000000000000000e+00 -9.2999985672606194e+00 +1.1104886427365002e-02 -1.0317363927417014e+00 -5.9031938882402907e-02
-9.4000000000000004e+00 +9.1430650385381700e+00 +0.0000000000000000e+00 -9.3999985205444805e+00 +1.1105114945517859e-02 -1.0317355810511264e+00 -5.9032648691899177e-02
-9.5000000000000000e+00 +9.1429673448397004e+00 +0.0000000000000000e+00 -9.4999984728237195e+00 +1.1105339867407842e-02 -1.0317347717395826e+00 -5.9033318171738507e-02
-9.5999999999999996e+00 +9.1428686173459699e+00 +0.0000000000000000e+00 -9.5999984240876799e+00 +1.1105560845684665e-02 -1.0317339661299028e+00 -5.9033947642788381e-02
-9.6999999999999993e+00 +9.1427688560551807e+00 +0.0000000000000000e+00 -9.6999983743256504e+00 +1.1105778232297293e-02 -1.0317331659825986e+00 -5.9034537837770407e-02
-9.8000000000000007e+00 +9.1426680609726798e+00 +0.0000000000000000e+00 -9.7999983235269408e+00 +1.1105992553945883e-02 -1.0317323731681798e+00 -5.9035089592193633e-02
-9.9000000000000004e+00 +9.1425662320913492e+00 +0.0000000000000000e+00 -9.8999982716808805e+00 +1.1106204337244944e-02 -1.0317315895578751e+00 -5.9035603741364857e-02
-1.0000000000000000e+01 +9.1424633694165305e+00 +0.0000000000000000e+00 -9.9999982187767706e+00 +1.1106414108720125e-02 -1.0317308170235955e+00 -5.9036081120380002e-02
-1.0100000000000000e+01 +9.1423594729446602e+00 +0.0000000000000000e+00 -1.0099998164803900e+01 +1.1106622394806405e-02 -1.0317300574380104e+00 -5.9036522564120564e-02
-1.0199999999999999e+01 +9.1422545426793000e+00 +0.0000000000000000e+00 -1.0199998109751700e+01 +1.1106829721845126e-02 -1.0317293126745328e+00 -5.9036928907245975e-02
-1.0300000000000001e+01 +9.1421485786168795e+00 +0.0000000000000000e+00 -1.0299998053609301e+01 +1.1107036616081993e-02 -1.0317285846073783e+00 -5.9037300984189321e-02
-1.0400000000000000e+01 +9.1420415807609707e+00 +0.0000000000000000e+00 -1.0399997996366100e+01 +1.1107243603664163e-02 -1.0317278751115562e+00 -5.9037639629149763e-02
-1.0500000000000000e+01 +9.1419335491080194e+00 +0.0000000000000000e+00 -1.0499997938011500e+01 +1.1107451210638206e-02 -1.0317271860629238e+00 -5.9037945676088249e-02
-1.0600000000000000e+01 +9.1418244836597893e+00 +0.0000000000000000e+00 -1.0599997878534600e+01 +1.1107659962947295e-02 -1.0317265193381857e+00 -5.9038219958720294e-02
-1.0699999999999999e+01 +9.1417143844180693e+00 +0.0000000000000000e+00 -1.0699997817925000e+01 +1.1107870386428889e-02 -1.0317258768149269e+00 -5.9038463310510554e-02
-1.0800000000000001e+01 +9.1416032513792906e+00 +0.0000000000000000e+00 -1.0799997756171701e+01 +1.1108083006812456e-02 -1.0317252603716538e+00 -5.9038676564667700e-02
-1.0900000000000000e+01 +9.1414910845470292e+00 +0.0000000000000000e+00 -1.0899997693264300e+01 +1.1108298349716618e-02 -1.0317246718877850e+00 -5.9038860554136804e-02
-1.1000000000000000e+01 +9.1413778839177091e+00 +0.0000000000000000e+00 -1.0999997629191901e+01 +1.1108516940647141e-02 -1.0317241132437109e+00 -5.9039016111595351e-02
-1.1100000000000000e+01 +9.1412636494931299e+00 +0.0000000000000000e+00 -1.1099997563943900e+01 +1.1108739304994120e-02 -1.0317235863207912e+00 -5.9039144069445736e-02
-1.1199999999999999e+01 +9.1411483812750394e+00 +0.0000000000000000e+00 -1.1199997497509599e+01 +1.1108965968029644e-02 -1.0317230930013872e+00 -5.9039245259809962e-02
-1.1300000000000001e+01 +9.1410320792599205e+00 +0.0000000000000000e+00 -1.1299997429878401e+01 +1.1109197454905550e-02 -1.0317226351689011e+00 -5.9039320514524346e-02
-1.1400000000000000e+01 +9.1409147434512903e+00 +0.0000000000000000e+00 -1.1399997361039500e+01 +1.1109434290650578e-02 -1.0317222147077734e+00 -5.9039370665132249e-02
-1.1500000000000000e+01 +9.1407963738456193e+00 +0.0000000000000000e+00 -1.1499997290982201e+01 +1.1109677000168334e-02 -1.0317218335035370e+00 -5.9039396542879576e-02
-1.1600000000000000e+01 +9.1406769704464494e+00 +0.0000000000000000e+00 -1.1599997219695799e+01 +1.1109925884113163e-02 -1.0317214921853093e+00 -5.9039398903377276e-02
-1.1699999999999999e+01 +9.1405565332520098e+00 +0.0000000000000000e+00 -1.1699997147169800e+01 +1.1110180346569800e-02 -1.0317211863524909e+00 -5.9039378200717606e-02
