# field on trajectory
# s[mm] rx[mm] ry[mm] rz[mm] bx[T] by[T] bz[T]
0.0000000000000000e+00 +9.0449999999999999e+00 +0.0000000000000000e+00 +0.0000000000000000e+00 +1.1212561262656406e-02 -1.0339743772076750e+00 -5.8881083779946115e-02
-1.0000000000000001e-01 +9.0449994833707930e+00 +0.0000000000000000e+00 -9.9999999998220623e-02 +1.1212681052456749e-02 -1.0339722789050088e+00 -5.8881574267683638e-02
-2.0000000000000001e-01 +9.0449979334846020e+00 +0.0000000000000000e+00 -1.9999999998576504e-01 +1.1212798458140393e-02 -1.0339699908568665e+00 -5.8882081595854466e-02
-3.0000000000000004e-01 +9.0449953503437115e+00 +0.0000000000000000e+00 -2.9999999995195714e-01 +1.1212913702574231e-02 -1.0339675293547643e+00 -5.8882605666908699e-02
-4.0000000000000002e-01 +9.0449917339505816e+00 +0.0000000000000000e+00 -3.9999999988612078e-01 +1.1213027008625632e-02 -1.0339649106904145e+00 -5.8883146383267450e-02
-5.0000000000000000e-01 +9.0449870843078273e+00 +0.0000000000000000e+00 -4.9999999977758008e-01 +1.1213138599156890e-02 -1.0339621511556167e+00 -5.8883703647316460e-02
-5.9999999999999998e-01 +9.0449814014182053e+00 +0.0000000000000000e+00 -5.9999999961565909e-01 +1.1213248697019725e-02 -1.0339592670421471e+00 -5.8884277361399277e-02
-6.9999999999999996e-01 +9.0449746852845969e+00 +0.0000000000000000e+00 -6.9999999938968205e-01 +1.1213357525049710e-02 -1.0339562746416477e+00 -5.8884867427810787e-02
-7.9999999999999993e-01 +9.0449669359099918e+00 +0.0000000000000000e+00 -7.9999999908897323e-01 +1.1213465306060743e-02 -1.0339531902455155e+00 -5.8885473748790364e-02
-8.9999999999999991e-01 +9.0449581532974719e+00 +0.0000000000000000e+00 -8.9999999870285696e-01 +1.1213572262839524e-02 -1.0339500301447935e+00 -5.8886096226515465e-02
-9.9999999999999989e-01 +9.0449483374501956e+00 +0.0000000000000000e+00 -9.9999999822065788e-01 +1.1213678618140013e-02 -1.0339468106300578e+00 -5.8886734763094833e-02
-1.0999999999999999e+00 +9.0449374883713798e+00 +0.0000000000000000e+00 -1.0999999976317005e+00 +1.1213784594677879e-02 -1.0339435479913088e+00 -5.8887389260561938e-02
-1.2000000000000000e+00 +9.0449256060642842e+00 +0.0000000000000000e+00 -1.1999999969253097e+00 +1.1213890415124996e-02 -1.0339402585178616e+00 -5.8888059620868329e-02
-1.3000000000000000e+00 +9.0449126905321950e+00 +0.0000000000000000e+00 -1.2999999960908100e+00 +1.1213996302103872e-02 -1.0339369584982316e+00 -5.8888745745877047e-02
-1.4000000000000001e+00 +9.0448987417784110e+00 +0.0000000000000000e+00 -1.3999999951175264e+00 +1.1214102478182131e-02 -1.0339336642200290e+00 -5.8889447537355810e-02
-1.5000000000000002e+00 +9.0448837598062237e+00 +0.0000000000000000e+00 -1.4999999939947841e+00 +1.1214209165866984e-02 -1.0339303919698450e+00 -5.8890164896970638e-02
-1.6000000000000003e+00 +9.0448677446189034e+00 +0.0000000000000000e+00 -1.5999999927119082e+00 +1.1214316551962365e-02 -1.0339271545667739e+00 -5.8890897654538893e-02
-1.7000000000000004e+00 +9.0448506962196884e+00 +0.0000000000000000e+00 -1.6999999912582238e+00 +1.1214424680675419e-02 -1.0339239509637135e+00 -5.8891645352839833e-02
-1.8000000000000005e+00 +9.0448326146117815e+00 +0.0000000000000000e+00 -1.7999999896230563e+00 +1.1214533560569536e-02 -1.0339207766473555e+00 -5.8892407462902537e-02
-1.9000000000000006e+00 +9.0448134997983569e+00 +0.0000000000000000e+00 -1.8999999877957310e+00 +1.1214643200212392e-02 -1.0339176271047918e+00 -5.8893183455765066e-02
-2.0000000000000004e+00 +9.0447933517825643e+00 +0.0000000000000000e+00 -1.9999999857655735e+00 +1.1214753608181305e-02 -1.0339144978236388e+00 -5.8893972802485144e-02
-2.1000000000000005e+00 +9.0447721705675335e+00 +0.0000000000000000e+00 -2.0999999835219092e+00 +1.1214864793068538e-02 -1.0339113842921557e+00 -5.8894774974150542e-02
-2.2000000000000006e+00 +9.0447499561563784e+00 +0.0000000000000000e+00 -2.1999999810540642e+00 +1.1214976763486631e-02 -1.0339082819993710e+00 -5.8895589441889780e-02
-2.3000000000000007e+00 +9.0447267085522025e+00 +0.0000000000000000e+00 -2.2999999783513640e+00 +1.1215089528073704e-02 -1.0339051864352016e+00 -5.8896415676882551e-02
-2.4000000000000008e+00 +9.0447024277581018e+00 +0.0000000000000000e+00 -2.3999999754031345e+00 +1.1215203095498803e-02 -1.0339020930905769e+00 -5.8897253150370317e-02
-2.5000000000000009e+00 +9.0446771137771691e+00 +0.0000000000000000e+00 -2.4999999721987014e+00 +1.1215317474467202e-02 -1.0338989974575581e+00 -5.8898101333666811e-02
-2.6000000000000010e+00 +9.0446507666125022e+00 +0.0000000000000000e+00 -2.5999999687273911e+00 +1.1215432673725750e-02 -1.0338958950294641e+00 -5.8898959698168642e-02
-2.7000000000000011e+00 +9.0446233862672063e+00 +0.0000000000000000e+00 -2.6999999649785296e+00 +1.1215548702068163e-02 -1.0338927813009904e+00 -5.8899827715365810e-02
-2.8000000000000012e+00 +9.0445949727443935e+00 +0.0000000000000000e+00 -2.7999999609414434e+00 +1.1215665568340352e-02 -1.0338896517683320e+00 -5.8900704856852143e-02
-2.9000000000000012e+00 +9.0445655260471955e+00 +0.0000000000000000e+00 -2.8999999566054586e+00 +1.1215783281445778e-02 -1.0338865019293078e+00 -5.8901590594336049e-02
-3.0000000000000013e+00 +9.0445350461787637e+00 +0.0000000000000000e+00 -2.9999999519599019e+00 +1.1215901850350735e-02 -1.0338833272834800e+00 -5.8902484399650887e-02
-3.1000000000000014e+00 +9.0445035331422741e+00 +0.0000000000000000e+00 -3.0999999469940995e+00 +1.1216021284089680e-02 -1.0338801233322767e+00 -5.8903385744765537e-02
-3.2000000000000015e+00 +9.0444709869409330e+00 +0.0000000000000000e+00 -3.1999999416973783e+00 +1.1216141591770567e-02 -1.0338768855791156e+00 -5.8904294101794999e-02
-3.3000000000000016e+00 +9.0444374075779788e+00 +0.0000000000000000e+00 -3.2999999360590655e+00 +1.1216262782580170e-02 -1.0338736095295247e+00 -5.8905208943010955e-02
-3.4000000000000017e+00 +9.0444027950566888e+00 +0.0000000000000000e+00 -3.3999999300684873e+00 +1.1216384865789381e-02 -1.0338702906912658e+00 -5.8906129740852159e-02
-3.5000000000000018e+00 +9.0443671493803848e+00 +0.0000000000000000e+00 -3.4999999237149710e+00 +1.1216507850758558e-02 -1.0338669245744538e+00 -5.8907055967935183e-02
-3.6000000000000019e+00 +9.0443304705524330e+00 +0.0000000000000000e+00 -3.5999999169878438e+00 +1.1216631713124094e-02 -1.0338635081898981e+00 -5.8907987086340964e-02
-3.7000000000000020e+00 +9.0442927585762529e+00 +0.0000000000000000e+00 -3.6999999098764329e+00 +1.1216756293308990e-02 -1.0338600445424773e+00 -5.8908922515374239e-02
-3.8000000000000020e+00 +9.0442540134553084e+00 +0.0000000000000000e+00 -3.7999999023700659e+00 +1.1216881397914193e-02 -1.0338565381340352e+00 -5.8909861663598809e-02
-3.9000000000000021e+00 +9.0442142351931079e+00 +0.0000000000000000e+00 -3.8999998944580700e+00 +1.1217006833525778e-02 -1.0338529934646590e+00 -5.8910803939536592e-02
-4.0000000000000018e+00 +9.0441734237931968e+00 +0.0000000000000000e+00 -3.9999998861297730e+00 +1.1217132406712451e-02 -1.0338494150325135e+00 -5.8911748751661830e-02
-4.1000000000000014e+00 +9.0441315792591546e+00 +0.0000000000000000e+00 -4.0999998773745023e+00 +1.1217257924023016e-02 -1.0338458073336749e+00 -5.8912695508395230e-02
-4.2000000000000011e+00 +9.0440887015945925e+00 +0.0000000000000000e+00 -4.1999998681815862e+00 +1.1217383191983827e-02 -1.0338421748619668e+00 -5.8913643618098130e-02
-4.3000000000000007e+00 +9.0440447908031434e+00 +0.0000000000000000e+00 -4.2999998585403532e+00 +1.1217508017096294e-02 -1.0338385221087942e+00 -5.8914592489066747e-02
-4.4000000000000004e+00 +9.0439998468884610e+00 +0.0000000000000000e+00 -4.3999998484401308e+00 +1.1217632205834348e-02 -1.0338348535629784e+00 -5.8915541529526383e-02
-4.5000000000000000e+00 +9.0439538698542172e+00 +0.0000000000000000e+00 -4.4999998378702468e+00 +1.1217755564641900e-02 -1.0338311737105892e+00 -5.8916490147625428e-02
-4.5999999999999996e+00 +9.0439068597040926e+00 +0.0000000000000000e+00 -4.5999998268200306e+00 +1.1217877899930345e-02 -1.0338274870347837e+00 -5.8917437751429824e-02
-4.6999999999999993e+00 +9.0438588164417766e+00 +0.0000000000000000e+00 -4.6999998152788098e+00 +1.1217999018076011e-02 -1.0338237980156366e+00 -5.8918383748917023e-02
-4.7999999999999989e+00 +9.0438097400709605e+00 +0.0000000000000000e+00 -4.7999998032359139e+00 +1.1218118725417661e-02 -1.0338201111299778e+00 -5.8919327547970274e-02
-4.8999999999999986e+00 +9.0437596305953338e+00 +0.0000000000000000e+00 -4.8999997906806705e+00 +1.1218236828253935e-02 -1.0338164308512259e+00 -5.8920268556372848e-02
-4.9999999999999982e+00 +9.0437084880185790e+00 +0.0000000000000000e+00 -4.9999997776024090e+00 +1.1218353132840888e-02 -1.0338127616492216e+00 -5.8921206181802181e-02
-5.0999999999999979e+00 +9.0436563123443676e+00 +0.0000000000000000e+00 -5.0999997639904588e+00 +1.1218467445389376e-02 -1.0338091079900631e+00 -5.8922139831823969e-02
-5.1999999999999975e+00 +9.0436031035763556e+00 +0.0000000000000000e+00 -5.1999997498341486e+00 +1.1218579572062638e-02 -1.0338054743359415e+00 -5.8923068913886559e-02
-5.2999999999999972e+00 +9.0435488617181807e+00 +0.0000000000000000e+00 -5.2999997351228068e+00 +1.1218689318973686e-02 -1.0338018651449745e+00 -5.8923992835314999e-02
-5.3999999999999968e+00 +9.0434935867734545e+00 +0.0000000000000000e+00 -5.3999997198457637e+00 +1.1218796492182843e-02 -1.0337982848710392e+00 -5.8924911003305290e-02
-5.4999999999999964e+00 +9.0434372787457598e+00 +0.0000000000000000e+00 -5.4999997039923478e+00 +1.1218900897695189e-02 -1.0337947379636097e+00 -5.8925822824918504e-02
-5.5999999999999961e+00 +9.0433799376386457e+00 +0.0000000000000000e+00 -5.5999996875518887e+00 +1.1219002435944777e-02 -1.0337912275851342e+00 -5.8926727818649306e-02
-5.6999999999999957e+00 +9.0433215634556277e+00 +0.0000000000000000e+00 -5.6999996705137166e+00 +1.1219101385289698e-02 -1.0337877517654985e+00 -5.8927625949194047e-02
-5.7999999999999954e+00 +9.0432621562001856e+00 +0.0000000000000000e+00 -5.7999996528671600e+00 +1.1219198118609351e-02 -1.0337843072529285e+00 -5.8928517292805620e-02
-5.8999999999999950e+00 +9.0432017158757692e+00 +0.0000000000000000e+00 -5.8999996346015493e+00 +1.1219293008826367e-02 -1.0337808907970691e+00 -5.8929401925729256e-02
-5.9999999999999947e+00 +9.0431402424857978e+00 +0.0000000000000000e+00 -5.9999996157062148e+00 +1.1219386428908568e-02 -1.0337774991490893e+00 -5.8930279924202897e-02
-6.0999999999999943e+00 +9.0430777360336680e+00 +0.0000000000000000e+00 -6.0999995961704858e+00 +1.1219478751870980e-02 -1.0337741290617859e+00 -5.8931151364457694e-02
-6.1999999999999940e+00 +9.0430141965227548e+00 +0.0000000000000000e+00 -6.1999995759836919e+00 +1.1219570350777803e-02 -1.0337707772896880e+00 -5.8932016322718411e-02
-6.2999999999999936e+00 +9.0429496239564156e+00 +0.0000000000000000e+00 -6.2999995551351633e+00 +1.1219661598744405e-02 -1.0337674405891633e+00 -5.8932874875203871e-02
-6.3999999999999932e+00 +9.0428840183379897e+00 +0.0000000000000000e+00 -6.3999995336142304e+00 +1.1219752868939337e-02 -1.0337641157185224e+00 -5.8933727098127442e-02
-6.4999999999999929e+00 +9.0428173796708080e+00 +0.0000000000000000e+00 -6.4999995114102234e+00 +1.1219844534586272e-02 -1.0337607994381237e+00 -5.8934573067697407e-02
-6.5999999999999925e+00 +9.0427497079581922e+00 +0.0000000000000000e+00 -6.5999994885124726e+00 +1.1219936968966039e-02 -1.0337574885104763e+00 -5.8935412860117428e-02
-6.6999999999999922e+00 +9.0426810032034588e+00 +0.0000000000000000e+00 -6.6999994649103085e+00 +1.1220030545418579e-02 -1.0337541797003498e+00 -5.8936246551586982e-02
-6.7999999999999918e+00 +9.0426112654099207e+00 +0.0000000000000000e+00 -6.7999994405930613e+00 +1.1220125637344936e-02 -1.0337508697748725e+00 -5.8937074218301827e-02
-6.8999999999999915e+00 +9.0425404945808943e+00 +0.0000000000000000e+00 -6.8999994155500621e+00 +1.1220222618209250e-02 -1.0337475555036415e+00 -5.8937895936454418e-02
-6.9999999999999911e+00 +9.0424686907196996e+00 +0.0000000000000000e+00 -6.9999993897706414e+00 +1.1220321861540738e-02 -1.0337442336588263e+00 -5.8938711782234220e-02
-7.0999999999999908e+00 +9.0423958538296638e+00 +0.0000000000000000e+00 -7.0999993632441303e+00 +1.1220423740935662e-02 -1.0337409010152714e+00 -5.8939521831828386e-02
-7.1999999999999904e+00 +9.0423219839141247e+00 +0.0000000000000000e+00 -7.1999993359598600e+00 +1.1220528630059333e-02 -1.0337375543506058e+00 -5.8940326161421940e-02
-7.2999999999999901e+00 +9.0422470809764341e+00 +0.0000000000000000e+00 -7.2999993079071608e+00 +1.1220636902648068e-02 -1.0337341904453423e+00 -5.8941124847198365e-02
-7.3999999999999897e+00 +9.0421711450199638e+00 +0.0000000000000000e+00 -7.3999992790753648e+00 +1.1220748932511192e-02 -1.0337308060829868e+00 -5.8941917965339923e-02
-7.4999999999999893e+00 +9.0420941760481028e+00 +0.0000000000000000e+00 -7.4999992494538024e+00 +1.1220865093533001e-02 -1.0337273980501420e+00 -5.8942705592028181e-02
-7.5999999999999890e+00 +9.0420161740642655e+00 +0.0000000000000000e+00 -7.5999992190318055e+00 +1.1220985634762518e-02 -1.0337239647930592e+00 -5.8943487835077510e-02
-7.6999999999999886e+00 +9.0419371390718908e+00 +0.0000000000000000e+00 -7.6999991877987064e+00 +1.1221110305584675e-02 -1.0337205113859360e+00 -5.8944264928821793e-02
-7.7999999999999883e+00 +9.0418570710744373e+00 +0.0000000000000000e+00 -7.7999991557438353e+00 +1.1221238730315898e-02 -1.0337170445592687e+00 -5.8945037139185037e-02
-7.8999999999999879e+00 +9.0417759700753777e+00 +0.0000000000000000e+00 -7.8999991228565252e+00 +1.1221370533095524e-02 -1.0337135710429832e+00 -5.8945804732041605e-02
-7.9999999999999876e+00 +9.0416938360781920e+00 +0.0000000000000000e+00 -7.9999990891261072e+00 +1.1221505337879677e-02 -1.0337100975664166e+00 -5.8946567973215125e-02
-8.0999999999999872e+00 +9.0416106690863582e+00 +0.0000000000000000e+00 -8.0999990545419145e+00 +1.1221642768435142e-02 -1.0337066308582927e+00 -5.8947327128477452e-02
-8.1999999999999869e+00 +9.0415264691033492e+00 +0.0000000000000000e+00 -8.1999990190932781e+00 +1.1221782448333235e-02 -1.0337031776466992e+00 -5.8948082463547331e-02
-8.2999999999999865e+00 +9.0414412361326235e+00 +0.0000000000000000e+00 -8.2999989827695302e+00 +1.1221924000943699e-02 -1.0336997446590634e+00 -5.8948834244089525e-02
-8.3999999999999861e+00 +9.0413549701776219e+00 +0.0000000000000000e+00 -8.3999989455600037e+00 +1.1222067049428583e-02 -1.0336963386221338e+00 -5.8949582735713539e-02
-8.4999999999999858e+00 +9.0412676712417550e+00 +0.0000000000000000e+00 -8.4999989074540316e+00 +1.1222211216736095e-02 -1.0336929662619514e+00 -5.8950328203972557e-02
-8.5999999999999854e+00 +9.0411793393284032e+00 +0.0000000000000000e+00 -8.5999988684409452e+00 +1.1222356125594518e-02 -1.0336896343038322e+00 -5.8951070914362295e-02
-8.6999999999999851e+00 +9.0410899744409043e+00 +0.0000000000000000e+00 -8.6999988285100773e+00 +1.1222501398506078e-02 -1.0336863494723405e+00 -5.8951811132319940e-02
-8.7999999999999847e+00 +9.0409995765825499e+00 +0.0000000000000000e+00 -8.7999987876507610e+00 +1.1222646657740818e-02 -1.0336831184912671e+00 -5.8952549123222897e-02
-8.8999999999999844e+00 +9.0409081457565783e+00 +0.0000000000000000e+00 -8.8999987458523275e+00 +1.1222791525330520e-02 -1.0336799480836092e+00 -5.8953285152387867e-02
-8.9999999999999840e+00 +9.0408156819661656e+00 +0.0000000000000000e+00 -8.9999987031041115e+00 +1.1222935623062537e-02 -1.0336768449715426e+00 -5.8954019485069641e-02
-9.0999999999999837e+00 +9.0407221852144222e+00 +0.0000000000000000e+00 -9.0999986593954443e+00 +1.1223078572473722e-02 -1.0336738158764038e+00 -5.8954752386459891e-02
-9.1999999999999833e+00 +9.0406276555043856e+00 +0.0000000000000000e+00 -9.1999986147156587e+00 +1.1223219994844297e-02 -1.0336708675186626e+00 -5.8955484121686268e-02
-9.2999999999999829e+00 +9.0405320928390118e+00 +0.0000000000000000e+00 -9.2999985690540878e+00 +1.1223359511191754e-02 -1.0336680066179029e+00 -5.8956214955811097e-02
-9.3999999999999826e+00 +9.0404354972211678e+00 +0.0000000000000000e+00 -9.3999985224000646e+00 +1.1223496742264739e-02 -1.0336652398927992e+00 -5.8956945153830410e-02
-9.4999999999999822e+00 +9.0403378686536300e+00 +0.0000000000000000e+00 -9.4999984747429220e+00 +1.1223631308536939e-02 -1.0336625740610914e+00 -5.8957674980672739e-02
-9.5999999999999819e+00 +9.0402392071390718e+00 +0.0000000000000000e+00 -9.5999984260719931e+00 +1.1223762953557526e-02 -1.0336600146232024e+00 -5.8958404661914536e-02
-9.6999999999999815e+00 +9.0401395126800601e+00 +0.0000000000000000e+00 -9.6999983763766107e+00 +1.1223891914205419e-02 -1.0336575622125015e+00 -5.8959134266074992e-02
-9.7999999999999812e+00 +9.0400387852790569e+00 +0.0000000000000000e+00 -9.7999983256461061e+00 +1.1224018550902340e-02 -1.0336552162437362e+00 -5.8959863822743881e-02
-9.8999999999999808e+00 +9.0399370249384177e+00 +0.0000000000000000e+00 -9.8999982738698140e+00 +1.1224143224293300e-02 -1.0336529761293518e+00 -5.8960593361917259e-02
-9.9999999999999805e+00 +9.0398342316603930e+00 +0.0000000000000000e+00 -9.9999982210370657e+00 +1.1224266295253542e-02 -1.0336508412794316e+00 -5.8961322914008359e-02
-1.0099999999999980e+01 +9.0397304054471252e+00 +0.0000000000000000e+00 -1.0099998167137194e+01 +1.1224388124895422e-02 -1.0336488111016451e+00 -5.8962052509858386e-02
-1.0199999999999980e+01 +9.0396255463006554e+00 +0.0000000000000000e+00 -1.0199998112159532e+01 +1.1224509074575395e-02 -1.0336468850011931e+00 -5.8962782180747297e-02
-1.0299999999999979e+01 +9.0395196542229197e+00 +0.0000000000000000e+00 -1.0299998056093411e+01 +1.1224629505900892e-02 -1.0336450623807494e+00 -5.8963511958404650e-02
-1.0399999999999979e+01 +9.0394127292157496e+00 +0.0000000000000000e+00 -1.0399997998928164e+01 +1.1224749780737276e-02 -1.0336433426404088e+00 -5.8964241875020425e-02
-1.0499999999999979e+01 +9.0393047712808769e+00 +0.0000000000000000e+00 -1.0499997940653124e+01 +1.1224870261214742e-02 -1.0336417251776300e+00 -5.8964971963255806e-02
-1.0599999999999978e+01 +9.0391957804199290e+00 +0.0000000000000000e+00 -1.0599997881257623e+01 +1.1224991309735248e-02 -1.0336402093871808e+00 -5.8965702256253971e-02
-1.0699999999999978e+01 +9.0390857566344316e+00 +0.0000000000000000e+00 -1.0699997820730994e+01 +1.1225113288979452e-02 -1.0336387946610839e+00 -5.8966432787650944e-02
-1.0799999999999978e+01 +9.0389746999258094e+00 +0.0000000000000000e+00 -1.0799997759062569e+01 +1.1225236561913600e-02 -1.0336374803885588e+00 -5.8967163591586380e-02
-1.0899999999999977e+01 +9.0388626102953893e+00 +0.0000000000000000e+00 -1.0899997696241678e+01 +1.1225361491796480e-02 -1.0336362659559699e+00 -5.8967894702714421e-02
-1.0999999999999977e+01 +9.0387494877443970e+00 +0.0000000000000000e+00 -1.0999997632257656e+01 +1.1225488442186305e-02 -1.0336351507467680e+00 -5.8968626156214315e-02
-1.1099999999999977e+01 +9.0386353322739570e+00 +0.0000000000000000e+00 -1.1099997567099834e+01 +1.1225617776947670e-02 -1.0336341341414381e+00 -5.8969357987801535e-02
-1.1199999999999976e+01 +9.0385201438850995e+00 +0.0000000000000000e+00 -1.1199997500757542e+01 +1.1225749860258427e-02 -1.0336332155174413e+00 -5.8970090233738275e-02
-1.1299999999999976e+01 +9.0384039225787536e+00 +0.0000000000000000e+00 -1.1299997433220113e+01 +1.1225885056616638e-02 -1.0336323942491599e+00 -5.8970822930844435e-02
-1.1399999999999975e+01 +9.0382866683557541e+00 +0.0000000000000000e+00 -1.1399997364476882e+01 +1.1226023730847457e-02 -1.0336316697078443e+00 -5.8971556116508374e-02
-1.1499999999999975e+01 +9.0381683812168365e+00 +0.0000000000000000e+00 -1.1499997294517176e+01 +1.1226166248110070e-02 -1.0336310412615533e+00 -5.8972289828697629e-02
-1.1599999999999975e+01 +9.0380490611626421e+00 +0.0000000000000000e+00 -1.1599997223330329e+01 +1.1226312864912635e-02 -1.0336305075388643e+00 -5.8973024143062651e-02
-1.1699999999999974e+01 +9.0379287081937161e+00 +0.0000000000000000e+00 -1.1699997150905672e+01 +1.1226463401958009e-02 -1.0336300642225413e+00 -5.8973759284052213e-02
