# field on trajectory
# s[mm] rx[mm] ry[mm] rz[mm] bx[T] by[T] bz[T]
0.0000000000000000e+00 +9.1013000000000002e+00 +0.0000000000000000e+00 +0.0000000000000000e+00 +1.1079508832705750e-02 -1.0301866192104252e+00 -5.8425085879543232e-02
1.0000000000000001e-01 +9.1012994852189433e+00 +0.0000000000000000e+00 +9.9999999998233322e-02 +1.1079502542113193e-02 -1.0301795143013770e+00 -5.8420608813244075e-02
2.0000000000000001e-01 +9.1012979408804977e+00 +0.0000000000000000e+00 +1.9999999998586676e-01 +1.1079496898123811e-02 -1.0301724638022203e+00 -5.8416134188746277e-02
3.0000000000000004e-01 +9.1012953669917085e+00 +0.0000000000000000e+00 +2.9999999995230059e-01 +1.1079492209106399e-02 -1.0301654701887792e+00 -5.8411663017254797e-02
4.0000000000000002e-01 +9.1012917635595656e+00 +0.0000000000000000e+00 +3.9999999988693535e-01 +1.1079488783450647e-02 -1.0301585359371810e+00 -5.8407196309940748e-02
5.0000000000000000e-01 +9.1012871305910004e+00 +0.0000000000000000e+00 +4.9999999977917170e-01 +1.1079486929571053e-02 -1.0301516635238641e+00 -5.8402735077940124e-02
5.9999999999999998e-01 +9.1012814680928802e+00 +0.0000000000000000e+00 +5.9999999961841066e-01 +1.1079486869210267e-02 -1.0301448556852710e+00 -5.8398280461046247e-02
6.9999999999999996e-01 +9.1012747760720085e+00 +0.0000000000000000e+00 +6.9999999939405333e-01 +1.1079488477333478e-02 -1.0301381161968892e+00 -5.8393834113791933e-02
7.9999999999999993e-01 +9.1012670545351231e+00 +0.0000000000000000e+00 +7.9999999909550101e-01 +1.1079491542217134e-02 -1.0301314490941282e+00 -5.8389397819373148e-02
8.9999999999999991e-01 +9.1012583034888852e+00 +0.0000000000000000e+00 +8.9999999871215530e-01 +1.1079495852143311e-02 -1.0301248584125997e+00 -5.8384973360957694e-02
9.9999999999999989e-01 +9.1012485229398834e+00 +0.0000000000000000e+00 +9.9999999823341801e-01 +1.1079501195394942e-02 -1.0301183481880920e+00 -5.8380562521686975e-02
1.0999999999999999e+00 +9.1012377128946245e+00 +0.0000000000000000e+00 +1.0999999976486909e+00 +1.1079507360251000e-02 -1.0301119224565418e+00 -5.8376167084677626e-02
1.2000000000000000e+00 +9.1012258733595317e+00 +0.0000000000000000e+00 +1.1999999969473762e+00 +1.1079514134981738e-02 -1.0301055852540073e+00 -5.8371788833023297e-02
1.3000000000000000e+00 +9.1012130043409378e+00 +0.0000000000000000e+00 +1.2999999961188764e+00 +1.1079521307843848e-02 -1.0300993406166439e+00 -5.8367429549796387e-02
1.4000000000000001e+00 +9.1011991058450867e+00 +0.0000000000000000e+00 +1.3999999951525939e+00 +1.1079528667075688e-02 -1.0300931925806713e+00 -5.8363091018049727e-02
1.5000000000000002e+00 +9.1011841778781228e+00 +0.0000000000000000e+00 +1.4999999940379314e+00 +1.1079536000892492e-02 -1.0300871451823537e+00 -5.8358775020818383e-02
1.6000000000000003e+00 +9.1011682204460911e+00 +0.0000000000000000e+00 +1.5999999927642916e+00 +1.1079543097481560e-02 -1.0300812024579664e+00 -5.8354483341121276e-02
1.7000000000000004e+00 +9.1011512335549316e+00 +0.0000000000000000e+00 +1.6999999913210777e+00 +1.1079549744997459e-02 -1.0300753684437729e+00 -5.8350217761963002e-02
1.8000000000000005e+00 +9.1011332172104780e+00 +0.0000000000000000e+00 +1.7999999896976928e+00 +1.1079555731557240e-02 -1.0300696471759980e+00 -5.8345980066335491e-02
1.9000000000000006e+00 +9.1011141714184483e+00 +0.0000000000000000e+00 +1.8999999878835403e+00 +1.1079560845235644e-02 -1.0300640426907981e+00 -5.8341772037219797e-02
2.0000000000000004e+00 +9.1010940961844451e+00 +0.0000000000000000e+00 +1.9999999858680235e+00 +1.1079564874060276e-02 -1.0300585590242350e+00 -5.8337595457587717e-02
2.1000000000000005e+00 +9.1010729915139503e+00 +0.0000000000000000e+00 +2.0999999836405463e+00 +1.1079567606006846e-02 -1.0300532002122511e+00 -5.8333452110403625e-02
2.2000000000000006e+00 +9.1010508574123214e+00 +0.0000000000000000e+00 +2.1999999811905124e+00 +1.1079568828994345e-02 -1.0300479702906400e+00 -5.8329343778626183e-02
2.3000000000000007e+00 +9.1010276938847881e+00 +0.0000000000000000e+00 +2.2999999785073260e+00 +1.1079568330880267e-02 -1.0300428732950202e+00 -5.8325272245209919e-02
2.4000000000000008e+00 +9.1010035009364465e+00 +0.0000000000000000e+00 +2.3999999755803905e+00 +1.1079565899455794e-02 -1.0300379132608093e+00 -5.8321239293107195e-02
2.5000000000000009e+00 +9.1009782785722564e+00 +0.0000000000000000e+00 +2.4999999723991104e+00 +1.1079561322441013e-02 -1.0300330942231952e+00 -5.8317246705269728e-02
2.6000000000000010e+00 +9.1009520267970352e+00 +0.0000000000000000e+00 +2.5999999689528903e+00 +1.1079554486659164e-02 -1.0300284185952815e+00 -5.8313296070950905e-02
2.7000000000000011e+00 +9.1009247456154583e+00 +0.0000000000000000e+00 +2.6999999652311342e+00 +1.1079545675602338e-02 -1.0300238823027235e+00 -5.8309388204611089e-02
2.8000000000000012e+00 +9.1008964350320642e+00 +0.0000000000000000e+00 +2.7999999612232469e+00 +1.1079535271951064e-02 -1.0300194796494551e+00 -5.8305523727022246e-02
2.9000000000000012e+00 +9.1008670950512549e+00 +0.0000000000000000e+00 +2.8999999569186330e+00 +1.1079523658407397e-02 -1.0300152049395750e+00 -5.8301703258970453e-02
3.0000000000000013e+00 +9.1008367256773059e+00 +0.0000000000000000e+00 +2.9999999523066969e+00 +1.1079511217699444e-02 -1.0300110524773558e+00 -5.8297927421258534e-02
3.1000000000000014e+00 +9.1008053269143723e+00 +0.0000000000000000e+00 +3.0999999473768436e+00 +1.1079498332585836e-02 -1.0300070165672621e+00 -5.8294196834708205e-02
3.2000000000000015e+00 +9.1007728987664915e+00 +0.0000000000000000e+00 +3.1999999421184779e+00 +1.1079485385860290e-02 -1.0300030915139620e+00 -5.8290512120162577e-02
3.3000000000000016e+00 +9.1007394412375895e+00 +0.0000000000000000e+00 +3.2999999365210049e+00 +1.1079472760356125e-02 -1.0299992716223452e+00 -5.8286873898488613e-02
3.4000000000000017e+00 +9.1007049543314871e+00 +0.0000000000000000e+00 +3.3999999305738298e+00 +1.1079460838950761e-02 -1.0299955511975343e+00 -5.8283282790579302e-02
3.5000000000000018e+00 +9.1006694380519075e+00 +0.0000000000000000e+00 +3.4999999242663575e+00 +1.1079450004570238e-02 -1.0299919245449016e+00 -5.8279739417356258e-02
3.6000000000000019e+00 +9.1006328924024800e+00 +0.0000000000000000e+00 +3.5999999175879935e+00 +1.1079440640193753e-02 -1.0299883859700820e+00 -5.8276244399771970e-02
3.7000000000000020e+00 +9.1005953173867429e+00 +0.0000000000000000e+00 +3.6999999105281427e+00 +1.1079433128858177e-02 -1.0299849297789898e+00 -5.8272798358812265e-02
3.8000000000000020e+00 +9.1005567130081566e+00 +0.0000000000000000e+00 +3.7999999030762108e+00 +1.1079427853662538e-02 -1.0299815502778302e+00 -5.8269401915498606e-02
3.9000000000000021e+00 +9.1005170792701033e+00 +0.0000000000000000e+00 +3.8999998952216028e+00 +1.1079425197772587e-02 -1.0299782417731167e+00 -5.8266055690890592e-02
4.0000000000000018e+00 +9.1004764161758942e+00 +0.0000000000000000e+00 +3.9999998869537250e+00 +1.1079425544425281e-02 -1.0299749985716846e+00 -5.8262760306088270e-02
4.1000000000000014e+00 +9.1004347237287746e+00 +0.0000000000000000e+00 +4.0999998782619826e+00 +1.1079429276933317e-02 -1.0299718149807049e+00 -5.8259516382234526e-02
4.2000000000000011e+00 +9.1003920019319313e+00 +0.0000000000000000e+00 +4.1999998691357812e+00 +1.1079436778689644e-02 -1.0299686853077006e+00 -5.8256324540517532e-02
4.3000000000000007e+00 +9.1003482507884979e+00 +0.0000000000000000e+00 +4.2999998595645268e+00 +1.1079448433171981e-02 -1.0299656038605598e+00 -5.8253185402173058e-02
4.4000000000000004e+00 +9.1003034703015580e+00 +0.0000000000000000e+00 +4.3999998495376245e+00 +1.1079464623947337e-02 -1.0299625649475510e+00 -5.8250099588486898e-02
4.5000000000000000e+00 +9.1002576604741545e+00 +0.0000000000000000e+00 +4.4999998390444809e+00 +1.1079485734676518e-02 -1.0299595628773377e+00 -5.8247067720797296e-02
4.5999999999999996e+00 +9.1002108213092932e+00 +0.0000000000000000e+00 +4.5999998280745018e+00 +1.1079512032704653e-02 -1.0299565928767815e+00 -5.8244090625007343e-02
4.6999999999999993e+00 +9.1001629528099457e+00 +0.0000000000000000e+00 +4.6999998166170931e+00 +1.1079543319766051e-02 -1.0299536538443690e+00 -5.8241169945119353e-02
4.7999999999999989e+00 +9.1001140549790556e+00 +0.0000000000000000e+00 +4.7999998046616614e+00 +1.1079579281130748e-02 -1.0299507455969179e+00 -5.8238307529701605e-02
4.8999999999999986e+00 +9.1000641278195342e+00 +0.0000000000000000e+00 +4.8999997921976126e+00 +1.1079619602001817e-02 -1.0299478679518044e+00 -5.8235505227377797e-02
4.9999999999999982e+00 +9.1000131713342647e+00 +0.0000000000000000e+00 +4.9999997792143533e+00 +1.1079663967510926e-02 -1.0299450207269873e+00 -5.8232764886829207e-02
5.0999999999999979e+00 +9.0999611855260962e+00 +0.0000000000000000e+00 +5.0999997657012894e+00 +1.1079712062713930e-02 -1.0299422037410240e+00 -5.8230088356796640e-02
5.1999999999999975e+00 +9.0999081703978497e+00 +0.0000000000000000e+00 +5.1999997516478276e+00 +1.1079763572586453e-02 -1.0299394168130940e+00 -5.8227477486082611e-02
5.2999999999999972e+00 +9.0998541259523158e+00 +0.0000000000000000e+00 +5.2999997370433745e+00 +1.1079818182019443e-02 -1.0299366597630166e+00 -5.8224934123553264e-02
5.3999999999999968e+00 +9.0997990521922549e+00 +0.0000000000000000e+00 +5.3999997218773368e+00 +1.1079875575814779e-02 -1.0299339324112702e+00 -5.8222460118140459e-02
5.4999999999999964e+00 +9.0997429491203992e+00 +0.0000000000000000e+00 +5.4999997061391204e+00 +1.1079935438680842e-02 -1.0299312345790161e+00 -5.8220057318843971e-02
5.5999999999999961e+00 +9.0996858167394521e+00 +0.0000000000000000e+00 +5.5999996898181328e+00 +1.1079997455228094e-02 -1.0299285660881126e+00 -5.8217727574733313e-02
5.6999999999999957e+00 +9.0996276550520854e+00 +0.0000000000000000e+00 +5.6999996729037807e+00 +1.1080061309964655e-02 -1.0299259267611405e+00 -5.8215472734949945e-02
5.7999999999999954e+00 +9.0995684640609440e+00 +0.0000000000000000e+00 +5.7999996553854709e+00 +1.1080126687291896e-02 -1.0299233164214203e+00 -5.8213294648709314e-02
5.8999999999999950e+00 +9.0995082437686410e+00 +0.0000000000000000e+00 +5.8999996372526100e+00 +1.1080193271500012e-02 -1.0299207348930299e+00 -5.8211195165302786e-02
5.9999999999999947e+00 +9.0994469941777645e+00 +0.0000000000000000e+00 +5.9999996184946047e+00 +1.1080260746763597e-02 -1.0299181820008316e+00 -5.8209176134099851e-02
6.0999999999999943e+00 +9.0993847152908707e+00 +0.0000000000000000e+00 +6.0999995991008626e+00 +1.1080328797137256e-02 -1.0299156575704835e+00 -5.8207239404550061e-02
6.1999999999999940e+00 +9.0993214071104909e+00 +0.0000000000000000e+00 +6.1999995790607905e+00 +1.1080397106551159e-02 -1.0299131614284649e+00 -5.8205386826185111e-02
6.2999999999999936e+00 +9.0992570696391262e+00 +0.0000000000000000e+00 +6.2999995583637958e+00 +1.1080465358806630e-02 -1.0299106934020947e+00 -5.8203620248620878e-02
6.3999999999999932e+00 +9.0991917028792493e+00 +0.0000000000000000e+00 +6.3999995369992853e+00 +1.1080533237571744e-02 -1.0299082533195505e+00 -5.8201941521559511e-02
6.4999999999999929e+00 +9.0991253068333062e+00 +0.0000000000000000e+00 +6.4999995149566665e+00 +1.1080600426376900e-02 -1.0299058410098902e+00 -5.8200352494791378e-02
6.5999999999999925e+00 +9.0990578815037146e+00 +0.0000000000000000e+00 +6.5999994922253471e+00 +1.1080666635390268e-02 -1.0299034568641925e+00 -5.8198854715503220e-02
6.6999999999999922e+00 +9.0989894268928637e+00 +0.0000000000000000e+00 +6.6999994687947346e+00 +1.1080731681841085e-02 -1.0299011035188845e+00 -5.8197448520132866e-02
6.7999999999999918e+00 +9.0989199430031125e+00 +0.0000000000000000e+00 +6.7999994446542358e+00 +1.1080795409830955e-02 -1.0298987841722205e+00 -5.8196133942376028e-02
6.8999999999999915e+00 +9.0988494298367861e+00 +0.0000000000000000e+00 +6.8999994197932581e+00 +1.1080857663579703e-02 -1.0298965020231297e+00 -5.8194911015874241e-02
6.9999999999999911e+00 +9.0987778873961727e+00 +0.0000000000000000e+00 +6.9999993942012093e+00 +1.1080918287430764e-02 -1.0298942602712278e+00 -5.8193779774211508e-02
7.0999999999999908e+00 +9.0987053156835209e+00 +0.0000000000000000e+00 +7.0999993678674969e+00 +1.1080977125856499e-02 -1.0298920621168248e+00 -5.8192740250910861e-02
7.1999999999999904e+00 +9.0986317147010336e+00 +0.0000000000000000e+00 +7.1999993407815284e+00 +1.1081034023463559e-02 -1.0298899107609372e+00 -5.8191792479431188e-02
7.2999999999999901e+00 +9.0985570844508690e+00 +0.0000000000000000e+00 +7.2999993129327114e+00 +1.1081088824998225e-02 -1.0298878094052941e+00 -5.8190936493163835e-02
7.3999999999999897e+00 +9.0984814249351338e+00 +0.0000000000000000e+00 +7.3999992843104545e+00 +1.1081141375351771e-02 -1.0298857612523509e+00 -5.8190172325429286e-02
7.4999999999999893e+00 +9.0984047361558833e+00 +0.0000000000000000e+00 +7.4999992549041643e+00 +1.1081191519565790e-02 -1.0298837695052967e+00 -5.8189500009473878e-02
7.5999999999999890e+00 +9.0983270181151177e+00 +0.0000000000000000e+00 +7.5999992247032493e+00 +1.1081239102837561e-02 -1.0298818373680643e+00 -5.8188919578466412e-02
7.6999999999999886e+00 +9.0982482708147732e+00 +0.0000000000000000e+00 +7.6999991936971162e+00 +1.1081283970525383e-02 -1.0298799680453392e+00 -5.8188431065494928e-02
7.7999999999999883e+00 +9.0981684942567274e+00 +0.0000000000000000e+00 +7.7999991618751734e+00 +1.1081325968153930e-02 -1.0298781647425717e+00 -5.8188034503563295e-02
7.8999999999999879e+00 +9.0980876884427904e+00 +0.0000000000000000e+00 +7.8999991292268286e+00 +1.1081364941419593e-02 -1.0298764306659844e+00 -5.8187729925587919e-02
7.9999999999999876e+00 +9.0980058533747030e+00 +0.0000000000000000e+00 +7.9999990957414893e+00 +1.1081400736195833e-02 -1.0298747690225811e+00 -5.8187517364394488e-02
8.0999999999999872e+00 +9.0979229890541351e+00 +0.0000000000000000e+00 +8.0999990614085640e+00 +1.1081433198538519e-02 -1.0298731830201600e+00 -5.8187396852714547e-02
8.1999999999999869e+00 +9.0978390954826800e+00 +0.0000000000000000e+00 +8.1999990262174602e+00 +1.1081462174691283e-02 -1.0298716758673194e+00 -5.8187368423182298e-02
8.2999999999999865e+00 +9.0977541726618529e+00 +0.0000000000000000e+00 +8.2999989901575848e+00 +1.1081487511090853e-02 -1.0298702507734703e+00 -5.8187432108331182e-02
8.3999999999999861e+00 +9.0976682205930874e+00 +0.0000000000000000e+00 +8.3999989532183452e+00 +1.1081509054372425e-02 -1.0298689109488430e+00 -5.8187587940590577e-02
8.4999999999999858e+00 +9.0975812392777300e+00 +0.0000000000000000e+00 +8.4999989153891509e+00 +1.1081526651374967e-02 -1.0298676596044996e+00 -5.8187835952282559e-02
8.5999999999999854e+00 +9.0974932287170400e+00 +0.0000000000000000e+00 +8.5999988766594075e+00 +1.1081540203082708e-02 -1.0298664981603325e+00 -5.8188176060603954e-02
8.6999999999999851e+00 +9.0974041889121899e+00 +0.0000000000000000e+00 +8.6999988370185246e+00 +1.1081549826310400e-02 -1.0298654208681621e+00 -5.8188607722642553e-02
8.7999999999999847e+00 +9.0973141198642651e+00 +0.0000000000000000e+00 +8.7999987964559079e+00 +1.1081555691654754e-02 -1.0298644201867371e+00 -5.8189130280565486e-02
8.8999999999999844e+00 +9.0972230215742762e+00 +0.0000000000000000e+00 +8.8999987549609649e+00 +1.1081557969515227e-02 -1.0298634885736566e+00 -5.8189743076663775e-02
8.9999999999999840e+00 +9.0971308940431630e+00 +0.0000000000000000e+00 +8.9999987125231051e+00 +1.1081556830087611e-02 -1.0298626184853221e+00 -5.8190445453356082e-02
9.0999999999999837e+00 +9.0970377372718083e+00 +0.0000000000000000e+00 +9.0999986691317343e+00 +1.1081552443357691e-02 -1.0298618023768931e+00 -5.8191236753192044e-02
9.1999999999999833e+00 +9.0969435512610364e+00 +0.0000000000000000e+00 +9.1999986247762600e+00 +1.1081544979094858e-02 -1.0298610327022419e+00 -5.8192116318855965e-02
9.2999999999999829e+00 +9.0968483360116270e+00 +0.0000000000000000e+00 +9.2999985794460898e+00 +1.1081534606845708e-02 -1.0298603019139041e+00 -5.8193083493170109e-02
9.3999999999999826e+00 +9.0967520915243210e+00 +0.0000000000000000e+00 +9.3999985331306313e+00 +1.1081521495927723e-02 -1.0298596024630347e+00 -5.8194137619098363e-02
9.4999999999999822e+00 +9.0966548177998288e+00 +0.0000000000000000e+00 +9.4999984858192921e+00 +1.1081505815422856e-02 -1.0298589267993614e+00 -5.8195278039749727e-02
9.5999999999999819e+00 +9.0965565148388361e+00 +0.0000000000000000e+00 +9.5999984375014780e+00 +1.1081487734171173e-02 -1.0298582673711401e+00 -5.8196504098381827e-02
9.6999999999999815e+00 +9.0964571826420144e+00 +0.0000000000000000e+00 +9.6999983881665983e+00 +1.1081467420764482e-02 -1.0298576166251046e+00 -5.8197815138404385e-02
9.7999999999999812e+00 +9.0963568212100245e+00 +0.0000000000000000e+00 +9.7999983378040589e+00 +1.1081445043539953e-02 -1.0298569670064248e+00 -5.8199210503382816e-02
9.8999999999999808e+00 +9.0962554305435273e+00 +0.0000000000000000e+00 +9.8999982864032674e+00 +1.1081420770573770e-02 -1.0298563109586591e+00 -5.8200689537041723e-02
9.9999999999999805e+00 +9.0961530106431887e+00 +0.0000000000000000e+00 +9.9999982339536331e+00 +1.1081394769674745e-02 -1.0298556409237081e+00 -5.8202251583268423e-02
1.0099999999999980e+01 +9.0960495615096892e+00 +0.0000000000000000e+00 +1.0099998180444562e+01 +1.1081367208377935e-02 -1.0298549493417672e+00 -5.8203895986116500e-02
1.0199999999999980e+01 +9.0959450831437341e+00 +0.0000000000000000e+00 +1.0199998125865461e+01 +1.1081338253938320e-02 -1.0298542286512824e+00 -5.8205622089809284e-02
1.0299999999999979e+01 +9.0958395755460533e+00 +0.0000000000000000e+00 +1.0299998070205739e+01 +1.1081308073324388e-02 -1.0298534712889056e+00 -5.8207429238743461e-02
1.0399999999999979e+01 +9.0957330387174160e+00 +0.0000000000000000e+00 +1.0399998013454802e+01 +1.1081276833211801e-02 -1.0298526696894448e+00 -5.8209316777492609e-02
1.0499999999999979e+01 +9.0956254726586359e+00 +0.0000000000000000e+00 +1.0499997955602058e+01 +1.1081244699977013e-02 -1.0298518162858210e+00 -5.8211284050810636e-02
1.0599999999999978e+01 +9.0955168773705761e+00 +0.0000000000000000e+00 +1.0599997896636916e+01 +1.1081211835206876e-02 -1.0298509059131578e+00 -5.8213330285762289e-02
1.0699999999999978e+01 +9.0954072528541587e+00 +0.0000000000000000e+00 +1.0699997836548784e+01 +1.1081178382451505e-02 -1.0298499430220545e+00 -5.8215454237969047e-02
1.0799999999999978e+01 +9.0952965991103571e+00 +0.0000000000000000e+00 +1.0799997775327068e+01 +1.1081144481049150e-02 -1.0298489344663793e+00 -5.8217654545052053e-02
1.0899999999999977e+01 +9.0951849161401910e+00 +0.0000000000000000e+00 +1.0899997712961177e+01 +1.1081110270671699e-02 -1.0298478870988901e+00 -5.8219929844488587e-02
1.0999999999999977e+01 +9.0950722039447172e+00 +0.0000000000000000e+00 +1.0999997649440521e+01 +1.1081075891333225e-02 -1.0298468077712075e+00 -5.8222278773607687e-02
1.1099999999999977e+01 +9.0949584625250264e+00 +0.0000000000000000e+00 +1.1099997584754506e+01 +1.1081041483398552e-02 -1.0298457033337933e+00 -5.8224699969586041e-02
1.1199999999999976e+01 +9.0948436918822324e+00 +0.0000000000000000e+00 +1.1199997518892541e+01 +1.1081007187591791e-02 -1.0298445806359242e+00 -5.8227192069443628e-02
1.1299999999999976e+01 +9.0947278920174703e+00 +0.0000000000000000e+00 +1.1299997451844034e+01 +1.1080973145004868e-02 -1.0298434465256650e+00 -5.8229753710039363e-02
1.1399999999999975e+01 +9.0946110629318859e+00 +0.0000000000000000e+00 +1.1399997383598393e+01 +1.1080939497106101e-02 -1.0298423078498466e+00 -5.8232383528066957e-02
1.1499999999999975e+01 +9.0944932046266285e+00 +0.0000000000000000e+00 +1.1499997314145027e+01 +1.1080906385748712e-02 -1.0298411714540405e+00 -5.8235080160050537e-02
1.1599999999999975e+01 +9.0943743171028437e+00 +0.0000000000000000e+00 +1.1599997243473345e+01 +1.1080873953179374e-02 -1.0298400441825339e+00 -5.8237842242340340e-02
1.1699999999999974e+01 +9.0942544003616721e+00 +0.0000000000000000e+00 +1.1699997171572754e+01 +1.1080842342046749e-02 -1.0298389328783015e+00 -5.8240668411108483e-02
1.1799999999999974e+01 +9.0941334544042363e+00 +0.0000000000000000e+00 +1.1799997098432662e+01 +1.1080811695410015e-02 -1.0298378443829879e+00 -5.8243557302344574e-02
