# field on trajectory
# s[mm] rx[mm] ry[mm] rz[mm] bx[T] by[T] bz[T]
0.0000000000000000e+00 +9.0449999999999999e+00 +0.0000000000000000e+00 +0.0000000000000000e+00 +9.0365700556525163e-03 -1.7045167480692963e-01 -1.8624683270417554e-03
-1.0000000000000001e-01 +9.0449994847825455e+00 +0.0000000000000000e+00 -9.9999999998230338e-02 +9.0366881131478220e-03 -1.7045161858279945e-01 -1.8624539517488052e-03
-2.0000000000000001e-01 +9.0449979391304058e+00 +0.0000000000000000e+00 -1.9999999998584272e-01 +9.0368097364106007e-03 -1.7045156709998552e-01 -1.8624400480257272e-03
-3.0000000000000004e-01 +9.0449953630438920e+00 +0.0000000000000000e+00 -2.9999999995221921e-01 +9.0369347140241852e-03 -1.7045152013570283e-01 -1.8624265241540127e-03
-4.0000000000000002e-01 +9.0449917565232880e+00 +0.0000000000000000e+00 -3.9999999988674184e-01 +9.0370628345643866e-03 -1.7045147746718337e-01 -1.8624132884141392e-03
-5.0000000000000000e-01 +9.0449871195688534e+00 +0.0000000000000000e+00 -4.9999999977879273e-01 +9.0371938866006252e-03 -1.7045143887167422e-01 -1.8624002490844750e-03
-5.9999999999999998e-01 +9.0449814521808207e+00 +0.0000000000000000e+00 -5.9999999961775385e-01 +9.0373276586970964e-03 -1.7045140412643642e-01 -1.8623873144401840e-03
-6.9999999999999996e-01 +9.0449747543594015e+00 +0.0000000000000000e+00 -6.9999999939300739e-01 +9.0374639394139120e-03 -1.7045137300874283e-01 -1.8623743927521240e-03
-7.9999999999999993e-01 +9.0449670261047856e+00 +0.0000000000000000e+00 -7.9999999909393538e-01 +9.0376025173082870e-03 -1.7045134529587716e-01 -1.8623613922857582e-03
-8.9999999999999991e-01 +9.0449582674171403e+00 +0.0000000000000000e+00 -8.9999999870991987e-01 +9.0377431809356545e-03 -1.7045132076513192e-01 -1.8623482213000518e-03
-9.9999999999999989e-01 +9.0449484782966145e+00 +0.0000000000000000e+00 -9.9999999823034302e-01 +9.0378857188508650e-03 -1.7045129919380730e-01 -1.8623347880463801e-03
-1.0999999999999999e+00 +9.0449376587433399e+00 +0.0000000000000000e+00 -1.0999999976445869e+00 +9.0380299196093222e-03 -1.7045128035920912e-01 -1.8623210007674286e-03
-1.2000000000000000e+00 +9.0449258087574318e+00 +0.0000000000000000e+00 -1.1999999969420336e+00 +9.0381755717681318e-03 -1.7045126403864758e-01 -1.8623067676961000e-03
-1.3000000000000000e+00 +9.0449129283389915e+00 +0.0000000000000000e+00 -1.2999999961120654e+00 +9.0383224638872703e-03 -1.7045125000943565e-01 -1.8622919970544144e-03
-1.4000000000000001e+00 +9.0448990174881043e+00 +0.0000000000000000e+00 -1.3999999951440640e+00 +9.0384703845307422e-03 -1.7045123804888740e-01 -1.8622765970524155e-03
-1.5000000000000002e+00 +9.0448840762048430e+00 +0.0000000000000000e+00 -1.4999999940274118e+00 +9.0386191222677388e-03 -1.7045122793431663e-01 -1.8622604758870749e-03
-1.6000000000000003e+00 +9.0448681044892716e+00 +0.0000000000000000e+00 -1.5999999927514910e+00 +9.0387684656737816e-03 -1.7045121944303507e-01 -1.8622435417411925e-03
-1.7000000000000004e+00 +9.0448511023414433e+00 +0.0000000000000000e+00 -1.6999999913056834e+00 +9.0389182033318912e-03 -1.7045121235235083e-01 -1.8622257027823032e-03
-1.8000000000000005e+00 +9.0448330697614026e+00 +0.0000000000000000e+00 -1.7999999896793712e+00 +9.0390681238337340e-03 -1.7045120643956710e-01 -1.8622068671615799e-03
-1.9000000000000006e+00 +9.0448140067491885e+00 +0.0000000000000000e+00 -1.8999999878619367e+00 +9.0392180157808019e-03 -1.7045120148198012e-01 -1.8621869430127374e-03
-2.0000000000000004e+00 +9.0447939133048312e+00 +0.0000000000000000e+00 -1.9999999858427617e+00 +9.0393676677855417e-03 -1.7045119725687821e-01 -1.8621658384509365e-03
-2.1000000000000005e+00 +9.0447727894283592e+00 +0.0000000000000000e+00 -2.0999999836112284e+00 +9.0395169022402348e-03 -1.7045119358735439e-01 -1.8621434975482616e-03
-2.2000000000000006e+00 +9.0447506351197973e+00 +0.0000000000000000e+00 -2.1999999811567190e+00 +9.0396656766174675e-03 -1.7045119047975060e-01 -1.8621200082693449e-03
-2.3000000000000007e+00 +9.0447274503791668e+00 +0.0000000000000000e+00 -2.2999999784686156e+00 +9.0398139821607788e-03 -1.7045118798621542e-01 -1.8620954945537890e-03
-2.4000000000000008e+00 +9.0447032352064838e+00 +0.0000000000000000e+00 -2.3999999755363000e+00 +9.0399618101158034e-03 -1.7045118615888813e-01 -1.8620700803425028e-03
-2.5000000000000009e+00 +9.0446779896017624e+00 +0.0000000000000000e+00 -2.4999999723491548e+00 +9.0401091517301295e-03 -1.7045118504989845e-01 -1.8620438895790394e-03
-2.6000000000000010e+00 +9.0446517135650133e+00 +0.0000000000000000e+00 -2.5999999688965616e+00 +9.0402559982530658e-03 -1.7045118471136514e-01 -1.8620170462109145e-03
-2.7000000000000011e+00 +9.0446244070962400e+00 +0.0000000000000000e+00 -2.6999999651679030e+00 +9.0404023409354703e-03 -1.7045118519539490e-01 -1.8619896741909430e-03
-2.8000000000000012e+00 +9.0445960701954426e+00 +0.0000000000000000e+00 -2.7999999611525608e+00 +9.0405481710295627e-03 -1.7045118655408159e-01 -1.8619618974785640e-03
-2.9000000000000012e+00 +9.0445667028626158e+00 +0.0000000000000000e+00 -2.8999999568399168e+00 +9.0406934797887129e-03 -1.7045118883950519e-01 -1.8619338400411671e-03
-3.0000000000000013e+00 +9.0445363050977505e+00 +0.0000000000000000e+00 -2.9999999522193539e+00 +9.0408382584672761e-03 -1.7045119210373053e-01 -1.8619056258554257e-03
-3.1000000000000014e+00 +9.0445048769008274e+00 +0.0000000000000000e+00 -3.0999999472802537e+00 +9.0409824983203810e-03 -1.7045119639880674e-01 -1.8618773789086216e-03
-3.2000000000000015e+00 +9.0444724182718250e+00 +0.0000000000000000e+00 -3.1999999420119982e+00 +9.0411261906037481e-03 -1.7045120177676584e-01 -1.8618492231999738e-03
-3.3000000000000016e+00 +9.0444389292107150e+00 +0.0000000000000000e+00 -3.2999999364039696e+00 +9.0412693265735002e-03 -1.7045120828962182e-01 -1.8618212827419660e-03
-3.4000000000000017e+00 +9.0444044097174618e+00 +0.0000000000000000e+00 -3.3999999304455497e+00 +9.0414118974859684e-03 -1.7045121598937002e-01 -1.8617936815616771e-03
-3.5000000000000018e+00 +9.0443688597920211e+00 +0.0000000000000000e+00 -3.4999999241261213e+00 +9.0415538945974924e-03 -1.7045122492798545e-01 -1.8617665437021054e-03
-3.6000000000000019e+00 +9.0443322794343430e+00 +0.0000000000000000e+00 -3.5999999174350656e+00 +9.0416953091642417e-03 -1.7045123515742225e-01 -1.8617399932234981e-03
-3.7000000000000020e+00 +9.0442946686443708e+00 +0.0000000000000000e+00 -3.6999999103617651e+00 +9.0418361324420167e-03 -1.7045124672961251e-01 -1.8617141542046796e-03
-3.8000000000000020e+00 +9.0442560274220369e+00 +0.0000000000000000e+00 -3.7999999028956020e+00 +9.0419763556860641e-03 -1.7045125969646563e-01 -1.8616891507443778e-03
-3.9000000000000021e+00 +9.0442163557672668e+00 +0.0000000000000000e+00 -3.8999998950259585e+00 +9.0421159701508710e-03 -1.7045127410986657e-01 -1.8616651069625512e-03
-4.0000000000000018e+00 +9.0441756536799787e+00 +0.0000000000000000e+00 -3.9999998867422160e+00 +9.0422549670899858e-03 -1.7045129002167550e-01 -1.8616421470017154e-03
-4.1000000000000014e+00 +9.0441339211600802e+00 +0.0000000000000000e+00 -4.0999998780337572e+00 +9.0423933211482010e-03 -1.7045130745358789e-01 -1.8616203614542583e-03
-4.2000000000000011e+00 +9.0440911582074701e+00 +0.0000000000000000e+00 -4.1999998688899636e+00 +9.0425309405399376e-03 -1.7045132630672447e-01 -1.8615997066297844e-03
-4.3000000000000007e+00 +9.0440473648220401e+00 +0.0000000000000000e+00 -4.2999998593002173e+00 +9.0426677168751139e-03 -1.7045134645206189e-01 -1.8615801052577119e-03
-4.4000000000000004e+00 +9.0440025410036728e+00 +0.0000000000000000e+00 -4.3999998492539012e+00 +9.0428035417673934e-03 -1.7045136776057360e-01 -1.8615614800580012e-03
-4.5000000000000000e+00 +9.0439566867522441e+00 +0.0000000000000000e+00 -4.4999998387403961e+00 +9.0429383068343205e-03 -1.7045139010323074e-01 -1.8615437537404145e-03
-4.5999999999999996e+00 +9.0439098020676241e+00 +0.0000000000000000e+00 -4.5999998277490848e+00 +9.0430719036973910e-03 -1.7045141335100211e-01 -1.8615268490037680e-03
-4.6999999999999993e+00 +9.0438618869496761e+00 +0.0000000000000000e+00 -4.6999998162693490e+00 +9.0432042239822034e-03 -1.7045143737485505e-01 -1.8615106885351892e-03
-4.7999999999999989e+00 +9.0438129413982615e+00 +0.0000000000000000e+00 -4.7999998042905707e+00 +9.0433351593185475e-03 -1.7045146204575565e-01 -1.8614951950093708e-03
-4.8999999999999986e+00 +9.0437629654132348e+00 +0.0000000000000000e+00 -4.8999997918021325e+00 +9.0434646013405270e-03 -1.7045148723466913e-01 -1.8614802910878300e-03
-4.9999999999999982e+00 +9.0437119589944501e+00 +0.0000000000000000e+00 -4.9999997787934154e+00 +9.0435924416866643e-03 -1.7045151281256044e-01 -1.8614658994181585e-03
-5.0999999999999979e+00 +9.0436599221417584e+00 +0.0000000000000000e+00 -5.0999997652538021e+00 +9.0437185720000316e-03 -1.7045153865039453e-01 -1.8614519426332857e-03
-5.1999999999999975e+00 +9.0436068548550086e+00 +0.0000000000000000e+00 -5.1999997511726743e+00 +9.0438428839283297e-03 -1.7045156461913699e-01 -1.8614383433507272e-03
-5.2999999999999972e+00 +9.0435527571340497e+00 +0.0000000000000000e+00 -5.2999997365394140e+00 +9.0439652691240418e-03 -1.7045159058975426e-01 -1.8614250241718489e-03
-5.3999999999999968e+00 +9.0434976289787308e+00 +0.0000000000000000e+00 -5.3999997213434030e+00 +9.0440856192445119e-03 -1.7045161643321438e-01 -1.8614119076811190e-03
-5.4999999999999964e+00 +9.0434414703889008e+00 +0.0000000000000000e+00 -5.4999997055740231e+00 +9.0442038259520782e-03 -1.7045164202048715e-01 -1.8613989164453636e-03
-5.5999999999999961e+00 +9.0433842813644123e+00 +0.0000000000000000e+00 -5.5999996892206569e+00 +9.0443197809141774e-03 -1.7045166722254446e-01 -1.8613859730130277e-03
-5.6999999999999957e+00 +9.0433260619051179e+00 +0.0000000000000000e+00 -5.6999996722726856e+00 +9.0444333758034484e-03 -1.7045169191036122e-01 -1.8613729999134303e-03
-5.7999999999999954e+00 +9.0432668120108755e+00 +0.0000000000000000e+00 -5.7999996547194916e+00 +9.0445445022978768e-03 -1.7045171595491534e-01 -1.8613599196560229e-03
-5.8999999999999950e+00 +9.0432065316815446e+00 +0.0000000000000000e+00 -5.8999996365504570e+00 +9.0446530520808723e-03 -1.7045173922718848e-01 -1.8613466547296427e-03
-5.9999999999999947e+00 +9.0431452209169922e+00 +0.0000000000000000e+00 -5.9999996177549635e+00 +9.0447589168413962e-03 -1.7045176159816594e-01 -1.8613331276017774e-03
-6.0999999999999943e+00 +9.0430828797170886e+00 +0.0000000000000000e+00 -6.0999995983223929e+00 +9.0448619941771568e-03 -1.7045178298560029e-01 -1.8613192739428902e-03
-6.1999999999999940e+00 +9.0430195080817128e+00 +0.0000000000000000e+00 -6.1999995782421280e+00 +9.0449622052953260e-03 -1.7045180349429867e-01 -1.8613050823137807e-03
-6.2999999999999936e+00 +9.0429551060107460e+00 +0.0000000000000000e+00 -6.2999995575035497e+00 +9.0450594772873462e-03 -1.7045182327583400e-01 -1.8612905545114871e-03
-6.3999999999999932e+00 +9.0428896735040762e+00 +0.0000000000000000e+00 -6.3999995360960407e+00 +9.0451537372226026e-03 -1.7045184248178172e-01 -1.8612756923476594e-03
-6.4999999999999929e+00 +9.0428232105615933e+00 +0.0000000000000000e+00 -6.4999995140089819e+00 +9.0452449121474540e-03 -1.7045186126371983e-01 -1.8612604976493091e-03
-6.5999999999999925e+00 +9.0427557171831925e+00 +0.0000000000000000e+00 -6.5999994912317561e+00 +9.0453329290842623e-03 -1.7045187977322965e-01 -1.8612449722595630e-03
-6.6999999999999922e+00 +9.0426871933687671e+00 +0.0000000000000000e+00 -6.6999994677537451e+00 +9.0454177150304411e-03 -1.7045189816189565e-01 -1.8612291180384144e-03
-6.7999999999999918e+00 +9.0426176391182143e+00 +0.0000000000000000e+00 -6.7999994435643307e+00 +9.0454991969574593e-03 -1.7045191658130621e-01 -1.8612129368634769e-03
-6.8999999999999915e+00 +9.0425470544314290e+00 +0.0000000000000000e+00 -6.8999994186528948e+00 +9.0455773018099060e-03 -1.7045193518305346e-01 -1.8611964306307323e-03
-6.9999999999999911e+00 +9.0424754393083067e+00 +0.0000000000000000e+00 -6.9999993930088200e+00 +9.0456519565045041e-03 -1.7045195411873415e-01 -1.8611796012552840e-03
-7.0999999999999908e+00 +9.0424027937487406e+00 +0.0000000000000000e+00 -7.0999993666214873e+00 +9.0457230879291538e-03 -1.7045197353994956e-01 -1.8611624506721120e-03
-7.1999999999999904e+00 +9.0423291177526206e+00 +0.0000000000000000e+00 -7.1999993394802795e+00 +9.0457906229419616e-03 -1.7045199359830587e-01 -1.8611449808368166e-03
-7.2999999999999901e+00 +9.0422544113198331e+00 +0.0000000000000000e+00 -7.2999993115745774e+00 +9.0458544883702668e-03 -1.7045201444541458e-01 -1.8611271937263747e-03
-7.3999999999999897e+00 +9.0421786744502608e+00 +0.0000000000000000e+00 -7.3999992828937637e+00 +9.0459146110096859e-03 -1.7045203623289287e-01 -1.8611090913398898e-03
-7.4999999999999893e+00 +9.0421019071437794e+00 +0.0000000000000000e+00 -7.4999992534272204e+00 +9.0459709176231445e-03 -1.7045205911236386e-01 -1.8610906756993410e-03
-7.5999999999999890e+00 +9.0420241094002591e+00 +0.0000000000000000e+00 -7.5999992231643292e+00 +9.0460233349399059e-03 -1.7045208323545680e-01 -1.8610719488503368e-03
-7.6999999999999886e+00 +9.0419452812195615e+00 +0.0000000000000000e+00 -7.6999991920944719e+00 +9.0460717896546014e-03 -1.7045210875380751e-01 -1.8610529128628599e-03
-7.7999999999999883e+00 +9.0418654226015409e+00 +0.0000000000000000e+00 -7.7999991602070304e+00 +9.0461162084262813e-03 -1.7045213581905894e-01 -1.8610335698320244e-03
-7.8999999999999879e+00 +9.0417845335460427e+00 +0.0000000000000000e+00 -7.8999991274913866e+00 +9.0461565178774194e-03 -1.7045216458286092e-01 -1.8610139218788188e-03
-7.9999999999999876e+00 +9.0417026140529000e+00 +0.0000000000000000e+00 -7.9999990939369221e+00 +9.0461926445929743e-03 -1.7045219519687113e-01 -1.8609939711508618e-03
-8.0999999999999872e+00 +9.0416196641219369e+00 +0.0000000000000000e+00 -8.0999990595330189e+00 +9.0462245411738144e-03 -1.7045222773557681e-01 -1.8609737243960617e-03
-8.1999999999999869e+00 +9.0415356837529668e+00 +0.0000000000000000e+00 -8.1999990242690579e+00 +9.0462522644232587e-03 -1.7045226196473662e-01 -1.8609532066733219e-03
-8.2999999999999865e+00 +9.0414506729457909e+00 +0.0000000000000000e+00 -8.2999989881344227e+00 +9.0462758972198274e-03 -1.7045229757289185e-01 -1.8609324476176652e-03
-8.3999999999999861e+00 +9.0413646317002030e+00 +0.0000000000000000e+00 -8.3999989511184943e+00 +9.0462955224676414e-03 -1.7045233424854347e-01 -1.8609114768646791e-03
-8.4999999999999858e+00 +9.0412775600159918e+00 +0.0000000000000000e+00 -8.4999989132106535e+00 +9.0463112230974516e-03 -1.7045237168015126e-01 -1.8608903240504191e-03
-8.5999999999999854e+00 +9.0411894578929388e+00 +0.0000000000000000e+00 -8.5999988744002831e+00 +9.0463230820676272e-03 -1.7045240955613247e-01 -1.8608690188113011e-03
-8.6999999999999851e+00 +9.0411003253308255e+00 +0.0000000000000000e+00 -8.6999988346767640e+00 +9.0463311823651537e-03 -1.7045244756486083e-01 -1.8608475907839932e-03
-8.7999999999999847e+00 +9.0410101623294317e+00 +0.0000000000000000e+00 -8.7999987940294790e+00 +9.0463356070066420e-03 -1.7045248539466532e-01 -1.8608260696053186e-03
-8.8999999999999844e+00 +9.0409189688885387e+00 +0.0000000000000000e+00 -8.8999987524478090e+00 +9.0463364390393104e-03 -1.7045252273382913e-01 -1.8608044849121430e-03
-8.9999999999999840e+00 +9.0408267450079300e+00 +0.0000000000000000e+00 -8.9999987099211367e+00 +9.0463337615419911e-03 -1.7045255927058842e-01 -1.8607828663412744e-03
-9.0999999999999837e+00 +9.0407334906873942e+00 +0.0000000000000000e+00 -9.0999986664388430e+00 +9.0463276576261374e-03 -1.7045259469313115e-01 -1.8607612435293562e-03
-9.1999999999999833e+00 +9.0406392059267286e+00 +0.0000000000000000e+00 -9.1999986219903107e+00 +9.0463182104368149e-03 -1.7045262868959618e-01 -1.8607396461127615e-03
-9.2999999999999829e+00 +9.0405438907257381e+00 +0.0000000000000000e+00 -9.2999985765649207e+00 +9.0463055031536881e-03 -1.7045266094807182e-01 -1.8607181037274894e-03
-9.3999999999999826e+00 +9.0404475450842359e+00 +0.0000000000000000e+00 -9.3999985301520539e+00 +9.0462896189920389e-03 -1.7045269115659503e-01 -1.8606966460090555e-03
-9.4999999999999822e+00 +9.0403501690020516e+00 +0.0000000000000000e+00 -9.4999984827410930e+00 +9.0462706412037415e-03 -1.7045271900314973e-01 -1.8606753025923913e-03
-9.5999999999999819e+00 +9.0402517624790271e+00 +0.0000000000000000e+00 -9.5999984343214209e+00 +9.0462486530782787e-03 -1.7045274417566644e-01 -1.8606541031117344e-03
-9.6999999999999815e+00 +9.0401523255150202e+00 +0.0000000000000000e+00 -9.6999983848824165e+00 +9.0462237379437243e-03 -1.7045276636202047e-01 -1.8606330772005248e-03
-9.7999999999999812e+00 +9.0400518581099067e+00 +0.0000000000000000e+00 -9.7999983344134645e+00 +9.0461959791677433e-03 -1.7045278525003099e-01 -1.8606122544912978e-03
-9.8999999999999808e+00 +9.0399503602635853e+00 +0.0000000000000000e+00 -9.8999982829039439e+00 +9.0461654601585884e-03 -1.7045280052746004e-01 -1.8605916646155763e-03
-9.9999999999999805e+00 +9.0398478319759725e+00 +0.0000000000000000e+00 -9.9999982303432393e+00 +9.0461322643660899e-03 -1.7045281188201117e-01 -1.8605713372037665e-03
-1.0099999999999980e+01 +9.0397442732470115e+00 +0.0000000000000000e+00 -1.0099998176720732e+01 +9.0460964342337653e-03 -1.7045281908992221e-01 -1.8605512882498029e-03
-1.0199999999999980e+01 +9.0396396840766702e+00 +0.0000000000000000e+00 -1.0199998122025802e+01 +9.0460578480262011e-03 -1.7045282228184688e-01 -1.8605314792009880e-03
-1.0299999999999979e+01 +9.0395340644649398e+00 +0.0000000000000000e+00 -1.0299998066247833e+01 +9.0460163429487220e-03 -1.7045282167721187e-01 -1.8605118578625714e-03
-1.0399999999999979e+01 +9.0394274144118363e+00 +0.0000000000000000e+00 -1.0399998009376205e+01 +9.0459717561958315e-03 -1.7045281749563879e-01 -1.8604923720338972e-03
-1.0499999999999979e+01 +9.0393197339173952e+00 +0.0000000000000000e+00 -1.0499997951400301e+01 +9.0459239249508824e-03 -1.7045280995694967e-01 -1.8604729695082018e-03
-1.0599999999999978e+01 +9.0392110229816733e+00 +0.0000000000000000e+00 -1.0599997892309503e+01 +9.0458726863857572e-03 -1.7045279928117157e-01 -1.8604535980724141e-03
-1.0699999999999978e+01 +9.0391012816047454e+00 +0.0000000000000000e+00 -1.0699997832093194e+01 +9.0458178776605495e-03 -1.7045278568854194e-01 -1.8604342055069574e-03
-1.0799999999999978e+01 +9.0389905097867072e+00 +0.0000000000000000e+00 -1.0799997770740754e+01 +9.0457593359232185e-03 -1.7045276939951343e-01 -1.8604147395855492e-03
-1.0899999999999977e+01 +9.0388787075276671e+00 +0.0000000000000000e+00 -1.0899997708241566e+01 +9.0456968983092870e-03 -1.7045275063475901e-01 -1.8603951480750025e-03
-1.0999999999999977e+01 +9.0387658748277513e+00 +0.0000000000000000e+00 -1.0999997644585012e+01 +9.0456304019414964e-03 -1.7045272961517705e-01 -1.8603753787350271e-03
-1.1099999999999977e+01 +9.0386520116870983e+00 +0.0000000000000000e+00 -1.1099997579760474e+01 +9.0455596839295119e-03 -1.7045270656189615e-01 -1.8603553793180327e-03
-1.1199999999999976e+01 +9.0385371181058609e+00 +0.0000000000000000e+00 -1.1199997513757335e+01 +9.0454845813695683e-03 -1.7045268169628058e-01 -1.8603350975689300e-03
-1.1299999999999976e+01 +9.0384211940842007e+00 +0.0000000000000000e+00 -1.1299997446564976e+01 +9.0454049313441823e-03 -1.7045265523993480e-01 -1.8603144812249350e-03
-1.1399999999999975e+01 +9.0383042396222883e+00 +0.0000000000000000e+00 -1.1399997378172779e+01 +9.0453205709218071e-03 -1.7045262741470885e-01 -1.8602934780153734e-03
-1.1499999999999975e+01 +9.0381862547203067e+00 +0.0000000000000000e+00 -1.1499997308570126e+01 +9.0452313371565361e-03 -1.7045259844270341e-01 -1.8602720356614838e-03
-1.1599999999999975e+01 +9.0380672393784405e+00 +0.0000000000000000e+00 -1.1599997237746400e+01 +9.0451370670877641e-03 -1.7045256854627452e-01 -1.8602501018762222e-03
-1.1699999999999974e+01 +9.0379471935968851e+00 +0.0000000000000000e+00 -1.1699997165690984e+01 +9.0450375977398963e-03 -1.7045253794803894e-01 -1.8602276243640666e-03
