# field on trajectory
# s[mm] rx[mm] ry[mm] rz[mm] bx[T] by[T] bz[T]
0.0000000000000000e+00 +9.1463000000000001e+00 +0.0000000000000000e+00 +0.0000000000000000e+00 +1.1589493791586618e-02 -1.0329652540523093e+00 -5.8811022010331539e-02
-1.0000000000000001e-01 +9.1462994838752749e+00 +0.0000000000000000e+00 -9.9999999998224121e-02 +1.1589512662157473e-02 -1.0329615829350245e+00 -5.8812611500429275e-02
-2.0000000000000001e-01 +9.1462979355035472e+00 +0.0000000000000000e+00 -1.9999999998579288e-01 +1.1589529057680813e-02 -1.0329579102425197e+00 -5.8814198996201189e-02
-3.0000000000000004e-01 +9.1462953548884869e+00 +0.0000000000000000e+00 -2.9999999995205107e-01 +1.1589543784460988e-02 -1.0329542384640333e+00 -5.8815785238411272e-02
-4.0000000000000002e-01 +9.1462917420337622e+00 +0.0000000000000000e+00 -3.9999999988634349e-01 +1.1589557648805119e-02 -1.0329505700888832e+00 -5.8817370967875315e-02
-5.0000000000000000e-01 +9.1462870969430412e+00 +0.0000000000000000e+00 -4.9999999977801518e-01 +1.1589571457013316e-02 -1.0329469076064419e+00 -5.8818956925456009e-02
-5.9999999999999998e-01 +9.1462814196199815e+00 +0.0000000000000000e+00 -5.9999999961641115e-01 +1.1589586015368847e-02 -1.0329432535061165e+00 -5.8820543852057969e-02
-6.9999999999999996e-01 +9.1462747100682371e+00 +0.0000000000000000e+00 -6.9999999939087676e-01 +1.1589602130128347e-02 -1.0329396102773252e+00 -5.8822132488623009e-02
-7.9999999999999993e-01 +9.1462669682914495e+00 +0.0000000000000000e+00 -7.9999999909075725e-01 +1.1589620607511973e-02 -1.0329359804094718e+00 -5.8823723576125010e-02
-8.9999999999999991e-01 +9.1462581942932442e+00 +0.0000000000000000e+00 -8.9999999870539804e-01 +1.1589642253693621e-02 -1.0329323663919281e+00 -5.8825317855565128e-02
-9.9999999999999989e-01 +9.1462483880772361e+00 +0.0000000000000000e+00 -9.9999999822414476e-01 +1.1589667874791097e-02 -1.0329287707140065e+00 -5.8826916067966958e-02
-1.0999999999999999e+00 +9.1462375496470170e+00 +0.0000000000000000e+00 -1.0999999976363430e+00 +1.1589698276856316e-02 -1.0329251958649410e+00 -5.8828518954371488e-02
-1.2000000000000000e+00 +9.1462256790061627e+00 +0.0000000000000000e+00 -1.1999999969313384e+00 +1.1589734265865469e-02 -1.0329216443338618e+00 -5.8830127255832303e-02
-1.3000000000000000e+00 +9.1462127761582206e+00 +0.0000000000000000e+00 -1.2999999960984769e+00 +1.1589776647709238e-02 -1.0329181186097729e+00 -5.8831741713410622e-02
-1.4000000000000001e+00 +9.1461988411067168e+00 +0.0000000000000000e+00 -1.3999999951271047e+00 +1.1589826228182958e-02 -1.0329146211815321e+00 -5.8833363068170400e-02
-1.5000000000000002e+00 +9.1461838738551471e+00 +0.0000000000000000e+00 -1.4999999940065676e+00 +1.1589883812976797e-02 -1.0329111545378244e+00 -5.8834992061173430e-02
-1.6000000000000003e+00 +9.1461678744069790e+00 +0.0000000000000000e+00 -1.5999999927262119e+00 +1.1589949975069820e-02 -1.0329077191051799e+00 -5.8836629174226732e-02
-1.7000000000000004e+00 +9.1461508427656462e+00 +0.0000000000000000e+00 -1.6999999912753838e+00 +1.1590024356980023e-02 -1.0329043070621509e+00 -5.8838273852142825e-02
-1.8000000000000005e+00 +9.1461327789345610e+00 +0.0000000000000000e+00 -1.7999999896434300e+00 +1.1590106368637826e-02 -1.0329009085253626e+00 -5.8839925280494594e-02
-1.9000000000000006e+00 +9.1461136829171217e+00 +0.0000000000000000e+00 -1.8999999878196967e+00 +1.1590195420005497e-02 -1.0328975136115146e+00 -5.8841582644863881e-02
-2.0000000000000004e+00 +9.1460935547167246e+00 +0.0000000000000000e+00 -1.9999999857935304e+00 +1.1590290921089420e-02 -1.0328941124374040e+00 -5.8843245130840639e-02
-2.1000000000000005e+00 +9.1460723943367714e+00 +0.0000000000000000e+00 -2.0999999835542780e+00 +1.1590392281952272e-02 -1.0328906951199412e+00 -5.8844911924021540e-02
-2.2000000000000006e+00 +9.1460502017806817e+00 +0.0000000000000000e+00 -2.1999999810912865e+00 +1.1590498912725284e-02 -1.0328872517761725e+00 -5.8846582210009234e-02
-2.3000000000000007e+00 +9.1460269770518980e+00 +0.0000000000000000e+00 -2.2999999783939025e+00 +1.1590610223620441e-02 -1.0328837725232971e+00 -5.8848255174411133e-02
-2.4000000000000008e+00 +9.1460027201539003e+00 +0.0000000000000000e+00 -2.3999999754514731e+00 +1.1590725624942712e-02 -1.0328802474786880e+00 -5.8849930002838384e-02
-2.5000000000000009e+00 +9.1459774310902144e+00 +0.0000000000000000e+00 -2.4999999722533452e+00 +1.1590844527102269e-02 -1.0328766667599119e+00 -5.8851605880904788e-02
-2.6000000000000010e+00 +9.1459511098644235e+00 +0.0000000000000000e+00 -2.5999999687888664e+00 +1.1590966340626740e-02 -1.0328730204847465e+00 -5.8853281994225813e-02
-2.7000000000000011e+00 +9.1459237564801743e+00 +0.0000000000000000e+00 -2.6999999650473843e+00 +1.1591090476173394e-02 -1.0328692987712029e+00 -5.8854957528417483e-02
-2.8000000000000012e+00 +9.1458953709411883e+00 +0.0000000000000000e+00 -2.7999999610182460e+00 +1.1591216344541412e-02 -1.0328654917375437e+00 -5.8856631669095327e-02
-2.9000000000000012e+00 +9.1458659532512758e+00 +0.0000000000000000e+00 -2.8999999566907997e+00 +1.1591343356684070e-02 -1.0328615895023028e+00 -5.8858303601873323e-02
-3.0000000000000013e+00 +9.1458355034143395e+00 +0.0000000000000000e+00 -2.9999999520543930e+00 +1.1591470923721019e-02 -1.0328575821843029e+00 -5.8859972512362843e-02
-3.1000000000000014e+00 +9.1458040214343868e+00 +0.0000000000000000e+00 -3.0999999470983735e+00 +1.1591598456950479e-02 -1.0328534599026797e+00 -5.8861637586171640e-02
-3.2000000000000015e+00 +9.1457715073155423e+00 +0.0000000000000000e+00 -3.1999999418120897e+00 +1.1591725367861494e-02 -1.0328492127768967e+00 -5.8863298008902706e-02
-3.3000000000000016e+00 +9.1457379610620553e+00 +0.0000000000000000e+00 -3.2999999361848902e+00 +1.1591851068146145e-02 -1.0328448309267675e+00 -5.8864952966153287e-02
-3.4000000000000017e+00 +9.1457033826783078e+00 +0.0000000000000000e+00 -3.3999999302061230e+00 +1.1591974969711819e-02 -1.0328403044724739e+00 -5.8866601643513816e-02
-3.5000000000000018e+00 +9.1456677721688280e+00 +0.0000000000000000e+00 -3.4999999238651371e+00 +1.1592096484693410e-02 -1.0328356235345879e+00 -5.8868243226566815e-02
-3.6000000000000019e+00 +9.1456311295382982e+00 +0.0000000000000000e+00 -3.5999999171512811e+00 +1.1592215145797840e-02 -1.0328307808246895e+00 -5.8869876938408443e-02
-3.7000000000000020e+00 +9.1455934547915625e+00 +0.0000000000000000e+00 -3.6999999100539043e+00 +1.1592330967195802e-02 -1.0328257794170930e+00 -5.8871502152198163e-02
-3.8000000000000020e+00 +9.1455547479336197e+00 +0.0000000000000000e+00 -3.7999999025623561e+00 +1.1592444083318828e-02 -1.0328206249768246e+00 -5.8873118278558408e-02
-3.9000000000000021e+00 +9.1455150089696264e+00 +0.0000000000000000e+00 -3.8999998946659855e+00 +1.1592554628486049e-02 -1.0328153231689732e+00 -5.8874724728043018e-02
-4.0000000000000018e+00 +9.1454742379048835e+00 +0.0000000000000000e+00 -3.9999998863541428e+00 +1.1592662736892105e-02 -1.0328098796586829e+00 -5.8876320911132783e-02
-4.1000000000000014e+00 +9.1454324347448352e+00 +0.0000000000000000e+00 -4.0999998776161775e+00 +1.1592768542595094e-02 -1.0328043001111498e+00 -5.8877906238230804e-02
-4.2000000000000011e+00 +9.1453895994950614e+00 +0.0000000000000000e+00 -4.1999998684414397e+00 +1.1592872179504474e-02 -1.0327985901916150e+00 -5.8879480119657941e-02
-4.3000000000000007e+00 +9.1453457321612728e+00 +0.0000000000000000e+00 -4.2999998588192803e+00 +1.1592973781368985e-02 -1.0327927555653593e+00 -5.8881041965648230e-02
-4.4000000000000004e+00 +9.1453008327493031e+00 +0.0000000000000000e+00 -4.3999998487390499e+00 +1.1593073481764577e-02 -1.0327868018976971e+00 -5.8882591186344306e-02
-4.5000000000000000e+00 +9.1452549012651048e+00 +0.0000000000000000e+00 -4.4999998381900994e+00 +1.1593171414082306e-02 -1.0327807348539715e+00 -5.8884127191792819e-02
-4.5999999999999996e+00 +9.1452079377147477e+00 +0.0000000000000000e+00 -4.5999998271617795e+00 +1.1593267711516281e-02 -1.0327745600995482e+00 -5.8885649391939882e-02
-4.6999999999999993e+00 +9.1451599421044047e+00 +0.0000000000000000e+00 -4.6999998156434417e+00 +1.1593362507051534e-02 -1.0327682832998089e+00 -5.8887157196626433e-02
-4.7999999999999989e+00 +9.1451109144403553e+00 +0.0000000000000000e+00 -4.7999998036244378e+00 +1.1593455933451987e-02 -1.0327619101201475e+00 -5.8888650015583771e-02
-4.8999999999999986e+00 +9.1450608547289711e+00 +0.0000000000000000e+00 -4.8999997910941193e+00 +1.1593548123248332e-02 -1.0327554462259634e+00 -5.8890127258428883e-02
-4.9999999999999982e+00 +9.1450097629767164e+00 +0.0000000000000000e+00 -4.9999997780418388e+00 +1.1593639208725933e-02 -1.0327488972826546e+00 -5.8891588334659857e-02
-5.0999999999999979e+00 +9.1449576391901406e+00 +0.0000000000000000e+00 -5.0999997644569488e+00 +1.1593729321912761e-02 -1.0327422689556152e+00 -5.8893032653651450e-02
-5.1999999999999975e+00 +9.1449044833758730e+00 +0.0000000000000000e+00 -5.1999997503288009e+00 +1.1593818594567297e-02 -1.0327355669102263e+00 -5.8894459624650328e-02
-5.2999999999999972e+00 +9.1448502955406177e+00 +0.0000000000000000e+00 -5.2999997356467485e+00 +1.1593907158166418e-02 -1.0327287968118526e+00 -5.8895868656770649e-02
-5.3999999999999968e+00 +9.1447950756911425e+00 +0.0000000000000000e+00 -5.3999997204001451e+00 +1.1593995143893313e-02 -1.0327219643258343e+00 -5.8897259158989364e-02
-5.4999999999999964e+00 +9.1447388238342828e+00 +0.0000000000000000e+00 -5.4999997045783431e+00 +1.1594082682625418e-02 -1.0327150751174858e+00 -5.8898630540141765e-02
-5.5999999999999961e+00 +9.1446815399769275e+00 +0.0000000000000000e+00 -5.5999996881706959e+00 +1.1594169900064710e-02 -1.0327081374628984e+00 -5.8899982386487484e-02
-5.6999999999999957e+00 +9.1446232241260148e+00 +0.0000000000000000e+00 -5.6999996711665579e+00 +1.1594256902312397e-02 -1.0327011700805475e+00 -5.8901314994518721e-02
-5.7999999999999954e+00 +9.1445638762885100e+00 +0.0000000000000000e+00 -5.7999996535552834e+00 +1.1594343790718324e-02 -1.0326941942971430e+00 -5.8902628838411963e-02
-5.8999999999999950e+00 +9.1445034964713905e+00 +0.0000000000000000e+00 -5.8999996353262265e+00 +1.1594430666786526e-02 -1.0326872314364166e+00 -5.8903924392485332e-02
-5.9999999999999947e+00 +9.1444420846816179e+00 +0.0000000000000000e+00 -5.9999996164687417e+00 +1.1594517632184317e-02 -1.0326803028189928e+00 -5.8905202131206494e-02
-6.0999999999999943e+00 +9.1443796409261200e+00 +0.0000000000000000e+00 -6.0999995969721832e+00 +1.1594604788751432e-02 -1.0326734297622648e+00 -5.8906462529200627e-02
-6.1999999999999940e+00 +9.1443161652117713e+00 +0.0000000000000000e+00 -6.1999995768259062e+00 +1.1594692238509081e-02 -1.0326666335802630e+00 -5.8907706061258447e-02
-6.2999999999999936e+00 +9.1442516575453681e+00 +0.0000000000000000e+00 -6.2999995560192650e+00 +1.1594780083669098e-02 -1.0326599355835286e+00 -5.8908933202344145e-02
-6.3999999999999932e+00 +9.1441861179336090e+00 +0.0000000000000000e+00 -6.3999995345416156e+00 +1.1594868426642991e-02 -1.0326533570789851e+00 -5.8910144427603423e-02
-6.4999999999999929e+00 +9.1441195463830720e+00 +0.0000000000000000e+00 -6.4999995123823124e+00 +1.1594957370051113e-02 -1.0326469193698109e+00 -5.8911340212371460e-02
-6.5999999999999925e+00 +9.1440519429001963e+00 +0.0000000000000000e+00 -6.5999994895307115e+00 +1.1595047016731700e-02 -1.0326406437553113e+00 -5.8912521032180865e-02
-6.6999999999999922e+00 +9.1439833074912595e+00 +0.0000000000000000e+00 -6.6999994659761679e+00 +1.1595137469750024e-02 -1.0326345515307891e+00 -5.8913687362769647e-02
-6.7999999999999918e+00 +9.1439136401623546e+00 +0.0000000000000000e+00 -6.7999994417080378e+00 +1.1595228832407477e-02 -1.0326286639874176e+00 -5.8914839680089273e-02
-6.8999999999999915e+00 +9.1438429409193702e+00 +0.0000000000000000e+00 -6.8999994167156764e+00 +1.1595321208250681e-02 -1.0326230024121126e+00 -5.8915978460312553e-02
-6.9999999999999911e+00 +9.1437712097679693e+00 +0.0000000000000000e+00 -6.9999993909884388e+00 +1.1595414701080605e-02 -1.0326175880874033e+00 -5.8917104179841681e-02
-7.0999999999999908e+00 +9.1436984467135698e+00 +0.0000000000000000e+00 -7.0999993645156811e+00 +1.1595509414961644e-02 -1.0326124422913039e+00 -5.8918217315316122e-02
-7.1999999999999904e+00 +9.1436246517613196e+00 +0.0000000000000000e+00 -7.1999993372867586e+00 +1.1595605454230780e-02 -1.0326075862971880e+00 -5.8919318343620734e-02
-7.2999999999999901e+00 +9.1435498249160769e+00 +0.0000000000000000e+00 -7.2999993092910271e+00 +1.1595702923506633e-02 -1.0326030413736556e+00 -5.8920407741893610e-02
-7.3999999999999897e+00 +9.1434739661823894e+00 +0.0000000000000000e+00 -7.3999992805178421e+00 +1.1595801927698622e-02 -1.0325988287844081e+00 -5.8921485987534092e-02
-7.4999999999999893e+00 +9.1433970755644722e+00 +0.0000000000000000e+00 -7.4999992509565585e+00 +1.1595902572016035e-02 -1.0325949697881200e+00 -5.8922553558210744e-02
-7.5999999999999890e+00 +9.1433191530661908e+00 +0.0000000000000000e+00 -7.5999992205965317e+00 +1.1596004942662452e-02 -1.0325914772612950e+00 -5.8923610766218146e-02
-7.6999999999999886e+00 +9.1432401986910445e+00 +0.0000000000000000e+00 -7.6999991894271167e+00 +1.1596109048714593e-02 -1.0325883305699164e+00 -5.8924657261383857e-02
-7.7999999999999883e+00 +9.1431602124421882e+00 +0.0000000000000000e+00 -7.7999991574376679e+00 +1.1596214879745631e-02 -1.0325855007071465e+00 -5.8925692527800132e-02
-7.8999999999999879e+00 +9.1430791943224605e+00 +0.0000000000000000e+00 -7.8999991246175405e+00 +1.1596322425086568e-02 -1.0325829586718116e+00 -5.8926716049445174e-02
-7.9999999999999876e+00 +9.1429971443344140e+00 +0.0000000000000000e+00 -7.9999990909560887e+00 +1.1596431673817282e-02 -1.0325806754686273e+00 -5.8927727310178070e-02
-8.0999999999999872e+00 +9.1429140624803420e+00 +0.0000000000000000e+00 -8.0999990564426660e+00 +1.1596542614757534e-02 -1.0325786221084194e+00 -5.8928725793733913e-02
-8.1999999999999869e+00 +9.1428299487623050e+00 +0.0000000000000000e+00 -8.1999990210666276e+00 +1.1596655236457979e-02 -1.0325767696083499e+00 -5.8929710983718721e-02
-8.2999999999999865e+00 +9.1427448031821683e+00 +0.0000000000000000e+00 -8.2999989848173286e+00 +1.1596769527191185e-02 -1.0325750889921370e+00 -5.8930682363604575e-02
-8.3999999999999861e+00 +9.1426586257416211e+00 +0.0000000000000000e+00 -8.3999989476841215e+00 +1.1596885474942651e-02 -1.0325735512902796e+00 -5.8931639416724503e-02
-8.4999999999999858e+00 +9.1425714164422125e+00 +0.0000000000000000e+00 -8.4999989096563606e+00 +1.1597003067401818e-02 -1.0325721275402819e+00 -5.8932581626267654e-02
-8.5999999999999854e+00 +9.1424831752853759e+00 +0.0000000000000000e+00 -8.5999988707234003e+00 +1.1597122291953090e-02 -1.0325707887868749e+00 -5.8933508475274198e-02
-8.6999999999999851e+00 +9.1423939022724632e+00 +0.0000000000000000e+00 -8.6999988308745948e+00 +1.1597243135666820e-02 -1.0325695060822397e+00 -5.8934419446630415e-02
-8.7999999999999847e+00 +9.1423035974047657e+00 +0.0000000000000000e+00 -8.7999987900992966e+00 +1.1597365585290361e-02 -1.0325682504862330e+00 -5.8935314023063734e-02
-8.8999999999999844e+00 +9.1422122606835519e+00 +0.0000000000000000e+00 -8.8999987483868601e+00 +1.1597489627239051e-02 -1.0325669930666097e+00 -5.8936191687137658e-02
-8.9999999999999840e+00 +9.1421198921100881e+00 +0.0000000000000000e+00 -8.9999987057266413e+00 +1.1597615247587229e-02 -1.0325657048992447e+00 -5.8937051921246986e-02
-9.0999999999999837e+00 +9.1420264916856766e+00 +0.0000000000000000e+00 -9.0999986621079909e+00 +1.1597742432059242e-02 -1.0325643570683605e+00 -5.8937894207612668e-02
-9.1999999999999833e+00 +9.1419320594116744e+00 +0.0000000000000000e+00 -9.1999986175202650e+00 +1.1597871166020460e-02 -1.0325629206667468e+00 -5.8938718028276896e-02
-9.2999999999999829e+00 +9.1418365952895311e+00 +0.0000000000000000e+00 -9.2999985719528180e+00 +1.1598001434468283e-02 -1.0325613667959885e+00 -5.8939522865098203e-02
-9.3999999999999826e+00 +9.1417400993208116e+00 +0.0000000000000000e+00 -9.3999985253950040e+00 +1.1598133222023138e-02 -1.0325596665666854e+00 -5.8940308199746348e-02
-9.4999999999999822e+00 +9.1416425715072265e+00 +0.0000000000000000e+00 -9.4999984778361775e+00 +1.1598266512919498e-02 -1.0325577910986814e+00 -5.8941073513697574e-02
-9.5999999999999819e+00 +9.1415440118506641e+00 +0.0000000000000000e+00 -9.5999984292656926e+00 +1.1598401259323130e-02 -1.0325557197648483e+00 -5.8941818489828678e-02
-9.6999999999999815e+00 +9.1414444203532028e+00 +0.0000000000000000e+00 -9.6999983796729055e+00 +1.1598537286540870e-02 -1.0325534649198935e+00 -5.8942543617270637e-02
-9.7999999999999812e+00 +9.1413437970171039e+00 +0.0000000000000000e+00 -9.7999983290471704e+00 +1.1598674388474619e-02 -1.0325510471626764e+00 -5.8943249586629345e-02
-9.8999999999999808e+00 +9.1412421418447938e+00 +0.0000000000000000e+00 -9.8999982773778434e+00 +1.1598812359368618e-02 -1.0325484870909387e+00 -5.8943937088370708e-02
-9.9999999999999805e+00 +9.1411394548388394e+00 +0.0000000000000000e+00 -9.9999982246542807e+00 +1.1598950993819634e-02 -1.0325458053012464e+00 -5.8944606812817379e-02
-1.0099999999999980e+01 +9.1410357360019301e+00 +0.0000000000000000e+00 -1.0099998170865836e+01 +1.1599090086787065e-02 -1.0325430223889307e+00 -5.8945259450145733e-02
-1.0199999999999980e+01 +9.1409309853368548e+00 +0.0000000000000000e+00 -1.0199998116001868e+01 +1.1599229433603135e-02 -1.0325401589480292e+00 -5.8945895690382576e-02
-1.0299999999999979e+01 +9.1408252028464858e+00 +0.0000000000000000e+00 -1.0299998060051733e+01 +1.1599368829983005e-02 -1.0325372355712232e+00 -5.8946516223402017e-02
-1.0399999999999979e+01 +9.1407183885337542e+00 +0.0000000000000000e+00 -1.0399998003004786e+01 +1.1599508072034951e-02 -1.0325342728497822e+00 -5.8947121738922338e-02
-1.0499999999999979e+01 +9.1406105424016300e+00 +0.0000000000000000e+00 -1.0499997944850383e+01 +1.1599646956270526e-02 -1.0325312913734999e+00 -5.8947712926502811e-02
-1.0599999999999978e+01 +9.1405016644531010e+00 +0.0000000000000000e+00 -1.0599997885577883e+01 +1.1599785279614687e-02 -1.0325283117306394e+00 -5.8948290475540503e-02
-1.0699999999999978e+01 +9.1403917546911568e+00 +0.0000000000000000e+00 -1.0699997825176643e+01 +1.1599922839415997e-02 -1.0325253545078705e+00 -5.8948855075267155e-02
-1.0799999999999978e+01 +9.1402808131187605e+00 +0.0000000000000000e+00 -1.0799997763636018e+01 +1.1600059433456728e-02 -1.0325224402902078e+00 -5.8949407414745920e-02
-1.0899999999999977e+01 +9.1401688397388359e+00 +0.0000000000000000e+00 -1.0899997700945365e+01 +1.1600194859963078e-02 -1.0325195896609567e+00 -5.8949948182868341e-02
-1.0999999999999977e+01 +9.1400558345542411e+00 +0.0000000000000000e+00 -1.0999997637094042e+01 +1.1600328917615310e-02 -1.0325168232016468e+00 -5.8950478068351041e-02
-1.1099999999999977e+01 +9.1399417975677526e+00 +0.0000000000000000e+00 -1.1099997572071405e+01 +1.1600461405557904e-02 -1.0325141614919766e+00 -5.8950997759732580e-02
-1.1199999999999976e+01 +9.1398267287820385e+00 +0.0000000000000000e+00 -1.1199997505866813e+01 +1.1600592123409746e-02 -1.0325116251097510e+00 -5.8951507945370338e-02
-1.1299999999999976e+01 +9.1397106281996461e+00 +0.0000000000000000e+00 -1.1299997438469621e+01 +1.1600720871274291e-02 -1.0325092346308218e+00 -5.8952009313437255e-02
-1.1399999999999975e+01 +9.1395934958229734e+00 +0.0000000000000000e+00 -1.1399997369869185e+01 +1.1600847449749718e-02 -1.0325070106290264e+00 -5.8952502551918758e-02
-1.1499999999999975e+01 +9.1394753316542534e+00 +0.0000000000000000e+00 -1.1499997300054863e+01 +1.1600971659939136e-02 -1.0325049736761309e+00 -5.8952988348609445e-02
-1.1599999999999975e+01 +9.1393561356955324e+00 +0.0000000000000000e+00 -1.1599997229016012e+01 +1.1601093385162960e-02 -1.0325031390997508e+00 -5.8953467371159515e-02
-1.1699999999999974e+01 +9.1392359079486578e+00 +0.0000000000000000e+00 -1.1699997156741986e+01 +1.1601212835838174e-02 -1.0325015012554384e+00 -5.8953940207378965e-02
