# multipoles
# s[mm] polynom_b[n=0][T/m^n] polynom_b[n=1][T/m^n] polynom_b[n=2][T/m^n] polynom_b[n=3][T/m^n] polynom_b[n=4][T/m^n] polynom_b[n=5][T/m^n] polynom_b[n=6][T/m^n] 
+0.0000000000000000e+00 -1.0339027868519579e+00 +2.2846021745136924e+00 +1.7933539219716611e+01 +2.3687163467891600e+02 +2.6675599129477683e+04 -3.8259503431062697e+05 -8.3851305492617354e+07 
-1.0000000000000001e-01 -1.0339041437634107e+00 +2.2846282119854870e+00 +1.7876822754972331e+01 +2.2758137231521292e+02 +2.7122142326625944e+04 -3.0092753199891635e+05 -8.3964024865674376e+07 
-2.0000000000000001e-01 -1.0339055367179613e+00 +2.2846707502933818e+00 +1.7828124828478824e+01 +2.1818038539255380e+02 +2.7434838189742859e+04 -2.1885753758453365e+05 -8.3504717175339907e+07 
-3.0000000000000004e-01 -1.0339069623545905e+00 +2.2847271348605962e+00 +1.7786989664947104e+01 +2.0868587850653685e+02 +2.7621271480355645e+04 -1.3637584901867915e+05 -8.2506783699809566e+07 
-4.0000000000000002e-01 -1.0339084173122923e+00 +2.2847947110813696e+00 +1.7752961476851961e+01 +1.9911505676062706e+02 +2.7689027334985465e+04 -5.3473264805780120e+04 -8.1003628173856109e+07 
-5.0000000000000000e-01 -1.0339098982299246e+00 +2.2848708243301048e+00 +1.7725584450536140e+01 +1.8948512558225477e+02 +2.7645691488070726e+04 +2.9859416650363484e+04 -7.9028657717247382e+07 
-5.9999999999999998e-01 -1.0339114017463449e+00 +2.2849528199518514e+00 +1.7704402766690830e+01 +1.7981329104313718e+02 +2.7498849854746990e+04 +1.1363139491456687e+05 -7.6615280759191066e+07 
-6.9999999999999996e-01 -1.0339129245002880e+00 +2.2850380432703945e+00 +1.7688960589789502e+01 +1.7011675971550019e+02 +2.7256088691981004e+04 +1.9785186791642866e+05 -7.3796907677163959e+07 
-7.9999999999999993e-01 -1.0339144631304484e+00 +2.2851238395815532e+00 +1.7678802082774233e+01 +1.6041273891767455e+02 +2.6924994282228083e+04 +2.8253003021450591e+05 -7.0606949174517602e+07 
-8.9999999999999991e-01 -1.0339160142754080e+00 +2.2852075541606367e+00 +1.7673471401401539e+01 +1.5071843655508147e+02 +2.6513153014269559e+04 +3.6767507360188127e+05 -6.7078816574361578e+07 
-9.9999999999999989e-01 -1.0339175745737121e+00 +2.2852865322560953e+00 +1.7672512708965915e+01 +1.4105106139410529e+02 +2.6028151059335618e+04 +4.5329618508483912e+05 -6.3245920144001022e+07 
-1.0999999999999999e+00 -1.0339191406637829e+00 +2.2853581190988357e+00 +1.7675470169779334e+01 +1.3142782282301823e+02 +2.5477574459281346e+04 +5.3940254802717792e+05 -5.9141669395682894e+07 
-1.2000000000000000e+00 -1.0339207091839779e+00 +2.2854196598884626e+00 +1.7681887959642420e+01 +1.2186593134849727e+02 +2.4869008902900117e+04 +6.2600333881389035e+05 -5.4799471943490379e+07 
-1.3000000000000000e+00 -1.0339222767725245e+00 +2.2854684998077937e+00 +1.7691310262723086e+01 +1.1238259822329803e+02 +2.4210039739815329e+04 +7.1310772871376167e+05 -5.0252733422602437e+07 
-1.4000000000000001e+00 -1.0339238400675825e+00 +2.2855019840101658e+00 +1.7703281283835736e+01 +1.0299503587502628e+02 +2.3508251715104976e+04 +8.0072488105829596e+05 -4.5534856127406582e+07 
-1.5000000000000002e+00 -1.0339253957072092e+00 +2.2855174576370403e+00 +1.7717345247618567e+01 +9.3720457493573150e+01 +2.2771228951350055e+04 +8.8886395315704844e+05 -4.0679238818061218e+07 
-1.6000000000000003e+00 -1.0339269405915259e+00 +2.2855129130469440e+00 +1.7733022908174359e+01 +8.4576713612628254e+01 +2.2007040662052765e+04 +9.7747910314067942e+05 -3.5721980806727059e+07 
-1.7000000000000004e+00 -1.0339284724693938e+00 +2.2854889504505964e+00 +1.7749700627188581e+01 +7.5583854156859573e+01 +2.1226262080880842e+04 +1.0663072104212292e+06 -3.0711823421766553e+07 
-1.8000000000000005e+00 -1.0339299892505778e+00 +2.2854468271171093e+00 +1.7766720847392367e+01 +6.6762403697070184e+01 +2.0440239985030930e+04 +1.1550313717096709e+06 -2.5701146641437158e+07 
-1.9000000000000006e+00 -1.0339314888447806e+00 +2.2853878003738499e+00 +1.7783425995389990e+01 +5.8132884976550876e+01 +1.9660321496789653e+04 +1.2433346966048707e+06 -2.0742331853094444e+07 
-2.0000000000000004e+00 -1.0339329691616059e+00 +2.2853131276167451e+00 +1.7799158474556403e+01 +4.9715818552379773e+01 +1.8897854235479874e+04 +1.3309003100366620e+06 -1.5887762562395710e+07 
-2.1000000000000005e+00 -1.0339344281105560e+00 +2.2852240663189742e+00 +1.7813260661026945e+01 +4.1531722521368600e+01 +1.8164186411976192e+04 +1.4174113541248564e+06 -1.1189824827429025e+07 
-2.2000000000000006e+00 -1.0339358636010820e+00 +2.2851218740455455e+00 +1.7825074907443444e+01 +3.3601112039882423e+01 +1.7470666777772502e+04 +1.5025509913208052e+06 -6.7009070112989061e+06 
-2.3000000000000007e+00 -1.0339372735425023e+00 +2.2850078084572139e+00 +1.7833943530601992e+01 +2.5944499186563935e+01 +1.6828644869421216e+04 +1.5860024054794454e+06 -2.4734009104204993e+06 
-2.4000000000000008e+00 -1.0339386558440911e+00 +2.2848831273284889e+00 +1.7839208817686387e+01 +1.8582392408175583e+01 +1.6249470919655383e+04 +1.6674488053598001e+06 +1.4402986542218770e+06 
-2.5000000000000009e+00 -1.0339400084150061e+00 +2.2847490885517119e+00 +1.7840213015782922e+01 +1.1535296357832516e+01 +1.5744496065437672e+04 +1.7465734258879118e+06 +4.9877928811651142e+06 
-2.6000000000000010e+00 -1.0339413291643045e+00 +2.2846069501490964e+00 +1.7836298329889463e+01 +4.8237115032846241e+00 +1.5325072412116644e+04 +1.8230595307566039e+06 +8.1166786760363262e+06 
-2.7000000000000011e+00 -1.0339426160009886e+00 +2.2844579702865784e+00 +1.7826806926202700e+01 -1.5318662918995516e+00 +1.5002552979225826e+04 +1.8965904150944967e+06 +1.0774548950699594e+07 
-2.8000000000000012e+00 -1.0339438668339893e+00 +2.2843034072741903e+00 +1.7811080926717857e+01 -7.5109458390735684e+00 +1.4788291829851943e+04 +1.9668494062493127e+06 +1.2908991994068388e+07 
-2.9000000000000012e+00 -1.0339450795720606e+00 +2.2841445195918673e+00 +1.7788462393221163e+01 -1.3093041390818890e+01 +1.4693644388667697e+04 +2.0335198684953069e+06 +1.4467589985505285e+07 
-3.0000000000000013e+00 -1.0339462521239697e+00 +2.2839825658830586e+00 +1.7758293348259123e+01 -1.8257672495656411e+01 +1.4729967058841912e+04 +2.0962852024876957e+06 +1.5397920838795066e+07 
-3.1000000000000014e+00 -1.0339473823983454e+00 +2.2838188049764718e+00 +1.7719915751987767e+01 -2.2984364673843380e+01 +1.4908617689182631e+04 +2.1548288495202172e+06 +1.5647555966664920e+07 
-3.2000000000000015e+00 -1.0339484683037159e+00 +2.2836544958950977e+00 +1.7672671505798885e+01 -2.7252649709850814e+01 +1.5240955512289782e+04 +2.2088342935178112e+06 +1.5164060617191045e+07 
-3.3000000000000016e+00 -1.0339495077485596e+00 +2.2834908978549389e+00 +1.7615902454344464e+01 -3.1042065650322506e+01 +1.5738341129872380e+04 +2.2579850613028500e+06 +1.3894993943108043e+07 
-3.4000000000000017e+00 -1.0339504986412162e+00 +2.2833292702964512e+00 +1.7548950371387388e+01 -3.4332157754113844e+01 +1.6412136800712527e+04 +2.3019647284351625e+06 +1.1787907641997403e+07 
-3.5000000000000018e+00 -1.0339514388900160e+00 +2.2831708728886944e+00 +1.7471156974475164e+01 -3.7102478890482026e+01 +1.7273706147418379e+04 +2.3404569237941098e+06 +8.7903475904448275e+06 
-3.6000000000000019e+00 -1.0339523285886241e+00 +2.2830167710883917e+00 +1.7382163291319081e+01 -3.9340493561584537e+01 +1.8329369731908315e+04 +2.3732456974333390e+06 +4.8735957818002300e+06 
-3.7000000000000020e+00 -1.0339531767663817e+00 +2.2828670786096592e+00 +1.7282844754667423e+01 -4.1062052660352890e+01 +1.9565037190395313e+04 +2.4004924760322459e+06 +1.0244918219813841e+05 
-3.8000000000000020e+00 -1.0339539947425316e+00 +2.2827216288667711e+00 +1.7174396150909491e+01 -4.2289444128398593e+01 +2.0961427920073544e+04 +2.4224484537375569e+06 -5.4351185189952916e+06 
-3.9000000000000021e+00 -1.0339547938361751e+00 +2.2825802550825092e+00 +1.7058012243720988e+01 -4.3044950859268411e+01 +2.2499261880865048e+04 +2.4393647936628670e+06 -1.1651137081244133e+07 
-4.0000000000000018e+00 -1.0339555853663471e+00 +2.2824427902812112e+00 +1.6934887784196100e+01 -4.3350850271565776e+01 +2.4159259378753242e+04 +2.4514926243386823e+06 -1.8457638650673218e+07 
-4.1000000000000014e+00 -1.0339563806519212e+00 +2.2823090672653517e+00 +1.6806217498889836e+01 -4.3229413636720366e+01 +2.5922141299085764e+04 +2.4590830354804783e+06 -2.5766658945781887e+07 
-4.2000000000000011e+00 -1.0339571910116756e+00 +2.2821789185982508e+00 +1.6673196100029028e+01 -4.2702905578481591e+01 +2.7768628906504735e+04 +2.4623870747041800e+06 -3.3490236351670120e+07 
-4.3000000000000007e+00 -1.0339580277642808e+00 +2.2820521765909878e+00 +1.6537018284577382e+01 -4.1793583683808166e+01 +2.9679443863432210e+04 +2.4616557448909772e+06 -4.1540412069696009e+07 
-4.4000000000000004e+00 -1.0339589022282787e+00 +2.2819286732757829e+00 +1.6398878731919076e+01 -4.0523697736164792e+01 +3.1635308278518034e+04 +2.4571399993702201e+06 -4.9829230420130268e+07 
-4.5000000000000000e+00 -1.0339598257220979e+00 +2.2818082403970998e+00 +1.6259972107555335e+01 -3.8915489457599087e+01 +3.3616944631315368e+04 +2.4490907400621683e+06 -5.8268738533136711e+07 
-4.5999999999999996e+00 -1.0339608095640289e+00 +2.2816907093857166e+00 +1.6121493060042550e+01 -3.6991191748429273e+01 +3.5605075835690055e+04 +2.4377588126765029e+06 -6.6770986722014762e+07 
-4.6999999999999993e+00 -1.0339618650722548e+00 +2.2815759113507386e+00 +1.5984636226681994e+01 -3.4773028469630930e+01 +3.7580425123598929e+04 +2.4233950051206448e+06 -7.5248027971407458e+07 
-4.7999999999999989e+00 -1.0339630035648433e+00 +2.2814636770544197e+00 +1.5850596232748565e+01 -3.2283213695167504e+01 +3.9523716067894100e+04 +2.4062500427493104e+06 -8.3611918129271492e+07 
-4.8999999999999986e+00 -1.0339642363597101e+00 +2.2813538368939108e+00 +1.5720567687826199e+01 -2.9543951185098123e+01 +4.1415672648137639e+04 +2.3865745849350761e+06 -9.1774716266224504e+07 
-4.9999999999999982e+00 -1.0339655747746570e+00 +2.2812462208886979e+00 +1.5595745192320267e+01 -2.6577434035841854e+01 +4.3237019124207574e+04 +2.3646192227300354e+06 -9.9648484133573189e+07 
-5.0999999999999979e+00 -1.0339670301273838e+00 +2.2811406586587322e+00 +1.5477323338320163e+01 -2.3405844025635400e+01 +4.4968480027655969e+04 +2.3406344746302450e+06 -1.0714528619853109e+08 
-5.1999999999999975e+00 -1.0339686137353854e+00 +2.2810369794082375e+00 +1.5366496698946623e+01 -2.0051351149847132e+01 +4.6590780358079959e+04 +2.3148707835305859e+06 -1.1417719062759741e+08 
-5.2999999999999972e+00 -1.0339703369160782e+00 +2.2809350119081282e+00 +1.5264459844597305e+01 -1.6536113117450661e+01 +4.8084645272828042e+04 +2.2875785134587246e+06 -1.2065626786145706e+08 
-5.3999999999999968e+00 -1.0339722109867679e+00 +2.2808345844761240e+00 +1.5172407340161806e+01 -1.2882274765418517e+01 +4.9430800144037756e+04 +2.2590079457819150e+06 -1.2649459096403714e+08 
-5.4999999999999964e+00 -1.0339742472645455e+00 +2.2807355249392582e+00 +1.5091533729289994e+01 -9.1119667161437459e+00 +5.0609970896564511e+04 +2.2294092675225129e+06 -1.3160423766458346e+08 
-5.5999999999999961e+00 -1.0339764540080292e+00 +2.2806376882462600e+00 +1.5022725886118254e+01 -5.2454886354534143e+00 +5.1607802507942375e+04 +2.1990044931740197e+06 -1.3591939218853939e+08 
-5.6999999999999957e+00 -1.0339788272763255e+00 +2.2805412241866905e+00 +1.4965641322557067e+01 -1.2988136287272503e+00 +5.2429421006617187e+04 +2.1679252086005099e+06 -1.3946046301875937e+08 
-5.7999999999999954e+00 -1.0339813600775221e+00 +2.2804464007663499e+00 +1.4919628417307948e+01 +2.7125523344008915e+00 +5.3084812768881857e+04 +2.1362846665753317e+06 -1.4226908251485494e+08 
-5.8999999999999950e+00 -1.0339840454198514e+00 +2.2803534861475994e+00 +1.4884035572720986e+01 +6.7730988794658664e+00 +5.3583963635024018e+04 +2.1041961447799169e+06 -1.4438688035592473e+08 
-5.9999999999999947e+00 -1.0339868763117903e+00 +2.2802627486488056e+00 +1.4858211231432488e+01 +1.0867311007602078e+01 +5.3936858595450227e+04 +2.0717729472023419e+06 -1.4585548203211665e+08 
-6.0999999999999943e+00 -1.0339898457620185e+00 +2.2801744567636257e+00 +1.4841503870638521e+01 +1.4979668518628031e+01 +5.4153481902690190e+04 +2.0391284075765214e+06 -1.4671650938387731e+08 
-6.1999999999999940e+00 -1.0339929467794877e+00 +2.2800888791629395e+00 +1.4833262012179787e+01 +1.9094645988115548e+01 +5.4243816863360218e+04 +2.0063758894584787e+06 -1.4701157956413096e+08 
-6.2999999999999936e+00 -1.0339961723733975e+00 +2.2800062847147498e+00 +1.4832834219387077e+01 +2.3196712169043863e+01 +5.4217845901843350e+04 +1.9736287897979890e+06 -1.4678230535105479e+08 
-6.3999999999999932e+00 -1.0339995155532209e+00 +2.2799269424839572e+00 +1.4839569102000480e+01 +2.7270330040842079e+01 +5.4085550447193542e+04 +1.9410005385577676e+06 -1.4607029455103585e+08 
-6.4999999999999929e+00 -1.0340029693287223e+00 +2.2798511217543460e+00 +1.4852815319008259e+01 +3.1299956147693916e+01 +5.3856910876220660e+04 +1.9086046026758188e+06 -1.4491714972076410e+08 
-6.5999999999999925e+00 -1.0340065267099126e+00 +2.2797790920332330e+00 +1.4871921572127317e+01 +3.5270040487880649e+01 +5.3541906640976318e+04 +1.8765544866611594e+06 -1.4336446877932769e+08 
-6.6999999999999922e+00 -1.0340101807071915e+00 +2.2797111230631222e+00 +1.4896236627255462e+01 +3.9165026178074910e+01 +5.3150515830696553e+04 +1.8449637345744879e+06 -1.4145384283998421e+08 
-6.7999999999999918e+00 -1.0340139243312276e+00 +2.2796474848342636e+00 +1.4925109297385347e+01 +4.2969349106274606e+01 +5.2692715511786111e+04 +1.8139459320347600e+06 -1.3922685786618787e+08 
-6.8999999999999915e+00 -1.0340177505930466e+00 +2.2795884475940449e+00 +1.4957888456206573e+01 +4.6667437644974804e+01 +5.2178481445955054e+04 +1.7836147079556447e+06 -1.3672509326436013e+08 
-6.9999999999999911e+00 -1.0340216525040291e+00 +2.2795342818581976e+00 +1.4993923037901329e+01 +5.0243712355988499e+01 +5.1617788094886564e+04 +1.7540837362105700e+06 -1.3399012190735511e+08 
-7.0999999999999908e+00 -1.0340256230759002e+00 +2.2794852584220635e+00 +1.5032562036225340e+01 +5.3682585667491601e+01 +5.1020608629101291e+04 +1.7254667375340152e+06 -1.3106351015031061e+08 
-7.1999999999999904e+00 -1.0340296553207675e+00 +2.2794416483714257e+00 +1.5073154510465830e+01 +5.6968461554488499e+01 +5.0396914806110188e+04 +1.6978774814260111e+06 -1.2798681722454841e+08 
-7.2999999999999901e+00 -1.0340337422510881e+00 +2.2794037230951143e+00 +1.5115049581581973e+01 +6.0085735199879977e+01 +4.9756677038181886e+04 +1.6714297880780967e+06 -1.2480159554225489e+08 
-7.3999999999999897e+00 -1.0340378768798084e+00 +2.2793717542892349e+00 +1.5157596451875913e+01 +6.3018792859052255e+01 +4.9109864003229479e+04 +1.6462375292319742e+06 -1.2154938880288172e+08 
-7.4999999999999893e+00 -1.0340420522202391e+00 +2.2793460139503781e+00 +1.5200144386572388e+01 +6.5752013299698632e+01 +4.8466443144934339e+04 +1.6224146138692372e+06 -1.1827173512627365e+08 
-7.5999999999999890e+00 -1.0340462616794981e+00 +2.2793267909730925e+00 +1.5242136218104307e+01 +6.8272668793403781e+01 +4.7835177692327685e+04 +1.6000433184803894e+06 -1.1500676091889693e+08 
-7.6999999999999886e+00 -1.0340505001379257e+00 +2.2793143883936282e+00 +1.5283373571836988e+01 +7.0576469079444621e+01 +4.7220079714607091e+04 +1.5791111383660557e+06 -1.1177786861472230e+08 
-7.7999999999999883e+00 -1.0340547628194365e+00 +2.2793090979589872e+00 +1.5323744336259546e+01 +7.2660592011684784e+01 +4.6624003516996221e+04 +1.5595883181108651e+06 -1.0860465954656754e+08 
-7.8999999999999879e+00 -1.0340590449478577e+00 +2.2793112114492766e+00 +1.5363136364129863e+01 +7.4522213202990045e+01 +4.6049804527366308e+04 +1.5414451259553912e+06 -1.0550674164045827e+08 
-7.9999999999999876e+00 -1.0340633417468776e+00 +2.2793210206597232e+00 +1.5401437465327779e+01 +7.6158506823449741e+01 +4.5500339400544181e+04 +1.5246518503201499e+06 -1.0250372993573131e+08 
-8.0999999999999872e+00 -1.0340676484400748e+00 +2.2793388174087719e+00 +1.5438535409125333e+01 +7.7566645321775852e+01 +4.4978465988036820e+04 +1.5091788018713787e+06 -9.9615246476281822e+07 
-8.1999999999999869e+00 -1.0340719602508341e+00 +2.2793648935288631e+00 +1.5474317913376378e+01 +7.8743799672344991e+01 +4.4487043555954035e+04 +1.4949963124484788e+06 -9.6860921385030791e+07 
-8.2999999999999865e+00 -1.0340762724024590e+00 +2.2793995408745085e+00 +1.5508672657542986e+01 +7.9687139130019901e+01 +4.4028932549170910e+04 +1.4820747368296180e+06 -9.4260391772049874e+07 
-8.3999999999999861e+00 -1.0340805801180746e+00 +2.2794430513189852e+00 +1.5541487270103575e+01 +8.0393831266888569e+01 +4.3606994841160245e+04 +1.4703844530070557e+06 -9.1833302956241488e+07 
-8.4999999999999858e+00 -1.0340848786206669e+00 +2.2794957167570229e+00 +1.5572649332520447e+01 +8.0861041907326566e+01 +4.3224093669042399e+04 +1.4598958628283646e+06 -8.9599308182517335e+07 
-8.5999999999999854e+00 -1.0340891631330704e+00 +2.2795578290976755e+00 +1.5602046377368730e+01 +8.1085935290998734e+01 +4.2883093683780724e+04 +1.4505793914969673e+06 -8.7578068905606359e+07 
-8.6999999999999851e+00 -1.0340934288779309e+00 +2.2796296802723317e+00 +1.5629565881675546e+01 +8.1065673808181927e+01 +4.2586861091814513e+04 +1.4424054895033534e+06 -8.5789255503494710e+07 
-8.7999999999999847e+00 -1.0340976710777592e+00 +2.2797115622359350e+00 +1.5655095274792412e+01 +8.0797417954015842e+01 +4.2338263506210096e+04 +1.4353446332430672e+06 -8.4252546572707310e+07 
-8.8999999999999844e+00 -1.0341018849548811e+00 +2.2798037669540956e+00 +1.5678521929260812e+01 +8.0278326669784576e+01 +4.2140170146135431e+04 +1.4293673234274087e+06 -8.2987629950170174e+07 
-8.9999999999999840e+00 -1.0341060657314509e+00 +2.2799065864198522e+00 +1.5699733163930558e+01 +7.9505556829905430e+01 +4.1995451775532129e+04 +1.4244440884650387e+06 -8.2014202415428638e+07 
-9.0999999999999837e+00 -1.0341102086294214e+00 +2.2800203126433747e+00 +1.5718616237472629e+01 +7.8476263520077993e+01 +4.1906980850573367e+04 +1.4205454832083054e+06 -8.1351970462906107e+07 
-9.1999999999999833e+00 -1.0341143088705826e+00 +2.2801452376498879e+00 +1.5735058353513852e+01 +7.7187600070440027e+01 +4.1877631427325323e+04 +1.4176420891532535e+06 -8.1020649871971428e+07 
-9.2999999999999829e+00 -1.0341183616765095e+00 +2.2802816534962052e+00 +1.5748946653627028e+01 +7.5636717537453904e+01 +4.1910279303963660e+04 +1.4157045178732509e+06 -8.1039966415464714e+07 
-9.3999999999999826e+00 -1.0341223622685767e+00 +2.2804298522470088e+00 +1.5760168217649463e+01 +7.3820765395026214e+01 +4.2007802033952314e+04 +1.4147034073030003e+06 -8.1429655972054228e+07 
-9.4999999999999822e+00 -1.0341263058679389e+00 +2.2805901260644603e+00 +1.5768610064267321e+01 +7.1736886423596360e+01 +4.2173078661946493e+04 +1.4146094723180430e+06 -8.2209461144565046e+07 
-9.5999999999999819e+00 -1.0341301885682022e+00 +2.2807625469916588e+00 +1.5774217846039440e+01 +6.9385462229040115e+01 +4.2407657975922382e+04 +1.4153993944810734e+06 -8.3390851881808564e+07 
-9.6999999999999815e+00 -1.0341340101106515e+00 +2.2809461449738082e+00 +1.5777222654741736e+01 +6.6788391715310254e+01 +4.2706794318827313e+04 +1.4170032052519729e+06 -8.4949509259255290e+07 
-9.7999999999999812e+00 -1.0341377711970352e+00 +2.2811396429329047e+00 +1.5777942158575442e+01 +6.3975145347894802e+01 +4.3063838974518512e+04 +1.4193231038609310e+06 -8.6850896283002213e+07 
-9.8999999999999808e+00 -1.0341414725290630e+00 +2.2813417635960556e+00 +1.5776694075914085e+01 +6.0975201088638137e+01 +4.3472141343641430e+04 +1.4222612409730903e+06 -8.9060464559162349e+07 
-9.9999999999999805e+00 -1.0341451148083043e+00 +2.2815512296030036e+00 +1.5773796149353071e+01 +5.7818040548708375e+01 +4.3925049634293828e+04 +1.4257197380949820e+06 -9.1543657775371969e+07 
-1.0099999999999980e+01 -1.0341486987360815e+00 +2.2817667635005408e+00 +1.5769566133479426e+01 +5.4533149162114420e+01 +4.4415911076129880e+04 +1.4296006863487349e+06 -9.4265912665535569e+07 
