# field on trajectory
# s[mm] rx[mm] ry[mm] rz[mm] bx[T] by[T] bz[T]
0.0000000000000000e+00 +9.0449999999999999e+00 +0.0000000000000000e+00 +0.0000000000000000e+00 +5.2080269870520994e-02 -9.6735894821886881e-01 -1.1549597708276434e-02
1.0000000000000001e-01 +9.0449994839954204e+00 +0.0000000000000000e+00 +9.9999999998224925e-02 +5.2080114168636144e-02 -9.6735849407253627e-01 -1.1549694107080621e-02
2.0000000000000001e-01 +9.0449979359820087e+00 +0.0000000000000000e+00 +1.9999999998579943e-01 +5.2079960935933818e-02 -9.6735802839123619e-01 -1.1549794561054793e-02
3.0000000000000004e-01 +9.0449953559602623e+00 +0.0000000000000000e+00 +2.9999999995207310e-01 +5.2079810241210077e-02 -9.6735755296719306e-01 -1.1549898556685744e-02
4.0000000000000002e-01 +9.0449917439306873e+00 +0.0000000000000000e+00 +3.9999999988639556e-01 +5.2079662153292482e-02 -9.6735706959260559e-01 -1.1550005580483132e-02
5.0000000000000000e-01 +9.0449870998938007e+00 +0.0000000000000000e+00 +4.9999999977811638e-01 +5.2079516741035753e-02 -9.6735658005965208e-01 -1.1550115118975999e-02
5.9999999999999998e-01 +9.0449814238501247e+00 +0.0000000000000000e+00 +5.9999999961658523e-01 +5.2079374073317343e-02 -9.6735608616049706e-01 -1.1550226658709249e-02
6.9999999999999996e-01 +9.0449747158001870e+00 +0.0000000000000000e+00 +6.9999999939115176e-01 +5.2079234219032933e-02 -9.6735558968729618e-01 -1.1550339686240169e-02
7.9999999999999993e-01 +9.0449669757445168e+00 +0.0000000000000000e+00 +7.9999999909116570e-01 +5.2079097247092122e-02 -9.6735509243220152e-01 -1.1550453688134893e-02
8.9999999999999991e-01 +9.0449582036836453e+00 +0.0000000000000000e+00 +8.9999999870597669e-01 +5.2078963226413894e-02 -9.6735459618736808e-01 -1.1550568150964939e-02
9.9999999999999989e-01 +9.0449483996181037e+00 +0.0000000000000000e+00 +9.9999999822493446e-01 +5.2078832225922224e-02 -9.6735410274495914e-01 -1.1550682561303684e-02
1.0999999999999999e+00 +9.0449375635484177e+00 +0.0000000000000000e+00 +1.0999999976373886e+00 +5.2078704314541688e-02 -9.6735361389715124e-01 -1.1550796405722858e-02
1.2000000000000000e+00 +9.0449256954751114e+00 +0.0000000000000000e+00 +1.1999999969326891e+00 +5.2078579561192995e-02 -9.6735313143614066e-01 -1.1550909170789063e-02
1.3000000000000000e+00 +9.0449127953986999e+00 +0.0000000000000000e+00 +1.2999999961001856e+00 +5.2078458034788527e-02 -9.6735265715414842e-01 -1.1551020343060232e-02
1.4000000000000001e+00 +9.0448988633196894e+00 +0.0000000000000000e+00 +1.3999999951292277e+00 +5.2078339804228047e-02 -9.6735219284342722e-01 -1.1551129409082173e-02
1.5000000000000002e+00 +9.0448838992385792e+00 +0.0000000000000000e+00 +1.4999999940091653e+00 +5.2078224938394084e-02 -9.6735174029626425e-01 -1.1551235855385042e-02
1.6000000000000003e+00 +9.0448679031558505e+00 +0.0000000000000000e+00 +1.5999999927293482e+00 +5.2078113506147661e-02 -9.6735130130499003e-01 -1.1551339168479847e-02
1.7000000000000004e+00 +9.0448508750719760e+00 +0.0000000000000000e+00 +1.6999999912791264e+00 +5.2078005576323798e-02 -9.6735087766198213e-01 -1.1551438834854938e-02
1.8000000000000005e+00 +9.0448328149874069e+00 +0.0000000000000000e+00 +1.7999999896478494e+00 +5.2077901217727034e-02 -9.6735047115967143e-01 -1.1551534340972513e-02
1.9000000000000006e+00 +9.0448137229025800e+00 +0.0000000000000000e+00 +1.8999999878248670e+00 +5.2077800499127171e-02 -9.6735008359054730e-01 -1.1551625173265133e-02
2.0000000000000004e+00 +9.0447935988179111e+00 +0.0000000000000000e+00 +1.9999999857995294e+00 +5.2077703489254605e-02 -9.6734971674716375e-01 -1.1551710818132183e-02
2.1000000000000005e+00 +9.0447724427337928e+00 +0.0000000000000000e+00 +2.0999999835611862e+00 +5.2077610259850984e-02 -9.6734937186254821e-01 -1.1551790904010517e-02
2.2000000000000006e+00 +9.0447502546505945e+00 +0.0000000000000000e+00 +2.1999999810991873e+00 +5.2077520894842785e-02 -9.6734904793137710e-01 -1.1551865627602983e-02
2.3000000000000007e+00 +9.0447270345686661e+00 +0.0000000000000000e+00 +2.2999999784028824e+00 +5.2077435481198329e-02 -9.6734874338869570e-01 -1.1551935327670557e-02
2.4000000000000008e+00 +9.0447027824883328e+00 +0.0000000000000000e+00 +2.3999999754616215e+00 +5.2077354105876321e-02 -9.6734845666949731e-01 -1.1552000342960120e-02
2.5000000000000009e+00 +9.0446774984099054e+00 +0.0000000000000000e+00 +2.4999999722647548e+00 +5.2077276855826277e-02 -9.6734818620871543e-01 -1.1552061012204289e-02
2.6000000000000010e+00 +9.0446511823336753e+00 +0.0000000000000000e+00 +2.5999999688016318e+00 +5.2077203817988693e-02 -9.6734793044121548e-01 -1.1552117674121188e-02
2.7000000000000011e+00 +9.0446238342599159e+00 +0.0000000000000000e+00 +2.6999999650616022e+00 +5.2077135079295504e-02 -9.6734768780178626e-01 -1.1552170667414275e-02
2.8000000000000012e+00 +9.0445954541888920e+00 +0.0000000000000000e+00 +2.7999999610340160e+00 +5.2077070726670290e-02 -9.6734745672513123e-01 -1.1552220330772127e-02
2.9000000000000012e+00 +9.0445660421208522e+00 +0.0000000000000000e+00 +2.8999999567082235e+00 +5.2077010847028628e-02 -9.6734723564586156e-01 -1.1552267002868270e-02
3.0000000000000013e+00 +9.0445355980560347e+00 +0.0000000000000000e+00 +2.9999999520735745e+00 +5.2076955527278430e-02 -9.6734702299848740e-01 -1.1552311022360951e-02
3.1000000000000014e+00 +9.0445041219946702e+00 +0.0000000000000000e+00 +3.0999999471194184e+00 +5.2076904854320184e-02 -9.6734681721740945e-01 -1.1552352727892977e-02
3.2000000000000015e+00 +9.0444716139369827e+00 +0.0000000000000000e+00 +3.1999999418351055e+00 +5.2076858915047368e-02 -9.6734661673690980e-01 -1.1552392458091480e-02
3.3000000000000016e+00 +9.0444380738831889e+00 +0.0000000000000000e+00 +3.2999999362099857e+00 +5.2076817796346674e-02 -9.6734641999114568e-01 -1.1552430551567744e-02
3.4000000000000017e+00 +9.0444035018335018e+00 +0.0000000000000000e+00 +3.3999999302334087e+00 +5.2076781585098375e-02 -9.6734622541413962e-01 -1.1552467346917004e-02
3.5000000000000018e+00 +9.0443678977881330e+00 +0.0000000000000000e+00 +3.4999999238947246e+00 +5.2076750368176571e-02 -9.6734603143977216e-01 -1.1552503182718233e-02
3.6000000000000019e+00 +9.0443312617472937e+00 +0.0000000000000000e+00 +3.5999999171832830e+00 +5.2076724232449585e-02 -9.6734583650177242e-01 -1.1552538397533956e-02
3.7000000000000020e+00 +9.0442935937111972e+00 +0.0000000000000000e+00 +3.6999999100884344e+00 +5.2076703264780248e-02 -9.6734563903371140e-01 -1.1552573329910040e-02
3.8000000000000020e+00 +9.0442548936800566e+00 +0.0000000000000000e+00 +3.7999999025995286e+00 +5.2076687552026150e-02 -9.6734543746899304e-01 -1.1552608318375511e-02
3.9000000000000021e+00 +9.0442151616540922e+00 +0.0000000000000000e+00 +3.8999998947059149e+00 +5.2076677181040053e-02 -9.6734523024084518e-01 -1.1552643701442326e-02
4.0000000000000018e+00 +9.0441743976335278e+00 +0.0000000000000000e+00 +3.9999998863969441e+00 +5.2076672238670102e-02 -9.6734501578231258e-01 -1.1552679817605186e-02
4.1000000000000014e+00 +9.0441326016185979e+00 +0.0000000000000000e+00 +4.0999998776619657e+00 +5.2076672742363807e-02 -9.6734479243682403e-01 -1.1552716955039937e-02
4.2000000000000011e+00 +9.0440897736095458e+00 +0.0000000000000000e+00 +4.1999998684903295e+00 +5.2076678431982236e-02 -9.6734455819001197e-01 -1.1552755200721984e-02
4.3000000000000007e+00 +9.0440459136066256e+00 +0.0000000000000000e+00 +4.2999998588713861e+00 +5.2076688977997505e-02 -9.6734431093816786e-01 -1.1552794591373830e-02
4.4000000000000004e+00 +9.0440010216101072e+00 +0.0000000000000000e+00 +4.3999998487944847e+00 +5.2076704050891598e-02 -9.6734404857770040e-01 -1.1552835163776526e-02
4.5000000000000000e+00 +9.0439550976202732e+00 +0.0000000000000000e+00 +4.4999998382489759e+00 +5.2076723321157523e-02 -9.6734376900514896e-01 -1.1552876954773762e-02
4.5999999999999996e+00 +9.0439081416374290e+00 +0.0000000000000000e+00 +4.5999998272242095e+00 +5.2076746459300334e-02 -9.6734347011719102e-01 -1.1552920001275923e-02
4.6999999999999993e+00 +9.0438601536618979e+00 +0.0000000000000000e+00 +4.6999998157095364e+00 +5.2076773135838132e-02 -9.6734314981065428e-01 -1.1552964340264149e-02
4.7999999999999989e+00 +9.0438111336940263e+00 +0.0000000000000000e+00 +4.7999998036943055e+00 +5.2076803021303200e-02 -9.6734280598252653e-01 -1.1553010008794414e-02
4.8999999999999986e+00 +9.0437610817341874e+00 +0.0000000000000000e+00 +4.8999997911678674e+00 +5.2076835786242955e-02 -9.6734243652996588e-01 -1.1553057044001575e-02
4.9999999999999982e+00 +9.0437099977827788e+00 +0.0000000000000000e+00 +4.9999997781195722e+00 +5.2076871101221139e-02 -9.6734203935031093e-01 -1.1553105483103444e-02
5.0999999999999979e+00 +9.0436578818402324e+00 +0.0000000000000000e+00 +5.0999997645387705e+00 +5.2076908636818728e-02 -9.6734161234109239e-01 -1.1553155363404878e-02
5.1999999999999975e+00 +9.0436047339070083e+00 +0.0000000000000000e+00 +5.1999997504148121e+00 +5.2076948063635123e-02 -9.6734115340004223e-01 -1.1553206722301819e-02
5.2999999999999972e+00 +9.0435505539836019e+00 +0.0000000000000000e+00 +5.2999997357370470e+00 +5.2076989052289011e-02 -9.6734066042510369e-01 -1.1553259597285367e-02
5.3999999999999968e+00 +9.0434953420705444e+00 +0.0000000000000000e+00 +5.3999997204948258e+00 +5.2077031273419727e-02 -9.6734013131444363e-01 -1.1553314025945879e-02
5.4999999999999964e+00 +9.0434390981684079e+00 +0.0000000000000000e+00 +5.4999997046774984e+00 +5.2077074397687974e-02 -9.6733956396646115e-01 -1.1553370045977012e-02
5.5999999999999961e+00 +9.0433818222778033e+00 +0.0000000000000000e+00 +5.5999996882744147e+00 +5.2077118095777072e-02 -9.6733895627979849e-01 -1.1553427695179809e-02
5.6999999999999957e+00 +9.0433235143993844e+00 +0.0000000000000000e+00 +5.6999996712749263e+00 +5.2077162038394062e-02 -9.6733830615335070e-01 -1.1553487011466771e-02
5.7999999999999954e+00 +9.0432641745338529e+00 +0.0000000000000000e+00 +5.7999996536683831e+00 +5.2077205896270629e-02 -9.6733761148627884e-01 -1.1553548032865934e-02
5.8999999999999950e+00 +9.0432038026819548e+00 +0.0000000000000000e+00 +5.8999996354441349e+00 +5.2077249340164174e-02 -9.6733687017801584e-01 -1.1553610797524943e-02
5.9999999999999947e+00 +9.0431423988444877e+00 +0.0000000000000000e+00 +5.9999996165915332e+00 +5.2077292040858966e-02 -9.6733608012828143e-01 -1.1553675343715132e-02
6.0999999999999943e+00 +9.0430799630223024e+00 +0.0000000000000000e+00 +6.0999995970999281e+00 +5.2077333661880380e-02 -9.6733524032225326e-01 -1.1553741655904842e-02
6.1999999999999940e+00 +9.0430164952162997e+00 +0.0000000000000000e+00 +6.1999995769586702e+00 +5.2077373837616486e-02 -9.6733435408598578e-01 -1.1553809502880470e-02
6.2999999999999936e+00 +9.0429519954274316e+00 +0.0000000000000000e+00 +6.2999995561571103e+00 +5.2077412195145528e-02 -9.6733342583065618e-01 -1.1553878599384754e-02
6.3999999999999932e+00 +9.0428864636566963e+00 +0.0000000000000000e+00 +6.3999995346845990e+00 +5.2077448361517127e-02 -9.6733245996733608e-01 -1.1553948660020578e-02
6.4999999999999929e+00 +9.0428198999051297e+00 +0.0000000000000000e+00 +6.4999995125304881e+00 +5.2077481963750949e-02 -9.6733146090698374e-01 -1.1554019399244199e-02
6.5999999999999925e+00 +9.0427523041738045e+00 +0.0000000000000000e+00 +6.5999994896841274e+00 +5.2077512628835469e-02 -9.6733043306044042e-01 -1.1554090531358632e-02
6.6999999999999922e+00 +9.0426836764638239e+00 +0.0000000000000000e+00 +6.6999994661348676e+00 +5.2077539983726773e-02 -9.6732938083842246e-01 -1.1554161770506851e-02
6.7999999999999918e+00 +9.0426140167763158e+00 +0.0000000000000000e+00 +6.7999994418720604e+00 +5.2077563655347214e-02 -9.6732830865151376e-01 -1.1554232830665128e-02
6.8999999999999915e+00 +9.0425433251124332e+00 +0.0000000000000000e+00 +6.8999994168850565e+00 +5.2077583270584336e-02 -9.6732722091016377e-01 -1.1554303425636323e-02
6.9999999999999911e+00 +9.0424716014733431e+00 +0.0000000000000000e+00 +6.9999993911632075e+00 +5.2077598456289377e-02 -9.6732612202467549e-01 -1.1554373269043142e-02
7.0999999999999908e+00 +9.0423988458602249e+00 +0.0000000000000000e+00 +7.0999993646958641e+00 +5.2077608839276215e-02 -9.6732501640520441e-01 -1.1554442074321453e-02
7.1999999999999904e+00 +9.0423250582742654e+00 +0.0000000000000000e+00 +7.1999993374723772e+00 +5.2077614046320060e-02 -9.6732390846174920e-01 -1.1554509554713566e-02
7.2999999999999901e+00 +9.0422502387166546e+00 +0.0000000000000000e+00 +7.2999993094820983e+00 +5.2077613704156131e-02 -9.6732280260414560e-01 -1.1554575423261493e-02
7.3999999999999897e+00 +9.0421743871885791e+00 +0.0000000000000000e+00 +7.3999992807143791e+00 +5.2077607439478556e-02 -9.6732170324206179e-01 -1.1554639392800265e-02
7.4999999999999893e+00 +9.0420975036912203e+00 +0.0000000000000000e+00 +7.4999992511585702e+00 +5.2077594878938913e-02 -9.6732061478499065e-01 -1.1554701175951185e-02
7.5999999999999890e+00 +9.0420195882257470e+00 +0.0000000000000000e+00 +7.5999992208040235e+00 +5.2077575649145183e-02 -9.6731954164224343e-01 -1.1554760485115128e-02
7.6999999999999886e+00 +9.0419406407933121e+00 +0.0000000000000000e+00 +7.6999991896400894e+00 +5.2077549376660350e-02 -9.6731848822294486e-01 -1.1554817032465810e-02
7.7999999999999883e+00 +9.0418606613950470e+00 +0.0000000000000000e+00 +7.7999991576561198e+00 +5.2077515688001189e-02 -9.6731745893602461e-01 -1.1554870529943069e-02
7.8999999999999879e+00 +9.0417796500320584e+00 +0.0000000000000000e+00 +7.8999991248414663e+00 +5.2077474209637042e-02 -9.6731645819021339e-01 -1.1554920689246132e-02
7.9999999999999876e+00 +9.0416976067054211e+00 +0.0000000000000000e+00 +7.9999990911854795e+00 +5.2077424567988501e-02 -9.6731549039403530e-01 -1.1554967221826912e-02
8.0999999999999872e+00 +9.0416145314161760e+00 +0.0000000000000000e+00 +8.0999990566775111e+00 +5.2077366429982529e-02 -9.6731455857388327e-01 -1.1555009975856933e-02
8.1999999999999869e+00 +9.0415304241653267e+00 +0.0000000000000000e+00 +8.1999990213069136e+00 +5.2077299624765871e-02 -9.6731366022828735e-01 -1.1555049347301963e-02
8.2999999999999865e+00 +9.0414452849538414e+00 +0.0000000000000000e+00 +8.2999989850630360e+00 +5.2077224022105600e-02 -9.6731279147405602e-01 -1.1555085869247052e-02
8.3999999999999861e+00 +9.0413591137826561e+00 +0.0000000000000000e+00 +8.3999989479352326e+00 +5.2077139491843373e-02 -9.6731194842832580e-01 -1.1555120074957775e-02
8.4999999999999858e+00 +9.0412719106526804e+00 +0.0000000000000000e+00 +8.4999989099128523e+00 +5.2077045903897841e-02 -9.6731112720856904e-01 -1.1555152497886842e-02
8.5999999999999854e+00 +9.0411836755647990e+00 +0.0000000000000000e+00 +8.5999988709852477e+00 +5.2076943128267196e-02 -9.6731032393260574e-01 -1.1555183671680814e-02
8.6999999999999851e+00 +9.0410944085198786e+00 +0.0000000000000000e+00 +8.6999988311417695e+00 +5.2076831035031669e-02 -9.6730953471861392e-01 -1.1555214130186746e-02
8.7999999999999847e+00 +9.0410041095187719e+00 +0.0000000000000000e+00 +8.7999987903717702e+00 +5.2076709494356048e-02 -9.6730875568513752e-01 -1.1555244407458873e-02
8.8999999999999844e+00 +9.0409127785623191e+00 +0.0000000000000000e+00 +8.8999987486646006e+00 +5.2076578376492273e-02 -9.6730798295110043e-01 -1.1555275037765269e-02
8.9999999999999840e+00 +9.0408204156513552e+00 +0.0000000000000000e+00 +8.9999987060096114e+00 +5.2076437551781887e-02 -9.6730721263581310e-01 -1.1555306555594533e-02
9.0999999999999837e+00 +9.0407270207867114e+00 +0.0000000000000000e+00 +9.0999986623961551e+00 +5.2076286890658588e-02 -9.6730644085898554e-01 -1.1555339495662460e-02
9.1999999999999833e+00 +9.0406325939692227e+00 +0.0000000000000000e+00 +9.1999986178135824e+00 +5.2076126263650747e-02 -9.6730566374073590e-01 -1.1555374392918712e-02
9.2999999999999829e+00 +9.0405371351997275e+00 +0.0000000000000000e+00 +9.2999985722512442e+00 +5.2075955541383952e-02 -9.6730487740160132e-01 -1.1555411782553480e-02
9.3999999999999826e+00 +9.0404406444790748e+00 +0.0000000000000000e+00 +9.3999985256984946e+00 +5.2075774594583485e-02 -9.6730407796254858e-01 -1.1555452200004174e-02
9.4999999999999822e+00 +9.0403431218081280e+00 +0.0000000000000000e+00 +9.4999984781446827e+00 +5.2075583294076896e-02 -9.6730326154498314e-01 -1.1555496180962094e-02
9.5999999999999819e+00 +9.0402445671877700e+00 +0.0000000000000000e+00 +9.5999984295791609e+00 +5.2075381510796465e-02 -9.6730242427076119e-01 -1.1555544261379102e-02
9.6999999999999815e+00 +9.0401449806189049e+00 +0.0000000000000000e+00 +9.6999983799912819e+00 +5.2075169115781861e-02 -9.6730156226219866e-01 -1.1555596977474302e-02
9.7999999999999812e+00 +9.0400443621024618e+00 +0.0000000000000000e+00 +9.7999983293703963e+00 +5.2074945980182495e-02 -9.6730067164208255e-01 -1.1555654865740712e-02
9.8999999999999808e+00 +9.0399427116394033e+00 +0.0000000000000000e+00 +9.8999982777058566e+00 +5.2074711975260160e-02 -9.6729974853367973e-01 -1.1555718462951935e-02
9.9999999999999805e+00 +9.0398400292307244e+00 +0.0000000000000000e+00 +9.9999982249870136e+00 +5.2074466972391480e-02 -9.6729878906074895e-01 -1.1555788306168845e-02
1.0099999999999980e+01 +9.0397363148774605e+00 +0.0000000000000000e+00 +1.0099998171203220e+01 +5.2074210819439880e-02 -9.6729779063362331e-01 -1.1555864765091958e-02
1.0199999999999980e+01 +9.0396315685806883e+00 +0.0000000000000000e+00 +1.0199998116343828e+01 +5.2073943269785650e-02 -9.6729675580725427e-01 -1.1555947538932706e-02
1.0299999999999979e+01 +9.0395257903415214e+00 +0.0000000000000000e+00 +1.0299998060398188e+01 +5.2073664053089143e-02 -9.6729568842204250e-01 -1.1556036159157118e-02
1.0399999999999979e+01 +9.0394189801611091e+00 +0.0000000000000000e+00 +1.0399998003355655e+01 +5.2073372898902480e-02 -9.6729459231748838e-01 -1.1556130157120887e-02
1.0499999999999979e+01 +9.0393111380406328e+00 +0.0000000000000000e+00 +1.0499997945205580e+01 +5.2073069536666412e-02 -9.6729347133216892e-01 -1.1556229064065941e-02
1.0599999999999978e+01 +9.0392022639813003e+00 +0.0000000000000000e+00 +1.0599997885937315e+01 +5.2072753695707283e-02 -9.6729232930371334e-01 -1.1556332411117025e-02
1.0699999999999978e+01 +9.0390923579843392e+00 +0.0000000000000000e+00 +1.0699997825540212e+01 +5.2072425105234160e-02 -9.6729117006877918e-01 -1.1556439729278268e-02
1.0799999999999978e+01 +9.0389814200509981e+00 +0.0000000000000000e+00 +1.0799997764003624e+01 +5.2072083494335647e-02 -9.6728999746302813e-01 -1.1556550549429787e-02
1.0899999999999977e+01 +9.0388694501825402e+00 +0.0000000000000000e+00 +1.0899997701316904e+01 +5.2071728591976958e-02 -9.6728881532110222e-01 -1.1556664402324222e-02
1.0999999999999977e+01 +9.0387564483802372e+00 +0.0000000000000000e+00 +1.0999997637469404e+01 +5.2071360126996855e-02 -9.6728762747659858e-01 -1.1556780818583365e-02
1.1099999999999977e+01 +9.0386424146453699e+00 +0.0000000000000000e+00 +1.1099997572450476e+01 +5.2070977828104617e-02 -9.6728643776204770e-01 -1.1556899328694704e-02
1.1199999999999976e+01 +9.0385273489792173e+00 +0.0000000000000000e+00 +1.1199997506249474e+01 +5.2070581423877042e-02 -9.6728525000888610e-01 -1.1557019463008014e-02
1.1299999999999976e+01 +9.0384112513830601e+00 +0.0000000000000000e+00 +1.1299997438855749e+01 +5.2070170642755424e-02 -9.6728406804743483e-01 -1.1557140751731939e-02
1.1399999999999975e+01 +9.0382941218581703e+00 +0.0000000000000000e+00 +1.1399997370258655e+01 +5.2069745213042473e-02 -9.6728289570687442e-01 -1.1557262724930578e-02
1.1499999999999975e+01 +9.0381759604058107e+00 +0.0000000000000000e+00 +1.1499997300447543e+01 +5.2069304862899408e-02 -9.6728173681522089e-01 -1.1557384912520060e-02
1.1599999999999975e+01 +9.0380567670272303e+00 +0.0000000000000000e+00 +1.1599997229411766e+01 +5.2068849320342836e-02 -9.6728059519930043e-01 -1.1557506844265129e-02
1.1699999999999974e+01 +9.0379365417236581e+00 +0.0000000000000000e+00 +1.1699997157140679e+01 +5.2068378313241730e-02 -9.6727947468472664e-01 -1.1557628049775720e-02
1.1799999999999974e+01 +9.0378152844963040e+00 +0.0000000000000000e+00 +1.1799997083623632e+01 +5.2067891569314524e-02 -9.6727837909587644e-01 -1.1557748058503570e-02
