# trajectory
# s[mm] rx[mm] ry[mm] rz[mm] px[rad] py[rad] pz[rad]
0.0000000000000000e+00 +9.1267999999999994e+00 +0.0000000000000000e+00 +0.0000000000000000e+00 +0.0000000000000000e+00 +0.0000000000000000e+00 +1.0000000000000000e+00
-1.0000000000000001e-01 +9.1267994838506485e+00 +0.0000000000000000e+00 -9.9999999998223940e-02 +1.0322984918659912e-05 +0.0000000000000000e+00 +9.9999999994671795e-01
-2.0000000000000001e-01 +9.1267979354034381e+00 +0.0000000000000000e+00 -1.9999999998579149e-01 +2.0645957139664485e-05 +0.0000000000000000e+00 +9.9999999978687215e-01
-3.0000000000000004e-01 +9.1267953546596559e+00 +0.0000000000000000e+00 -2.9999999995204629e-01 +3.0968916322954924e-05 +0.0000000000000000e+00 +9.9999999952046303e-01
-4.0000000000000002e-01 +9.1267917416206181e+00 +0.0000000000000000e+00 -3.9999999988633200e-01 +4.1291862191079269e-05 +0.0000000000000000e+00 +9.9999999914749094e-01
-5.0000000000000000e-01 +9.1267870962876678e+00 +0.0000000000000000e+00 -4.9999999977799237e-01 +5.1614794529191250e-05 +0.0000000000000000e+00 +9.9999999866795641e-01
-5.9999999999999998e-01 +9.1267814186621674e+00 +0.0000000000000000e+00 -5.9999999961637118e-01 +6.1937713185047748e-05 +0.0000000000000000e+00 +9.9999999808185980e-01
-6.9999999999999996e-01 +9.1267747087454900e+00 +0.0000000000000000e+00 -6.9999999939081226e-01 +7.2260618069004955e-05 +0.0000000000000000e+00 +9.9999999738920153e-01
-7.9999999999999993e-01 +9.1267669665390141e+00 +0.0000000000000000e+00 -7.9999999909065944e-01 +8.2583509154013078e-05 +0.0000000000000000e+00 +9.9999999658998195e-01
-8.9999999999999991e-01 +9.1267581920441181e+00 +0.0000000000000000e+00 -8.9999999870525660e-01 +9.2906386475609783e-05 +0.0000000000000000e+00 +9.9999999568420161e-01
-9.9999999999999989e-01 +9.1267483852621751e+00 +0.0000000000000000e+00 -9.9999999822394769e-01 +1.0322925013191222e-04 +0.0000000000000000e+00 +9.9999999467186085e-01
-1.0999999999999999e+00 +9.1267375461945424e+00 +0.0000000000000000e+00 -1.0999999976360768e+00 +1.1355210028360771e-04 +0.0000000000000000e+00 +9.9999999355296010e-01
-1.2000000000000000e+00 +9.1267256748425609e+00 +0.0000000000000000e+00 -1.1999999969309878e+00 +1.2387493715394302e-04 +0.0000000000000000e+00 +9.9999999232749981e-01
-1.3000000000000000e+00 +9.1267127712075453e+00 +0.0000000000000000e+00 -1.2999999960980249e+00 +1.3419776102871231e-04 +0.0000000000000000e+00 +9.9999999099548031e-01
-1.4000000000000001e+00 +9.1266988352907781e+00 +0.0000000000000000e+00 -1.3999999951265321e+00 +1.4452057225624381e-04 +0.0000000000000000e+00 +9.9999998955690195e-01
-1.5000000000000002e+00 +9.1266838670935027e+00 +0.0000000000000000e+00 -1.4999999940058535e+00 +1.5484337124738496e-04 +0.0000000000000000e+00 +9.9999998801176504e-01
-1.6000000000000003e+00 +9.1266678666169199e+00 +0.0000000000000000e+00 -1.5999999927253332e+00 +1.6516615847442606e-04 +0.0000000000000000e+00 +9.9999998636006993e-01
-1.7000000000000004e+00 +9.1266508338621826e+00 +0.0000000000000000e+00 -1.6999999912743156e+00 +1.7548893445942202e-04 +0.0000000000000000e+00 +9.9999998460181683e-01
-1.8000000000000005e+00 +9.1266327688303850e+00 +0.0000000000000000e+00 -1.7999999896421446e+00 +1.8581169976251876e-04 +0.0000000000000000e+00 +9.9999998273700597e-01
-1.9000000000000006e+00 +9.1266136715225663e+00 +0.0000000000000000e+00 -1.8999999878181648e+00 +1.9613445498088474e-04 +0.0000000000000000e+00 +9.9999998076563756e-01
-2.0000000000000004e+00 +9.1265935419397035e+00 +0.0000000000000000e+00 -1.9999999857917203e+00 +2.0645720074870301e-04 +0.0000000000000000e+00 +9.9999997868771184e-01
-2.1000000000000005e+00 +9.1265723800827097e+00 +0.0000000000000000e+00 -2.0999999835521552e+00 +2.1677993773716370e-04 +0.0000000000000000e+00 +9.9999997650322892e-01
-2.2000000000000006e+00 +9.1265501859524267e+00 +0.0000000000000000e+00 -2.1999999810888142e+00 +2.2710266665445654e-04 +0.0000000000000000e+00 +9.9999997421218900e-01
-2.3000000000000007e+00 +9.1265269595496239e+00 +0.0000000000000000e+00 -2.2999999783910412e+00 +2.3742538824576381e-04 +0.0000000000000000e+00 +9.9999997181459199e-01
-2.4000000000000008e+00 +9.1265027008749957e+00 +0.0000000000000000e+00 -2.3999999754481807e+00 +2.4774810329325340e-04 +0.0000000000000000e+00 +9.9999996931043811e-01
-2.5000000000000009e+00 +9.1264774099291568e+00 +0.0000000000000000e+00 -2.4999999722495767e+00 +2.5807081261607220e-04 +0.0000000000000000e+00 +9.9999996669972724e-01
-2.6000000000000010e+00 +9.1264510867126347e+00 +0.0000000000000000e+00 -2.5999999687845738e+00 +2.6839351707033980e-04 +0.0000000000000000e+00 +9.9999996398245927e-01
-2.7000000000000011e+00 +9.1264237312258736e+00 +0.0000000000000000e+00 -2.6999999650425166e+00 +2.7871621754914220e-04 +0.0000000000000000e+00 +9.9999996115863421e-01
-2.8000000000000012e+00 +9.1263953434692251e+00 +0.0000000000000000e+00 -2.7999999610127491e+00 +2.8903891498252609e-04 +0.0000000000000000e+00 +9.9999995822825183e-01
-2.9000000000000012e+00 +9.1263659234429451e+00 +0.0000000000000000e+00 -2.8999999566846153e+00 +2.9936161033749316e-04 +0.0000000000000000e+00 +9.9999995519131202e-01
-3.0000000000000013e+00 +9.1263354711471933e+00 +0.0000000000000000e+00 -2.9999999520474594e+00 +3.0968430461799469e-04 +0.0000000000000000e+00 +9.9999995204781444e-01
-3.1000000000000014e+00 +9.1263039865820232e+00 +0.0000000000000000e+00 -3.0999999470906259e+00 +3.2000699886492649e-04 +0.0000000000000000e+00 +9.9999994879775889e-01
-3.2000000000000015e+00 +9.1262714697473850e+00 +0.0000000000000000e+00 -3.1999999418034593e+00 +3.3032969415612399e-04 +0.0000000000000000e+00 +9.9999994544114490e-01
-3.3000000000000016e+00 +9.1262379206431188e+00 +0.0000000000000000e+00 -3.2999999361753032e+00 +3.4065239160635763e-04 +0.0000000000000000e+00 +9.9999994197797215e-01
-3.4000000000000017e+00 +9.1262033392689528e+00 +0.0000000000000000e+00 -3.3999999301955017e+00 +3.5097509236732842e-04 +0.0000000000000000e+00 +9.9999993840824020e-01
-3.5000000000000018e+00 +9.1261677256244962e+00 +0.0000000000000000e+00 -3.4999999238533990e+00 +3.6129779762766390e-04 +0.0000000000000000e+00 +9.9999993473194837e-01
-3.6000000000000019e+00 +9.1261310797092374e+00 +0.0000000000000000e+00 -3.5999999171383390e+00 +3.7162050860571540e-04 +0.0000000000000000e+00 +9.9999993094909623e-01
-3.7000000000000020e+00 +9.1260934015225459e+00 +0.0000000000000000e+00 -3.6999999100396659e+00 +3.8194322647036919e-04 +0.0000000000000000e+00 +9.9999992705968299e-01
-3.8000000000000020e+00 +9.1260546910636791e+00 +0.0000000000000000e+00 -3.7999999025467233e+00 +3.9226595226186310e-04 +0.0000000000000000e+00 +9.9999992306370822e-01
-3.9000000000000021e+00 +9.1260149483317985e+00 +0.0000000000000000e+00 -3.8999998946488552e+00 +4.0258868688459543e-04 +0.0000000000000000e+00 +9.9999991896117113e-01
-4.0000000000000018e+00 +9.1259741733259823e+00 +0.0000000000000000e+00 -3.9999998863354054e+00 +4.1291143110713335e-04 +0.0000000000000000e+00 +9.9999991475207117e-01
-4.1000000000000014e+00 +9.1259323660452356e+00 +0.0000000000000000e+00 -4.0999998775957174e+00 +4.2323418556222241e-04 +0.0000000000000000e+00 +9.9999991043640790e-01
-4.2000000000000011e+00 +9.1258895264885105e+00 +0.0000000000000000e+00 -4.1999998684191349e+00 +4.3355695074679703e-04 +0.0000000000000000e+00 +9.9999990601418065e-01
-4.3000000000000007e+00 +9.1258456546547162e+00 +0.0000000000000000e+00 -4.2999998587950010e+00 +4.4387972702199192e-04 +0.0000000000000000e+00 +9.9999990148538898e-01
-4.4000000000000004e+00 +9.1258007505427301e+00 +0.0000000000000000e+00 -4.3999998487126604e+00 +4.5420251461315435e-04 +0.0000000000000000e+00 +9.9999989685003243e-01
-4.5000000000000000e+00 +9.1257548141514135e+00 +0.0000000000000000e+00 -4.4999998381614557e+00 +4.6452531360985751e-04 +0.0000000000000000e+00 +9.9999989210811058e-01
-4.5999999999999996e+00 +9.1257078454796297e+00 +0.0000000000000000e+00 -4.5999998271307305e+00 +4.7484812396591473e-04 +0.0000000000000000e+00 +9.9999988725962308e-01
-4.6999999999999993e+00 +9.1256598445262487e+00 +0.0000000000000000e+00 -4.6999998156098286e+00 +4.8517094549939459e-04 +0.0000000000000000e+00 +9.9999988230456971e-01
-4.7999999999999989e+00 +9.1256108112901675e+00 +0.0000000000000000e+00 -4.7999998035880926e+00 +4.9549377789263709e-04 +0.0000000000000000e+00 +9.9999987724295036e-01
-4.8999999999999986e+00 +9.1255607457703221e+00 +0.0000000000000000e+00 -4.8999997910548663e+00 +5.0581662069227088e-04 +0.0000000000000000e+00 +9.9999987207476482e-01
-4.9999999999999982e+00 +9.1255096479657016e+00 +0.0000000000000000e+00 -4.9999997779994931e+00 +5.1613947330923088e-04 +0.0000000000000000e+00 +9.9999986680001307e-01
-5.0999999999999979e+00 +9.1254575178753576e+00 +0.0000000000000000e+00 -5.0999997644113169e+00 +5.2646233501877759e-04 +0.0000000000000000e+00 +9.9999986141869524e-01
-5.1999999999999975e+00 +9.1254043554984232e+00 +0.0000000000000000e+00 -5.1999997502796802e+00 +5.3678520496051678e-04 +0.0000000000000000e+00 +9.9999985593081142e-01
-5.2999999999999972e+00 +9.1253501608341239e+00 +0.0000000000000000e+00 -5.2999997355939268e+00 +5.4710808213842056e-04 +0.0000000000000000e+00 +9.9999985033636196e-01
-5.3999999999999968e+00 +9.1252949338817917e+00 +0.0000000000000000e+00 -5.3999997203434003e+00 +5.5743096542084898e-04 +0.0000000000000000e+00 +9.9999984463534730e-01
-5.4999999999999964e+00 +9.1252386746408778e+00 +0.0000000000000000e+00 -5.4999997045174442e+00 +5.6775385354057291e-04 +0.0000000000000000e+00 +9.9999983882776788e-01
-5.5999999999999961e+00 +9.1251813831109683e+00 +0.0000000000000000e+00 -5.5999996881054015e+00 +5.7807674510278022e-04 +0.0000000000000000e+00 +9.9999983291362438e-01
-5.6999999999999957e+00 +9.1251230592917896e+00 +0.0000000000000000e+00 -5.6999996710966165e+00 +5.8839963867290534e-04 +0.0000000000000000e+00 +9.9999982689291755e-01
-5.7999999999999954e+00 +9.1250637031832120e+00 +0.0000000000000000e+00 -5.7999996534804330e+00 +5.9872253286444527e-04 +0.0000000000000000e+00 +9.9999982076564820e-01
-5.8999999999999950e+00 +9.1250033147852410e+00 +0.0000000000000000e+00 -5.8999996352461945e+00 +6.0904542634694137e-04 +0.0000000000000000e+00 +9.9999981453181708e-01
-5.9999999999999947e+00 +9.1249418940980096e+00 +0.0000000000000000e+00 -5.9999996163832447e+00 +6.1936831784597699e-04 +0.0000000000000000e+00 +9.9999980819142498e-01
-6.0999999999999943e+00 +9.1248794411217791e+00 +0.0000000000000000e+00 -6.0999995968809273e+00 +6.2969120614317538e-04 +0.0000000000000000e+00 +9.9999980174447278e-01
-6.1999999999999940e+00 +9.1248159558569277e+00 +0.0000000000000000e+00 -6.1999995767285867e+00 +6.4001409007619732e-04 +0.0000000000000000e+00 +9.9999979519096127e-01
-6.2999999999999936e+00 +9.1247514383039476e+00 +0.0000000000000000e+00 -6.2999995559155675e+00 +6.5033696853873809e-04 +0.0000000000000000e+00 +9.9999978853089133e-01
-6.3999999999999932e+00 +9.1246858884634374e+00 +0.0000000000000000e+00 -6.3999995344312133e+00 +6.6065984048052488e-04 +0.0000000000000000e+00 +9.9999978176426374e-01
-6.4999999999999929e+00 +9.1246193063361023e+00 +0.0000000000000000e+00 -6.4999995122648686e+00 +6.7098270490731316e-04 +0.0000000000000000e+00 +9.9999977489107950e-01
-6.5999999999999925e+00 +9.1245516919227381e+00 +0.0000000000000000e+00 -6.5999994894058771e+00 +6.8130556088088329e-04 +0.0000000000000000e+00 +9.9999976791133938e-01
-6.6999999999999922e+00 +9.1244830452242365e+00 +0.0000000000000000e+00 -6.6999994658435842e+00 +6.9162840751903687e-04 +0.0000000000000000e+00 +9.9999976082504427e-01
-6.7999999999999918e+00 +9.1244133662415727e+00 +0.0000000000000000e+00 -6.7999994415673344e+00 +7.0195124399559253e-04 +0.0000000000000000e+00 +9.9999975363219507e-01
-6.8999999999999915e+00 +9.1243426549758020e+00 +0.0000000000000000e+00 -6.8999994165664713e+00 +7.1227406954038185e-04 +0.0000000000000000e+00 +9.9999974633279265e-01
-6.9999999999999911e+00 +9.1242709114280540e+00 +0.0000000000000000e+00 -6.9999993908303404e+00 +7.2259688343924455e-04 +0.0000000000000000e+00 +9.9999973892683780e-01
-7.0999999999999908e+00 +9.1241981355995261e+00 +0.0000000000000000e+00 -7.0999993643482870e+00 +7.3291968503402403e-04 +0.0000000000000000e+00 +9.9999973141433141e-01
-7.1999999999999904e+00 +9.1241243274914776e+00 +0.0000000000000000e+00 -7.1999993371096549e+00 +7.4324247372256202e-04 +0.0000000000000000e+00 +9.9999972379527435e-01
-7.2999999999999901e+00 +9.1240494871052285e+00 +0.0000000000000000e+00 -7.2999993091037902e+00 +7.5356524895869327e-04 +0.0000000000000000e+00 +9.9999971606966731e-01
-7.3999999999999897e+00 +9.1239736144421499e+00 +0.0000000000000000e+00 -7.3999992803200367e+00 +7.6388801025224025e-04 +0.0000000000000000e+00 +9.9999970823751116e-01
-7.4999999999999893e+00 +9.1238967095036578e+00 +0.0000000000000000e+00 -7.4999992507477407e+00 +7.7421075716900718e-04 +0.0000000000000000e+00 +9.9999970029880669e-01
-7.5999999999999890e+00 +9.1238187722912087e+00 +0.0000000000000000e+00 -7.5999992203762465e+00 +7.8453348933069664e-04 +0.0000000000000000e+00 +9.9999969225355456e-01
-7.6999999999999886e+00 +9.1237398028062948e+00 +0.0000000000000000e+00 -7.6999991891948998e+00 +7.9485620641405331e-04 +0.0000000000000000e+00 +9.9999968410175555e-01
-7.7999999999999883e+00 +9.1236598010504384e+00 +0.0000000000000000e+00 -7.7999991571930458e+00 +8.0517890815000348e-04 +0.0000000000000000e+00 +9.9999967584341032e-01
-7.8999999999999879e+00 +9.1235787670251849e+00 +0.0000000000000000e+00 -7.8999991243600300e+00 +8.1550159432356296e-04 +0.0000000000000000e+00 +9.9999966747851943e-01
-7.9999999999999876e+00 +9.1234967007320993e+00 +0.0000000000000000e+00 -7.9999990906851979e+00 +8.2582426477382208e-04 +0.0000000000000000e+00 +9.9999965900708365e-01
-8.0999999999999872e+00 +9.1234136021727590e+00 +0.0000000000000000e+00 -8.0999990561578947e+00 +8.3614691939393009e-04 +0.0000000000000000e+00 +9.9999965042910344e-01
-8.1999999999999869e+00 +9.1233294713487503e+00 +0.0000000000000000e+00 -8.1999990207674660e+00 +8.4646955813107898e-04 +0.0000000000000000e+00 +9.9999964174457934e-01
-8.2999999999999865e+00 +9.1232443082616630e+00 +0.0000000000000000e+00 -8.2999989845032580e+00 +8.5679218098648686e-04 +0.0000000000000000e+00 +9.9999963295351191e-01
-8.3999999999999861e+00 +9.1231581129130817e+00 +0.0000000000000000e+00 -8.3999989473546162e+00 +8.6711478801538048e-04 +0.0000000000000000e+00 +9.9999962405590148e-01
-8.4999999999999858e+00 +9.1230708853045837e+00 +0.0000000000000000e+00 -8.4999989093108859e+00 +8.7743737932697793e-04 +0.0000000000000000e+00 +9.9999961505174850e-01
-8.5999999999999854e+00 +9.1229826254377340e+00 +0.0000000000000000e+00 -8.5999988703614143e+00 +8.8775995508447029e-04 +0.0000000000000000e+00 +9.9999960594105330e-01
-8.6999999999999851e+00 +9.1228933333140780e+00 +0.0000000000000000e+00 -8.6999988304955451e+00 +8.9808251550500275e-04 +0.0000000000000000e+00 +9.9999959672381622e-01
-8.7999999999999847e+00 +9.1228030089351364e+00 +0.0000000000000000e+00 -8.7999987897026255e+00 +9.0840506085965579e-04 +0.0000000000000000e+00 +9.9999958740003747e-01
-8.8999999999999844e+00 +9.1227116523023977e+00 +0.0000000000000000e+00 -8.8999987479720009e+00 +9.1872759147342518e-04 +0.0000000000000000e+00 +9.9999957796971717e-01
-8.9999999999999840e+00 +9.1226192634173202e+00 +0.0000000000000000e+00 -8.9999987052930166e+00 +9.2905010772520176e-04 +0.0000000000000000e+00 +9.9999956843285542e-01
-9.0999999999999837e+00 +9.1225258422813180e+00 +0.0000000000000000e+00 -9.0999986616550199e+00 +9.3937261004775076e-04 +0.0000000000000000e+00 +9.9999955878945235e-01
-9.1999999999999833e+00 +9.1224313888957589e+00 +0.0000000000000000e+00 -9.1999986170473562e+00 +9.4969509892769066e-04 +0.0000000000000000e+00 +9.9999954903950783e-01
-9.2999999999999829e+00 +9.1223359032619626e+00 +0.0000000000000000e+00 -9.2999985714593709e+00 +9.6001757490547118e-04 +0.0000000000000000e+00 +9.9999953918302176e-01
-9.3999999999999826e+00 +9.1222393853811887e+00 +0.0000000000000000e+00 -9.3999985248804094e+00 +9.7034003857535123e-04 +0.0000000000000000e+00 +9.9999952921999391e-01
-9.4999999999999822e+00 +9.1221418352546362e+00 +0.0000000000000000e+00 -9.4999984772998189e+00 +9.8066249058537613e-04 +0.0000000000000000e+00 +9.9999951915042418e-01
-9.5999999999999819e+00 +9.1220432528834365e+00 +0.0000000000000000e+00 -9.5999984287069431e+00 +9.9098493163488587e-04 +0.0000000000000000e+00 +9.9999950897431211e-01
-9.6999999999999815e+00 +9.1219436382686503e+00 +0.0000000000000000e+00 -9.6999983790911291e+00 +1.0013073624473433e-03 +0.0000000000000000e+00 +9.9999949869165727e-01
-9.7999999999999812e+00 +9.1218429914112651e+00 +0.0000000000000000e+00 -9.7999983284417223e+00 +1.0116297837431847e-03 +0.0000000000000000e+00 +9.9999948830245933e-01
-9.8999999999999808e+00 +9.1217413123121958e+00 +0.0000000000000000e+00 -9.8999982767480681e+00 +1.0219521962373699e-03 +0.0000000000000000e+00 +9.9999947780671783e-01
-9.9999999999999805e+00 +9.1216386009722878e+00 +0.0000000000000000e+00 -9.9999982239995138e+00 +1.0322746006394016e-03 +0.0000000000000000e+00 +9.9999946720443234e-01
-1.0099999999999980e+01 +9.1215348573923141e+00 +0.0000000000000000e+00 -1.0099998170185403e+01 +1.0425969976533460e-03 +0.0000000000000000e+00 +9.9999945649560240e-01
-1.0199999999999980e+01 +9.1214300815729796e+00 +0.0000000000000000e+00 -1.0199998115295083e+01 +1.0529193879778539e-03 +0.0000000000000000e+00 +9.9999944568022747e-01
-1.0299999999999979e+01 +9.1213242735149187e+00 +0.0000000000000000e+00 -1.0299998059317897e+01 +1.0632417723061818e-03 +0.0000000000000000e+00 +9.9999943475830699e-01
-1.0399999999999979e+01 +9.1212174332186962e+00 +0.0000000000000000e+00 -1.0399998002243192e+01 +1.0735641513262147e-03 +0.0000000000000000e+00 +9.9999942372984041e-01
-1.0499999999999979e+01 +9.1211095606848076e+00 +0.0000000000000000e+00 -1.0499997944060313e+01 +1.0838865257204885e-03 +0.0000000000000000e+00 +9.9999941259482716e-01
-1.0599999999999978e+01 +9.1210006559136829e+00 +0.0000000000000000e+00 -1.0599997884758606e+01 +1.0942088961662132e-03 +0.0000000000000000e+00 +9.9999940135326659e-01
-1.0699999999999978e+01 +9.1208907189056827e+00 +0.0000000000000000e+00 -1.0699997824327415e+01 +1.1045312633352978e-03 +0.0000000000000000e+00 +9.9999939000515814e-01
-1.0799999999999978e+01 +9.1207797496611018e+00 +0.0000000000000000e+00 -1.0799997762756085e+01 +1.1148536278943733e-03 +0.0000000000000000e+00 +9.9999937855050114e-01
-1.0899999999999977e+01 +9.1206677481801677e+00 +0.0000000000000000e+00 -1.0899997700033962e+01 +1.1251759905048198e-03 +0.0000000000000000e+00 +9.9999936698929492e-01
-1.0999999999999977e+01 +9.1205547144630437e+00 +0.0000000000000000e+00 -1.0999997636150392e+01 +1.1354983518227909e-03 +0.0000000000000000e+00 +9.9999935532153883e-01
-1.1099999999999977e+01 +9.1204406485098257e+00 +0.0000000000000000e+00 -1.1099997571094718e+01 +1.1458207124992407e-03 +0.0000000000000000e+00 +9.9999934354723208e-01
-1.1199999999999976e+01 +9.1203255503205440e+00 +0.0000000000000000e+00 -1.1199997504856286e+01 +1.1561430731799507e-03 +0.0000000000000000e+00 +9.9999933166637400e-01
-1.1299999999999976e+01 +9.1202094198951684e+00 +0.0000000000000000e+00 -1.1299997437424441e+01 +1.1664654345055572e-03 +0.0000000000000000e+00 +9.9999931967896383e-01
-1.1399999999999975e+01 +9.1200922572336012e+00 +0.0000000000000000e+00 -1.1399997368788528e+01 +1.1767877971115800e-03 +0.0000000000000000e+00 +9.9999930758500077e-01
-1.1499999999999975e+01 +9.1199740623356824e+00 +0.0000000000000000e+00 -1.1499997298937890e+01 +1.1871101616284508e-03 +0.0000000000000000e+00 +9.9999929538448407e-01
-1.1599999999999975e+01 +9.1198548352011901e+00 +0.0000000000000000e+00 -1.1599997227861873e+01 +1.1974325286785057e-03 +0.0000000000000000e+00 +9.9999928307741293e-01
-1.1699999999999974e+01 +9.1197345758298418e+00 +0.0000000000000000e+00 -1.1699997155549822e+01 +1.2077548988426007e-03 +0.0000000000000000e+00 +9.9999927066378647e-01
