# multipoles
# s[mm] polynom_b[n=0][T/m^n] polynom_b[n=1][T/m^n] polynom_b[n=2][T/m^n] polynom_b[n=3][T/m^n] polynom_b[n=4][T/m^n] polynom_b[n=5][T/m^n] polynom_b[n=6][T/m^n] 
+0.0000000000000000e+00 -1.0343432250496243e+00 +2.2777358916555555e+00 +1.9792111555543730e+01 +4.2048736338788422e+02 -1.6747564681908552e+04 -2.2424196261659833e+06 +1.5780529696435314e+08 
+1.0000000000000001e-01 -1.0343428785867972e+00 +2.2769243492908502e+00 +1.9729974233331955e+01 +4.4369110275730088e+02 -1.4998384653918059e+04 -2.3744959866187796e+06 +1.4859163670964214e+08 
+2.0000000000000001e-01 -1.0343425620344973e+00 +2.2761542007302609e+00 +1.9670016989846388e+01 +4.6555760318855266e+02 -1.3250304097174107e+04 -2.4988153886151058e+06 +1.3928858432759795e+08 
+3.0000000000000004e-01 -1.0343422781783069e+00 +2.2754276168879284e+00 +1.9612207058524774e+01 +4.8601539885245643e+02 -1.1501730081238411e+04 -2.6149675497759506e+06 +1.2988736390565260e+08 
+4.0000000000000002e-01 -1.0343420298042760e+00 +2.2747467686386496e+00 +1.9556511732566321e+01 +5.0499302446018936e+02 -9.7510707197861739e+03 -2.7225421884008353e+06 +1.2037920401633848e+08 
+5.0000000000000000e-01 -1.0343418196989187e+00 +2.2741138268072154e+00 +1.9502898364609123e+01 +5.2241901551561125e+02 -7.9967351598438154e+03 -2.8211290247464194e+06 +1.1075533763752708e+08 
+5.9999999999999998e-01 -1.0343416493282291e+00 +2.2735301482254400e+00 +1.9451284366249993e+01 +5.3824753497042673e+02 -6.2372464531984542e+03 -2.9104627059309734e+06 +1.0100997311635788e+08 
+6.9999999999999996e-01 -1.0343415148906905e+00 +2.2729938205747611e+00 +1.9401394529657914e+01 +5.5253586985990489e+02 -4.4717855469304723e+03 -2.9908613483473002e+06 +9.1150336618198961e+07 
+7.9999999999999993e-01 -1.0343414112721776e+00 +2.2725021107995249e+00 +1.9352907366661782e+01 +5.6536724662610777e+02 -2.6997501402856819e+03 -3.0627899021145334e+06 +8.1187195668746203e+07 
+8.9999999999999991e-01 -1.0343413333588920e+00 +2.2720522858475696e+00 +1.9305501431966935e+01 +5.7682489146657599e+02 -9.2053870022362207e+02 -3.1267133156018467e+06 +7.1131321162493706e+07 
+9.9999999999999989e-01 -1.0343412760373150e+00 +2.2716416126659742e+00 +1.9258855319007758e+01 +5.8699203058171486e+02 +8.6644959514332913e+02 -3.1830965374442246e+06 +6.0993487180238202e+07 
+1.0999999999999999e+00 -1.0343412341942029e+00 +2.2712673582277936e+00 +1.9212647658653808e+01 +5.9595188952116314e+02 +2.6618148744106270e+03 -3.2324045133041474e+06 +5.0784470945736229e+07 
+1.2000000000000000e+00 -1.0343412027165331e+00 +2.2709267895272869e+00 +1.9166557113613973e+01 +6.0378769344973011e+02 +4.4661566563864617e+03 -3.2751021879929276e+06 +4.0515052518233173e+07 
+1.3000000000000000e+00 -1.0343411764914132e+00 +2.2706171735967504e+00 +1.9120262367065809e+01 +6.1058266680187853e+02 +6.2800740588722838e+03 -3.3116545040898337e+06 +3.0196013839072984e+07 
+1.4000000000000001e+00 -1.0343411504061328e+00 +2.2703357775209483e+00 +1.9073442129751541e+01 +6.1642003296179064e+02 +8.1041656447768401e+03 -3.3425264005754455e+06 +1.9838139544097804e+07 
+1.5000000000000002e+00 -1.0343411193480796e+00 +2.2700798684372767e+00 +1.9025775129503973e+01 +6.2138301440717180e+02 +9.9390296111026328e+03 -3.3681828143070834e+06 +9.4522161127094608e+06 
+1.6000000000000003e+00 -1.0343410782047002e+00 +2.2698467135573432e+00 +1.8976940106980759e+01 +6.2555483219680855e+02 +1.1785263852587843e+04 -3.3890886775812577e+06 -9.5096835961914563e+05 
+1.7000000000000004e+00 -1.0343410218634537e+00 +2.2696335801650864e+00 +1.8926615810097577e+01 +6.2901870616144606e+02 +1.3643466056407095e+04 -3.4057089198476556e+06 -1.1360624560366679e+07 
+1.8000000000000005e+00 -1.0343409452117860e+00 +2.2694377356402433e+00 +1.8874480991076215e+01 +6.3185785434753700e+02 +1.5514233741845148e+04 -3.4185084650444994e+06 -2.1765962076254547e+07 
+1.9000000000000006e+00 -1.0343408431371062e+00 +2.2692564474538925e+00 +1.8820214404611875e+01 +6.3415549325681809e+02 +1.7398164278314198e+04 -3.4279522335160696e+06 -3.2156189412033100e+07 
+2.0000000000000004e+00 -1.0343407105267075e+00 +2.2690869831927496e+00 +1.8763494797035591e+01 +6.3599483730131215e+02 +1.9295855083874230e+04 -3.4345051395313041e+06 -4.2520514887841903e+07 
+2.1000000000000005e+00 -1.0343405422677803e+00 +2.2689266105598924e+00 +1.8704000909393148e+01 +6.3745909887594644e+02 +2.1207903547578404e+04 -3.4386320921697365e+06 -5.2848146193844393e+07 
+2.2000000000000006e+00 -1.0343403332473191e+00 +2.2687725973901598e+00 +1.8641411465777054e+01 +6.3863148804630816e+02 +2.3134907239263324e+04 -3.4407979941150118e+06 -6.3128291333953544e+07 
+2.3000000000000007e+00 -1.0343400783521355e+00 +2.2686222116556443e+00 +1.8575405175318775e+01 +6.3959521253972059e+02 +2.5077463853240628e+04 -3.4414677422474730e+06 -7.3350158276663899e+07 
+2.4000000000000008e+00 -1.0343397724687855e+00 +2.2684727214792599e+00 +1.8505660723424434e+01 +6.4043347744701236e+02 +2.7036171368724823e+04 -3.4411062263990459e+06 -8.3502955685662091e+07 
+2.5000000000000009e+00 -1.0343394104835046e+00 +2.2683213951453620e+00 +1.8431856764476564e+01 +6.4122948509990715e+02 +2.9011628170671047e+04 -3.4401783293322469e+06 -9.3575893416259542e+07 
+2.6000000000000010e+00 -1.0343389885281005e+00 +2.2681658411732566e+00 +1.8353758913864255e+01 +6.4205924151101010e+02 +3.1004280004629607e+04 -3.4391134524858780e+06 -1.0356162658899413e+08 
+2.7000000000000011e+00 -1.0343385076765836e+00 +2.2680050970338002e+00 +1.8271464092079963e+01 +6.4296551479753043e+02 +3.3014319524265949e+04 -3.4381685394341317e+06 -1.1346839308017538e+08 
+2.8000000000000012e+00 -1.0343379702293511e+00 +2.2678385754309849e+00 +1.8185147908059729e+01 +6.4398162255038153e+02 +3.5041971159249289e+04 -3.4375496270374367e+06 -1.2330882009995404e+08 
+2.9000000000000012e+00 -1.0343373784867989e+00 +2.2676656890286893e+00 +1.8094985973881389e+01 +6.4514088380128396e+02 +3.7087459094553051e+04 -3.4374627607219033e+06 -1.3309553281209414e+08 
+3.0000000000000013e+00 -1.0343367347492414e+00 +2.2674858504487658e+00 +1.8001153893862789e+01 +6.4647661909134592e+02 +3.9151007461093744e+04 -3.4381139946843437e+06 -1.4284115516132328e+08 
+3.1000000000000014e+00 -1.0343360413169977e+00 +2.2672984722501526e+00 +1.7903827276582469e+01 +6.4802215102613775e+02 +4.1232840090969607e+04 -3.4397093947703876e+06 -1.5255830863858303e+08 
+3.2000000000000015e+00 -1.0343353004902502e+00 +2.2671029669280389e+00 +1.7803181714946810e+01 +6.4981080427141637e+02 +4.3333180896444886e+04 -3.4424550381598505e+06 -1.6225961405436698e+08 
+3.3000000000000016e+00 -1.0343345145692453e+00 +2.2668987469000599e+00 +1.7699392813182225e+01 +6.5187590588720650e+02 +4.5452253334817360e+04 -3.4465570149230598e+06 -1.7195768890375140e+08 
+3.4000000000000017e+00 -1.0343336858540706e+00 +2.2666852244976443e+00 +1.7592636157379044e+01 +6.5425078554865911e+02 +4.7590280967867708e+04 -3.4522214290066678e+06 -1.8166515000193149e+08 
+3.5000000000000018e+00 -1.0343328166447938e+00 +2.2664618119543789e+00 +1.7483087333167109e+01 +6.5696877584174797e+02 +4.9747487111038186e+04 -3.4596543996399050e+06 -1.9139461174270877e+08 
+3.6000000000000019e+00 -1.0343319092414212e+00 +2.2662279214004237e+00 +1.7370921920623942e+01 +6.6006321236938390e+02 +5.1924094917134011e+04 -3.4690620615830687e+06 -2.0115868643202645e+08 
+3.7000000000000020e+00 -1.0343309659438460e+00 +2.2659829648477627e+00 +1.7256315486247686e+01 +6.6356743414575976e+02 +5.4120327530029295e+04 -3.4806505671242876e+06 -2.1096998499766043e+08 
+3.8000000000000020e+00 -1.0343299890518809e+00 +2.2657263541859369e+00 +1.7139443588648653e+01 +6.6751478366292588e+02 +5.6336407953011309e+04 -3.4946260860966421e+06 -2.2084111626797777e+08 
+3.9000000000000021e+00 -1.0343289808653353e+00 +2.2654575011658475e+00 +1.7020481786843455e+01 +6.7193860733254314e+02 +5.8572558887858024e+04 -3.5111948081682269e+06 -2.3078468616907027e+08 
+4.0000000000000018e+00 -1.0343279436838209e+00 +2.2651758173987346e+00 +1.6899605616289239e+01 +6.7687225545790466e+02 +6.0829003178008890e+04 -3.5305629423052655e+06 -2.4081329977123091e+08 
+4.1000000000000014e+00 -1.0343268798069318e+00 +2.2648807143355301e+00 +1.6776990610377460e+01 +6.8234908279297099e+02 +6.3105963393730606e+04 -3.5529367197147859e+06 -2.5093955927006626e+08 
+4.2000000000000011e+00 -1.0343257915341173e+00 +2.2645716032690180e+00 +1.6652812285569141e+01 +6.8840244843905612e+02 +6.5403662098739376e+04 -3.5785223929169890e+06 -2.6117606518361855e+08 
+4.3000000000000007e+00 -1.0343246811647453e+00 +2.2642478953112279e+00 +1.6527246148138278e+01 +6.9506571645498502e+02 +6.7722321714947029e+04 -3.6075262389624421e+06 -2.7153541566025096e+08 
+4.4000000000000004e+00 -1.0343235509980742e+00 +2.2639090013975278e+00 +1.6400467690437925e+01 +7.0237225567889641e+02 +7.0062164585014674e+04 -3.6401545580234774e+06 -2.8203020672422880e+08 
+4.5000000000000000e+00 -1.0343224033332927e+00 +2.2635543323169078e+00 +1.6272652402829671e+01 +7.1035543828955599e+02 +7.2423412616844755e+04 -3.6766136636896990e+06 -2.9267303018323314e+08 
+4.5999999999999996e+00 -1.0343212407225906e+00 +2.2631840611599494e+00 +1.6144116576402421e+01 +7.1902155309536806e+02 +7.4802523901875014e+04 -3.7169563593882103e+06 -3.0345513116590208e+08 
+4.6999999999999993e+00 -1.0343200661020042e+00 +2.2628011385448867e+00 +1.6015610106479990e+01 +7.2827877763431161e+02 +7.7184141772608928e+04 -3.7606900130136427e+06 -3.1429936611861134e+08 
+4.7999999999999989e+00 -1.0343188823498599e+00 +2.2624091540650992e+00 +1.5887960181347085e+01 +7.3801285429552354e+02 +7.9550725531561126e+04 -3.8072001674604090e+06 -3.2511548563923365e+08 
+4.8999999999999986e+00 -1.0343176923450401e+00 +2.2620116973140507e+00 +1.5761994027978638e+01 +7.4810952610734091e+02 +8.1884734471123418e+04 -3.8558723744339128e+06 -3.3581324318391436e+08 
+4.9999999999999982e+00 -1.0343164989669240e+00 +2.2616123578792595e+00 +1.5638538904576649e+01 +7.5845453694137530e+02 +8.4168628039015603e+04 -3.9060921944007785e+06 -3.4630239611042881e+08 
+5.0999999999999979e+00 -1.0343153050954728e+00 +2.2612147253398751e+00 +1.5518422110424535e+01 +7.6893363158926252e+02 +8.6384865692504784e+04 -3.9572451971591520e+06 -3.5649270517331445e+08 
+5.1999999999999975e+00 -1.0343141136113039e+00 +2.2608223892673074e+00 +1.5402470993059390e+01 +7.7943255578160256e+02 +8.8515906806337662e+04 -4.0087169621902839e+06 -3.6629393427317798e+08 
+5.2999999999999972e+00 -1.0343129273956198e+00 +2.2604389392290289e+00 +1.5291512937458331e+01 +7.8983705607478998e+02 +9.0544210930300265e+04 -4.0598930781009258e+06 -3.7561585190165555e+08 
+5.3999999999999968e+00 -1.0343117493303193e+00 +2.2600679647913422e+00 +1.5186375379626073e+01 +8.0003287978100514e+02 +9.2452237563850984e+04 -4.1101591423725621e+06 -3.8436823022756565e+08 
+5.4999999999999964e+00 -1.0343105822979612e+00 +2.2597130555143798e+00 +1.5087885798647093e+01 +8.0990577515248833e+02 +9.4222446365358250e+04 -4.1589007626678552e+06 -3.9246084632283843e+08 
+5.5999999999999961e+00 -1.0343094291818593e+00 +2.2593778009630503e+00 +1.4996871728218288e+01 +8.1934149106655173e+02 +9.5837296968579452e+04 -4.2055035551205892e+06 -3.9980348145930666e+08 
+5.6999999999999957e+00 -1.0343082928660583e+00 +2.2590657906954541e+00 +1.4914160751472696e+01 +8.2822577737439224e+02 +9.7279249128778494e+04 -4.2493531465304242e+06 -4.0630592200397599e+08 
+5.7999999999999954e+00 -1.0343071762353537e+00 +2.2587806142733915e+00 +1.4840580502325789e+01 +8.3644438461902837e+02 +9.8530762742678780e+04 -4.2898351728980942e+06 -4.1187795971417236e+08 
+5.8999999999999950e+00 -1.0343060821753829e+00 +2.2585258612669845e+00 +1.4776958674675340e+01 +8.4388306390499042e+02 +9.9574297717440990e+04 -4.3263352788069379e+06 -4.1642939130111790e+08 
+5.9999999999999947e+00 -1.0343050135725769e+00 +2.2583051212430627e+00 +1.4724123015323309e+01 +8.5042756727544884e+02 +1.0039231415119283e+05 -4.3582391198493661e+06 -4.1987001948934042e+08 
+6.0999999999999943e+00 -1.0343039733142676e+00 +2.2581219837801942e+00 +1.4682901335029619e+01 +8.5596364726808486e+02 +1.0096727216776511e+05 -4.3849323601422859e+06 -4.2210965242203063e+08 
+6.1999999999999940e+00 -1.0343029642886483e+00 +2.2579800384614188e+00 +1.4654121502772419e+01 +8.6037705715369611e+02 +1.0128163207104616e+05 -4.4058006739123110e+06 -4.2305810459491205e+08 
+6.2999999999999936e+00 -1.0343019893847962e+00 +2.2578828748749986e+00 +1.4638611446349019e+01 +8.6355355092456159e+02 +1.0131785437697855e+05 -4.4202297455802113e+06 -4.2262519719317257e+08 
+6.3999999999999932e+00 -1.0343010514927962e+00 +2.2578340826206813e+00 +1.4637199166624383e+01 +8.6537888314122699e+02 +1.0105839958944464e+05 -4.4276052690697759e+06 -4.2072075722979027e+08 
+6.4999999999999929e+00 -1.0343001535033838e+00 +2.2578372510751796e+00 +1.4650712661008136e+01 +8.6573881787691346e+02 +1.0048573018440320e+05 -4.4273130034780689e+06 -4.1725462852549684e+08 
+6.5999999999999925e+00 -1.0342992972888947e+00 +2.2578946555175361e+00 +1.4679637042934690e+01 +8.6456329727144987e+02 +9.9590301053115429e+04 -4.4189906632348532e+06 -4.1217836366440862e+08 
+6.6999999999999922e+00 -1.0342984820695009e+00 +2.2580040255372920e+00 +1.4723385801937539e+01 +8.6193608439129400e+02 +9.8387137600386617e+04 -4.4031450850753505e+06 -4.0557130649317670e+08 
+6.7999999999999918e+00 -1.0342977067327950e+00 +2.2581620909697966e+00 +1.4781172852094585e+01 +8.5797517829118078e+02 +9.6895727959172480e+04 -4.3804745109425783e+06 -3.9753594038490087e+08 
+6.8999999999999915e+00 -1.0342969701655780e+00 +2.2583655815037753e+00 +1.4852211996399282e+01 +8.5279857991358608e+02 +9.5135562011358110e+04 -4.3516771808265476e+06 -3.8817475528825283e+08 
+6.9999999999999911e+00 -1.0342962712535237e+00 +2.2586112267521607e+00 +1.4935716874873487e+01 +8.4652428937523825e+02 +9.3126132512221418e+04 -4.3174513187181503e+06 -3.7759025314505500e+08 
+7.0999999999999908e+00 -1.0342956088812258e+00 +2.2588957562375480e+00 +1.5030900971884350e+01 +8.3927030625736086e+02 +9.0886934917987732e+04 -4.2784951337901689e+06 -3.6588494692467457e+08 
+7.1999999999999904e+00 -1.0342949819321585e+00 +2.2592158993974487e+00 +1.5136977610393142e+01 +8.3115462933941842e+02 +8.8437467481339088e+04 -4.2355068184186136e+06 -3.5316136098796499e+08 
+7.2999999999999901e+00 -1.0342943892885734e+00 +2.2595683855802187e+00 +1.5253159938724425e+01 +8.2229525658022976e+02 +8.5797231481105657e+04 -4.1891845475589358e+06 -3.3952203206636739e+08 
+7.3999999999999897e+00 -1.0342938298315432e+00 +2.2599499440416464e+00 +1.5378660936537404e+01 +8.1281018511059119e+02 +8.2985731088163535e+04 -4.1402264782853094e+06 -3.2506950851614314e+08 
+7.4999999999999893e+00 -1.0342933024408092e+00 +2.2603573039468539e+00 +1.5512693395072048e+01 +8.0281741104561706e+02 +8.0022473722914860e+04 -4.0893307482018555e+06 -3.0990635191461641e+08 
+7.5999999999999890e+00 -1.0342928059948067e+00 +2.2607871943706277e+00 +1.5654469919726903e+01 +7.9243492934455242e+02 +7.6926969986607786e+04 -4.0371954741354771e+06 -2.9413513662693840e+08 
+7.6999999999999886e+00 -1.0342923393705901e+00 +2.2612363442800163e+00 +1.5803202922089511e+01 +7.8178073421235911e+02 +7.3718733786914920e+04 -3.9845187540625622e+06 -2.7785845028170526e+08 
+7.7999999999999883e+00 -1.0342919014438177e+00 +2.2617014825502713e+00 +1.5958104616431502e+01 +7.7097281849636795e+02 +7.0417282390060514e+04 -3.9319986630788608e+06 -2.6117889392162582e+08 
+7.8999999999999879e+00 -1.0342914910886563e+00 +2.2621793379563164e+00 +1.6118387007504367e+01 +7.6012917381706495e+02 +6.7042136635598872e+04 -3.8803332537077963e+06 -2.4419908292858094e+08 
+7.9999999999999876e+00 -1.0342911071777920e+00 +2.2626666391669206e+00 +1.6283261893484198e+01 +7.4936779061188190e+02 +6.3612820848668140e+04 -3.8302205556794545e+06 -2.2702164646446645e+08 
+8.0999999999999872e+00 -1.0342907485823025e+00 +2.2631601147497413e+00 +1.6451940847654704e+01 +7.3880665787113526e+02 +6.0148863181479093e+04 -3.7823585739488164e+06 -2.0974922902535003e+08 
+8.1999999999999869e+00 -1.0342904141717202e+00 +2.2636564931634466e+00 +1.6623635227793123e+01 +7.2856376323536642e+02 +5.6669795404392658e+04 -3.7374452887561824e+06 -1.9248448930804673e+08 
+8.2999999999999865e+00 -1.0342901028139073e+00 +2.2641525027617684e+00 +1.6797556159363317e+01 +7.1875709274633857e+02 +5.3195153212700177e+04 -3.6961786536966697e+06 -1.7533010158517289e+08 
+8.3999999999999861e+00 -1.0342898133749838e+00 +2.2646448717820289e+00 +1.6972914527356796e+01 +7.0950463108439260e+02 +4.9744476354056169e+04 -3.6592565967061725e+06 -1.5838875617960522e+08 
+8.4999999999999858e+00 -1.0342895447195488e+00 +2.2651303286371447e+00 +1.7148921034833752e+01 +7.0092434842230352e+02 +4.6337306696937383e+04 -3.6273769367768974e+06 -1.4176314804745546e+08 
+8.5999999999999854e+00 -1.0342892952341940e+00 +2.2656061638058462e+00 +1.7324866039611418e+01 +6.9310502542152415e+02 +4.2989811230273684e+04 -3.6010467234329600e+06 -1.2553562473685901e+08 
+8.6999999999999851e+00 -1.0342890610267548e+00 +2.2660713826036476e+00 +1.7500255050993736e+01 +6.8604087957387321e+02 +3.9708463668942153e+04 -3.5801415695216185e+06 -1.0973054327753603e+08 
+8.7999999999999847e+00 -1.0342888375555743e+00 +2.2665253195360138e+00 +1.7674626187198982e+01 +6.7970643896773595e+02 +3.6498110017414299e+04 -3.5644015739026046e+06 -9.4362733779692084e+07 
+8.8999999999999844e+00 -1.0342886202793242e+00 +2.2669673094718550e+00 +1.7847517691609475e+01 +6.7407622142803507e+02 +3.3363593393706440e+04 -3.5535667736073150e+06 -7.9447011963883311e+07 
+8.9999999999999840e+00 -1.0342884046570151e+00 +2.2673966875931981e+00 +1.8018467940649476e+01 +6.6912473750632432e+02 +3.0309753670793449e+04 -3.5473771688123313e+06 -6.4998176456614502e+07 
+9.0999999999999837e+00 -1.0342881861479694e+00 +2.2678127894123428e+00 +1.8187015444937654e+01 +6.6482649007741020e+02 +2.7341427422170411e+04 -3.5455727207798916e+06 -5.1031008453582928e+07 
+9.1999999999999833e+00 -1.0342879602119044e+00 +2.2682149507693898e+00 +1.8352698861118931e+01 +6.6115597445840638e+02 +2.4463447681939477e+04 -3.5478933527171165e+06 -3.7560270548966616e+07 
+9.2999999999999829e+00 -1.0342877223089246e+00 +2.2686025078505874e+00 +1.8515056994950076e+01 +6.5808767797127950e+02 +2.1680643862183537e+04 -3.5540789475165415e+06 -2.4600706292509157e+07 
+9.3999999999999826e+00 -1.0342874678995411e+00 +2.2689747971930676e+00 +1.8673628805974232e+01 +6.5559607988299558e+02 +1.8997841636754110e+04 -3.5638693476663106e+06 -1.2167039568169376e+07 
+9.4999999999999822e+00 -1.0342871924446344e+00 +2.2693311557039659e+00 +1.8827953406334125e+01 +6.5365565091050735e+02 +1.6419862949552844e+04 -3.5770043525554282e+06 -2.7397461422934948e+05 
+9.5999999999999819e+00 -1.0342868914055912e+00 +2.2696709206587626e+00 +1.8977570080686405e+01 +6.5224085335794177e+02 +1.3951525606279611e+04 -3.5932237195513695e+06 +1.1063805993840449e+07 
+9.6999999999999815e+00 -1.0342865602441789e+00 +2.2699934297126085e+00 +1.9122018273296874e+01 +6.5132614086355318e+02 +1.1597643502495786e+04 -3.6122671627765251e+06 +2.1831640289112680e+07 
+9.7999999999999812e+00 -1.0342861944226813e+00 +2.2702980209196530e+00 +1.9260837607996965e+01 +6.5088595790056502e+02 +9.3630262185480569e+03 -3.6338743503912226e+06 +3.2014888901749302e+07 
+9.8999999999999808e+00 -1.0342857894038189e+00 +2.2705840327336198e+00 +1.9393567881279154e+01 +6.5089473985650591e+02 +7.2524791332196919e+03 -3.6577849053715859e+06 +4.1598934550383635e+07 
+9.9999999999999805e+00 -1.0342853406508521e+00 +2.2708508040182154e+00 +1.9519749078588138e+01 +6.5132691278701168e+02 +5.2708030808827571e+03 -3.6837384042451968e+06 +5.0569183755621746e+07 
+1.0099999999999980e+01 -1.0342848436275152e+00 +2.2710976740595998e+00 +1.9638921367773460e+01 +6.5215689315761017e+02 +3.4227944710815477e+03 -3.7114743759199972e+06 +5.8911066267214797e+07 
