# trajectory
# s[mm] rx[mm] ry[mm] rz[mm] px[rad] py[rad] pz[rad]
0.0000000000000000e+00 +9.1013000000000002e+00 +0.0000000000000000e+00 +0.0000000000000000e+00 +0.0000000000000000e+00 +0.0000000000000000e+00 +1.0000000000000000e+00
1.0000000000000001e-01 +9.1012994837771384e+00 +0.0000000000000000e+00 +9.9999999998223441e-02 -1.0324463349531117e-05 +0.0000000000000000e+00 +9.9999999994670274e-01
2.0000000000000001e-01 +9.1012979351061052e+00 +0.0000000000000000e+00 +1.9999999998578738e-01 -2.0648963411385946e-05 +0.0000000000000000e+00 +9.9999999978681020e-01
3.0000000000000004e-01 +9.1012953539832342e+00 +0.0000000000000000e+00 +2.9999999995203225e-01 -3.0973500116939747e-05 +0.0000000000000000e+00 +9.9999999952032115e-01
4.0000000000000002e-01 +9.1012917404048643e+00 +0.0000000000000000e+00 +3.9999999988629831e-01 -4.1298073373688408e-05 +0.0000000000000000e+00 +9.9999999914723459e-01
5.0000000000000000e-01 +9.1012870943673452e+00 +0.0000000000000000e+00 +4.9999999977792581e-01 -5.1622683065250224e-05 +0.0000000000000000e+00 +9.9999999866754929e-01
5.9999999999999998e-01 +9.1012814158670405e+00 +0.0000000000000000e+00 +5.9999999961625483e-01 -6.1947329051343608e-05 +0.0000000000000000e+00 +9.9999999808126416e-01
6.9999999999999996e-01 +9.1012747049003302e+00 +0.0000000000000000e+00 +6.9999999939062529e-01 -7.2272011167521676e-05 +0.0000000000000000e+00 +9.9999999738837819e-01
7.9999999999999993e-01 +9.1012669614636099e+00 +0.0000000000000000e+00 +7.9999999909037711e-01 -8.2596729224905890e-05 +0.0000000000000000e+00 +9.9999999658889016e-01
8.9999999999999991e-01 +9.1012581855532950e+00 +0.0000000000000000e+00 +8.9999999870484992e-01 -9.2921483010161883e-05 +0.0000000000000000e+00 +9.9999999568279896e-01
9.9999999999999989e-01 +9.1012483771658257e+00 +0.0000000000000000e+00 +9.9999999822338337e-01 -1.0324627228549903e-04 +0.0000000000000000e+00 +9.9999999467010359e-01
1.0999999999999999e+00 +9.1012375362976652e+00 +0.0000000000000000e+00 +1.0999999976353170e+00 -1.1357109678866962e-04 +0.0000000000000000e+00 +9.9999999355080293e-01
1.2000000000000000e+00 +9.1012256629453034e+00 +0.0000000000000000e+00 +1.1999999969299904e+00 -1.2389595623296738e-04 +0.0000000000000000e+00 +9.9999999232489600e-01
1.3000000000000000e+00 +9.1012127571052641e+00 +0.0000000000000000e+00 +1.2999999960967425e+00 -1.3422085030722556e-04 +0.0000000000000000e+00 +9.9999999099238168e-01
1.4000000000000001e+00 +9.1011988187740993e+00 +0.0000000000000000e+00 +1.3999999951249129e+00 -1.4454577867581455e-04 +0.0000000000000000e+00 +9.9999998955325897e-01
1.5000000000000002e+00 +9.1011838479483984e+00 +0.0000000000000000e+00 +1.4999999940038407e+00 -1.5487074097863887e-04 +0.0000000000000000e+00 +9.9999998800752676e-01
1.6000000000000003e+00 +9.1011678446247863e+00 +0.0000000000000000e+00 +1.5999999927228645e+00 -1.6519573683113374e-04 +0.0000000000000000e+00 +9.9999998635518417e-01
1.7000000000000004e+00 +9.1011508087999271e+00 +0.0000000000000000e+00 +1.6999999912713237e+00 -1.7552076582426110e-04 +0.0000000000000000e+00 +9.9999998459623030e-01
1.8000000000000005e+00 +9.1011327404705309e+00 +0.0000000000000000e+00 +1.7999999896385568e+00 -1.8584582752450521e-04 +0.0000000000000000e+00 +9.9999998273066404e-01
1.9000000000000006e+00 +9.1011136396333470e+00 +0.0000000000000000e+00 +1.8999999878139027e+00 -1.9617092147386760e-04 +0.0000000000000000e+00 +9.9999998075848462e-01
2.0000000000000004e+00 +9.1010935062851761e+00 +0.0000000000000000e+00 +1.9999999857866999e+00 -2.0649604718986153e-04 +0.0000000000000000e+00 +9.9999997867969104e-01
2.1000000000000005e+00 +9.1010723404228671e+00 +0.0000000000000000e+00 +2.0999999835462870e+00 -2.1682120416550611e-04 +0.0000000000000000e+00 +9.9999997649428241e-01
2.2000000000000006e+00 +9.1010501420433183e+00 +0.0000000000000000e+00 +2.1999999810820023e+00 -2.2714639186931966e-04 +0.0000000000000000e+00 +9.9999997420225795e-01
2.3000000000000007e+00 +9.1010269111434869e+00 +0.0000000000000000e+00 +2.2999999783831844e+00 -2.3747160974531276e-04 +0.0000000000000000e+00 +9.9999997180361688e-01
2.4000000000000008e+00 +9.1010026477203834e+00 +0.0000000000000000e+00 +2.3999999754391714e+00 -2.4779685721298066e-04 +0.0000000000000000e+00 +9.9999996929835833e-01
2.5000000000000009e+00 +9.1009773517710784e+00 +0.0000000000000000e+00 +2.4999999722393018e+00 -2.5812213366729534e-04 +0.0000000000000000e+00 +9.9999996668648150e-01
2.6000000000000010e+00 +9.1009510232927049e+00 +0.0000000000000000e+00 +2.5999999687729138e+00 -2.6844743847805394e-04 +0.0000000000000000e+00 +9.9999996396798574e-01
2.7000000000000011e+00 +9.1009236622824599e+00 +0.0000000000000000e+00 +2.6999999650293454e+00 -2.7877277098280038e-04 +0.0000000000000000e+00 +9.9999996114287037e-01
2.8000000000000012e+00 +9.1008952687376095e+00 +0.0000000000000000e+00 +2.7999999609979342e+00 -2.8909813047975477e-04 +0.0000000000000000e+00 +9.9999995821113463e-01
2.9000000000000012e+00 +9.1008658426554891e+00 +0.0000000000000000e+00 +2.8999999566680184e+00 -2.9942351622717672e-04 +0.0000000000000000e+00 +9.9999995517277795e-01
3.0000000000000013e+00 +9.1008353840335143e+00 +0.0000000000000000e+00 +2.9999999520289355e+00 -3.0974892744337274e-04 +0.0000000000000000e+00 +9.9999995202779979e-01
3.1000000000000014e+00 +9.1008038928691786e+00 +0.0000000000000000e+00 +3.0999999470700241e+00 -3.2007436330670416e-04 +0.0000000000000000e+00 +9.9999994877619958e-01
3.2000000000000015e+00 +9.1007713691600607e+00 +0.0000000000000000e+00 +3.1999999417806215e+00 -3.3039982295559651e-04 +0.0000000000000000e+00 +9.9999994541797688e-01
3.3000000000000016e+00 +9.1007378129038248e+00 +0.0000000000000000e+00 +3.2999999361500656e+00 -3.4072530548854933e-04 +0.0000000000000000e+00 +9.9999994195313124e-01
3.4000000000000017e+00 +9.1007032240982308e+00 +0.0000000000000000e+00 +3.3999999301676938e+00 -3.5105080996414723e-04 +0.0000000000000000e+00 +9.9999993838166235e-01
3.5000000000000018e+00 +9.1006676027411331e+00 +0.0000000000000000e+00 +3.4999999238228439e+00 -3.6137633540107177e-04 +0.0000000000000000e+00 +9.9999993470356985e-01
3.6000000000000019e+00 +9.1006309488304851e+00 +0.0000000000000000e+00 +3.5999999171048533e+00 -3.7170188077811412e-04 +0.0000000000000000e+00 +9.9999993091885342e-01
3.7000000000000020e+00 +9.1005932623643471e+00 +0.0000000000000000e+00 +3.6999999100030601e+00 -3.8202744503418892e-04 +0.0000000000000000e+00 +9.9999992702751284e-01
3.8000000000000020e+00 +9.1005545433408859e+00 +0.0000000000000000e+00 +3.7999999025068014e+00 -3.9235302706834883e-04 +0.0000000000000000e+00 +9.9999992302954799e-01
3.9000000000000021e+00 +9.1005147917583784e+00 +0.0000000000000000e+00 +3.8999998946054153e+00 -4.0267862573979999e-04 +0.0000000000000000e+00 +9.9999991892495876e-01
4.0000000000000018e+00 +9.1004740076152224e+00 +0.0000000000000000e+00 +3.9999998862882391e+00 -4.1300423986791868e-04 +0.0000000000000000e+00 +9.9999991471374516e-01
4.1000000000000014e+00 +9.1004321909099311e+00 +0.0000000000000000e+00 +4.0999998775446098e+00 -4.2332986823226848e-04 +0.0000000000000000e+00 +9.9999991039590719e-01
4.2000000000000011e+00 +9.1003893416411437e+00 +0.0000000000000000e+00 +4.1999998683638662e+00 -4.3365550957261877e-04 +0.0000000000000000e+00 +9.9999990597144495e-01
4.3000000000000007e+00 +9.1003454598076274e+00 +0.0000000000000000e+00 +4.2999998587353447e+00 -4.4398116258896375e-04 +0.0000000000000000e+00 +9.9999990144035866e-01
4.4000000000000004e+00 +9.1003005454082810e+00 +0.0000000000000000e+00 +4.3999998486483838e+00 -4.5430682594154283e-04 +0.0000000000000000e+00 +9.9999989680264856e-01
4.5000000000000000e+00 +9.1002545984421399e+00 +0.0000000000000000e+00 +4.4999998380923207e+00 -4.6463249825086145e-04 +0.0000000000000000e+00 +9.9999989205831485e-01
4.5999999999999996e+00 +9.1002076189083798e+00 +0.0000000000000000e+00 +4.5999998270564930e+00 -4.7495817810200123e-04 +0.0000000000000000e+00 +9.9999988720735811e-01
4.6999999999999993e+00 +9.1001596068063151e+00 +0.0000000000000000e+00 +4.6999998155302380e+00 -4.8528386409180737e-04 +0.0000000000000000e+00 +9.9999988224977865e-01
4.7999999999999989e+00 +9.1001105621354004e+00 +0.0000000000000000e+00 +4.7999998035028941e+00 -4.9560955487605661e-04 +0.0000000000000000e+00 +9.9999987718557692e-01
4.8999999999999986e+00 +9.1000604848952218e+00 +0.0000000000000000e+00 +4.8999997909637996e+00 -5.0593524917373319e-04 +0.0000000000000000e+00 +9.9999987201475349e-01
4.9999999999999982e+00 +9.1000093750854898e+00 +0.0000000000000000e+00 +4.9999997779022909e+00 -5.1626094576701445e-04 +0.0000000000000000e+00 +9.9999986673730890e-01
5.0999999999999979e+00 +9.0999572327060321e+00 +0.0000000000000000e+00 +5.0999997643077073e+00 -5.2658664350125587e-04 +0.0000000000000000e+00 +9.9999986135324370e-01
5.1999999999999975e+00 +9.0999040577567882e+00 +0.0000000000000000e+00 +5.1999997501693862e+00 -5.3691234128497485e-04 +0.0000000000000000e+00 +9.9999985586255835e-01
5.2999999999999972e+00 +9.0998498502378080e+00 +0.0000000000000000e+00 +5.2999997354766650e+00 -5.4723803808983350e-04 +0.0000000000000000e+00 +9.9999985026525351e-01
5.3999999999999968e+00 +9.0997946101492353e+00 +0.0000000000000000e+00 +5.3999997202188830e+00 -5.5756373295062062e-04 +0.0000000000000000e+00 +9.9999984456132962e-01
5.4999999999999964e+00 +9.0997383374913117e+00 +0.0000000000000000e+00 +5.4999997043853774e+00 -5.6788942496523241e-04 +0.0000000000000000e+00 +9.9999983875078735e-01
5.5999999999999961e+00 +9.0996810322643640e+00 +0.0000000000000000e+00 +5.5999996879654867e+00 -5.7821511329465228e-04 +0.0000000000000000e+00 +9.9999983283362726e-01
5.6999999999999957e+00 +9.0996226944688008e+00 +0.0000000000000000e+00 +5.6999996709485492e+00 -5.8854079716292955e-04 +0.0000000000000000e+00 +9.9999982680984989e-01
5.7999999999999954e+00 +9.0995633241051035e+00 +0.0000000000000000e+00 +5.7999996533239031e+00 -5.9886647585715715e-04 +0.0000000000000000e+00 +9.9999982067945581e-01
5.8999999999999950e+00 +9.0995029211738228e+00 +0.0000000000000000e+00 +5.8999996350808868e+00 -6.0919214872744859e-04 +0.0000000000000000e+00 +9.9999981444244557e-01
5.9999999999999947e+00 +9.0994414856755714e+00 +0.0000000000000000e+00 +5.9999996162088385e+00 -6.1951781518691329e-04 +0.0000000000000000e+00 +9.9999980809881972e-01
6.0999999999999943e+00 +9.0993790176110174e+00 +0.0000000000000000e+00 +6.0999995966970966e+00 -6.2984347471163171e-04 +0.0000000000000000e+00 +9.9999980164857882e-01
6.1999999999999940e+00 +9.0993155169808766e+00 +0.0000000000000000e+00 +6.1999995765350002e+00 -6.4016912684062850e-04 +0.0000000000000000e+00 +9.9999979509172332e-01
6.2999999999999936e+00 +9.0992509837859092e+00 +0.0000000000000000e+00 +6.2999995557118877e+00 -6.5049477117584567e-04 +0.0000000000000000e+00 +9.9999978842825377e-01
6.3999999999999932e+00 +9.0991854180269129e+00 +0.0000000000000000e+00 +6.3999995342170974e+00 -6.6082040738211383e-04 +0.0000000000000000e+00 +9.9999978165817061e-01
6.4999999999999929e+00 +9.0991188197047137e+00 +0.0000000000000000e+00 +6.4999995120399685e+00 -6.7114603518712303e-04 +0.0000000000000000e+00 +9.9999977478147417e-01
6.5999999999999925e+00 +9.0990511888201624e+00 +0.0000000000000000e+00 +6.5999994891698393e+00 -6.8147165438315878e-04 +0.0000000000000000e+00 +9.9999976779816502e-01
6.6999999999999922e+00 +9.0989825253741277e+00 +0.0000000000000000e+00 +6.6999994655960480e+00 -6.9179726484650916e-04 +0.0000000000000000e+00 +9.9999976070824337e-01
6.7999999999999918e+00 +9.0989128293674852e+00 +0.0000000000000000e+00 +6.7999994413079339e+00 -7.0212286655689353e-04 +0.0000000000000000e+00 +9.9999975351170955e-01
6.8999999999999915e+00 +9.0988421008011056e+00 +0.0000000000000000e+00 +6.8999994162948362e+00 -7.1244845959923721e-04 +0.0000000000000000e+00 +9.9999974620856380e-01
6.9999999999999911e+00 +9.0987703396758484e+00 +0.0000000000000000e+00 +6.9999993905460931e+00 -7.2277404416368088e-04 +0.0000000000000000e+00 +9.9999973879880621e-01
7.0999999999999908e+00 +9.0986975459925468e+00 +0.0000000000000000e+00 +7.0999993640510439e+00 -7.3309962054559014e-04 +0.0000000000000000e+00 +9.9999973128243691e-01
7.1999999999999904e+00 +9.0986237197520001e+00 +0.0000000000000000e+00 +7.1999993367990269e+00 -7.4342518914556578e-04 +0.0000000000000000e+00 +9.9999972365945577e-01
7.2999999999999901e+00 +9.0985488609549616e+00 +0.0000000000000000e+00 +7.2999993087793813e+00 -7.5375075046945478e-04 +0.0000000000000000e+00 +9.9999971592986259e-01
7.3999999999999897e+00 +9.0984729696021294e+00 +0.0000000000000000e+00 +7.3999992799814454e+00 -7.6407630512836141e-04 +0.0000000000000000e+00 +9.9999970809365724e-01
7.4999999999999893e+00 +9.0983960456941340e+00 +0.0000000000000000e+00 +7.4999992503945583e+00 -7.7440185383865893e-04 +0.0000000000000000e+00 +9.9999970015083928e-01
7.5999999999999890e+00 +9.0983180892315314e+00 +0.0000000000000000e+00 +7.5999992200080593e+00 -7.8472739742200203e-04 +0.0000000000000000e+00 +9.9999969210140827e-01
7.6999999999999886e+00 +9.0982391002147889e+00 +0.0000000000000000e+00 +7.6999991888112866e+00 -7.9505293680533966e-04 +0.0000000000000000e+00 +9.9999968394536365e-01
7.7999999999999883e+00 +9.0981590786442759e+00 +0.0000000000000000e+00 +7.7999991567935787e+00 -8.0537847302092824e-04 +0.0000000000000000e+00 +9.9999967568270476e-01
7.8999999999999879e+00 +9.0980780245202535e+00 +0.0000000000000000e+00 +7.8999991239442737e+00 -8.1570400720634576e-04 +0.0000000000000000e+00 +9.9999966731343071e-01
7.9999999999999876e+00 +9.0979959378428621e+00 +0.0000000000000000e+00 +7.9999990902527109e+00 -8.2602954060450565e-04 +0.0000000000000000e+00 +9.9999965883754061e-01
8.0999999999999872e+00 +9.0979128186121141e+00 +0.0000000000000000e+00 +8.0999990557082278e+00 -8.3635507456367218e-04 +0.0000000000000000e+00 +9.9999965025503323e-01
8.1999999999999869e+00 +9.0978286668278816e+00 +0.0000000000000000e+00 +8.1999990203001634e+00 -8.4668061053747533e-04 +0.0000000000000000e+00 +9.9999964156590737e-01
8.2999999999999865e+00 +9.0977434824898875e+00 +0.0000000000000000e+00 +8.2999989840178561e+00 -8.5700615008492702e-04 +0.0000000000000000e+00 +9.9999963277016168e-01
8.3999999999999861e+00 +9.0976572655976913e+00 +0.0000000000000000e+00 +8.3999989468506424e+00 -8.6733169487043728e-04 +0.0000000000000000e+00 +9.9999962386779451e-01
8.4999999999999858e+00 +9.0975700161506801e+00 +0.0000000000000000e+00 +8.4999989087878607e+00 -8.7765724666383140e-04 +0.0000000000000000e+00 +9.9999961485880418e-01
8.5999999999999854e+00 +9.0974817341480616e+00 +0.0000000000000000e+00 +8.5999988698188492e+00 -8.8798280732968124e-04 +0.0000000000000000e+00 +9.9999960574318891e-01
8.6999999999999851e+00 +9.0973924195888554e+00 +0.0000000000000000e+00 +8.6999988299329445e+00 -8.9830837870977687e-04 +0.0000000000000000e+00 +9.9999959652094661e-01
8.7999999999999847e+00 +9.0973020724719049e+00 +0.0000000000000000e+00 +8.7999987891194849e+00 -9.0863396250558755e-04 +0.0000000000000000e+00 +9.9999958719207549e-01
8.8999999999999844e+00 +9.0972106927958887e+00 +0.0000000000000000e+00 +8.8999987473678051e+00 -9.1895956026758147e-04 +0.0000000000000000e+00 +9.9999957775657378e-01
8.9999999999999840e+00 +9.0971182805593394e+00 +0.0000000000000000e+00 +8.9999987046672452e+00 -9.2928517339523140e-04 +0.0000000000000000e+00 +9.9999956821443969e-01
9.0999999999999837e+00 +9.0970248357606565e+00 +0.0000000000000000e+00 +9.0999986610071399e+00 -9.3961080313702066e-04 +0.0000000000000000e+00 +9.9999955856567158e-01
9.1999999999999833e+00 +9.0969303583981223e+00 +0.0000000000000000e+00 +9.1999986163768259e+00 -9.4993645059044925e-04 +0.0000000000000000e+00 +9.9999954881026787e-01
9.2999999999999829e+00 +9.0968348484699160e+00 +0.0000000000000000e+00 +9.2999985707656396e+00 -9.6026211670204010e-04 +0.0000000000000000e+00 +9.9999953894822702e-01
9.3999999999999826e+00 +9.0967383059741334e+00 +0.0000000000000000e+00 +9.3999985241629176e+00 -9.7058780226734552e-04 +0.0000000000000000e+00 +9.9999952897954780e-01
9.4999999999999822e+00 +9.0966407309087938e+00 +0.0000000000000000e+00 +9.4999984765579946e+00 -9.8091350793095373e-04 +0.0000000000000000e+00 +9.9999951890422889e-01
9.5999999999999819e+00 +9.0965421232718615e+00 +0.0000000000000000e+00 +9.5999984279402089e+00 -9.9123923418649516e-04 +0.0000000000000000e+00 +9.9999950872226928e-01
9.6999999999999815e+00 +9.0964424830612582e+00 +0.0000000000000000e+00 +9.6999983782988952e+00 -1.0015649813766500e-03 +0.0000000000000000e+00 +9.9999949843366787e-01
9.7999999999999812e+00 +9.0963418102748808e+00 +0.0000000000000000e+00 +9.7999983276233884e+00 -1.0118907496931547e-03 +0.0000000000000000e+00 +9.9999948803842387e-01
9.8999999999999808e+00 +9.0962401049106134e+00 +0.0000000000000000e+00 +9.8999982759030249e+00 -1.0222165391768087e-03 +0.0000000000000000e+00 +9.9999947753653662e-01
9.9999999999999805e+00 +9.0961373669663441e+00 +0.0000000000000000e+00 +9.9999982231271414e+00 -1.0325423497174828e-03 +0.0000000000000000e+00 +9.9999946692800556e-01
1.0099999999999980e+01 +9.0960335964399768e+00 +0.0000000000000000e+00 +1.0099998169285072e+01 -1.0428681810541254e-03 +0.0000000000000000e+00 +9.9999945621283026e-01
1.0199999999999980e+01 +9.0959287933294526e+00 +0.0000000000000000e+00 +1.0199998114366153e+01 -1.0531940327747707e-03 +0.0000000000000000e+00 +9.9999944539101049e-01
1.0299999999999979e+01 +9.0958229576327607e+00 +0.0000000000000000e+00 +1.0299998058359719e+01 -1.0635199043165461e-03 +0.0000000000000000e+00 +9.9999943446254624e-01
1.0399999999999979e+01 +9.0957160893479525e+00 +0.0000000000000000e+00 +1.0399998001255106e+01 -1.0738457949656802e-03 +0.0000000000000000e+00 +9.9999942342743775e-01
1.0499999999999979e+01 +9.0956081884731592e+00 +0.0000000000000000e+00 +1.0499997943041651e+01 -1.0841717038575106e-03 +0.0000000000000000e+00 +9.9999941228568523e-01
1.0599999999999978e+01 +9.0954992550066063e+00 +0.0000000000000000e+00 +1.0599997883708689e+01 -1.0944976299857485e-03 +0.0000000000000000e+00 +9.9999940103728924e-01
1.0699999999999978e+01 +9.0953892889466221e+00 +0.0000000000000000e+00 +1.0699997823245555e+01 -1.1048235723043068e-03 +0.0000000000000000e+00 +9.9999938968225044e-01
1.0799999999999978e+01 +9.0952782902916383e+00 +0.0000000000000000e+00 +1.0799997761641585e+01 -1.1151495298291096e-03 +0.0000000000000000e+00 +9.9999937822056939e-01
1.0899999999999977e+01 +9.0951662590401803e+00 +0.0000000000000000e+00 +1.0899997698886114e+01 -1.1254755016473186e-03 +0.0000000000000000e+00 +9.9999936665224665e-01
1.0999999999999977e+01 +9.0950531951908609e+00 +0.0000000000000000e+00 +1.0999997634968480e+01 -1.1358014869172998e-03 +0.0000000000000000e+00 +9.9999935497728276e-01
1.1099999999999977e+01 +9.0949390987423744e+00 +0.0000000000000000e+00 +1.1099997569878017e+01 -1.1461274848685882e-03 +0.0000000000000000e+00 +9.9999934319567818e-01
1.1199999999999976e+01 +9.0948239696934881e+00 +0.0000000000000000e+00 +1.1199997503604061e+01 -1.1564534948018540e-03 +0.0000000000000000e+00 +9.9999933130743324e-01
1.1299999999999976e+01 +9.0947078080430366e+00 +0.0000000000000000e+00 +1.1299997436135950e+01 -1.1667795160888652e-03 +0.0000000000000000e+00 +9.9999931931254837e-01
1.1399999999999975e+01 +9.0945906137899115e+00 +0.0000000000000000e+00 +1.1399997367463017e+01 -1.1771055481724520e-03 +0.0000000000000000e+00 +9.9999930721102392e-01
1.1499999999999975e+01 +9.0944723869330595e+00 +0.0000000000000000e+00 +1.1499997297574600e+01 -1.1874315905664691e-03 +0.0000000000000000e+00 +9.9999929500286000e-01
1.1599999999999975e+01 +9.0943531274714697e+00 +0.0000000000000000e+00 +1.1599997226460035e+01 -1.1977576428557567e-03 +0.0000000000000000e+00 +9.9999928268805682e-01
1.1699999999999974e+01 +9.0942328354041706e+00 +0.0000000000000000e+00 +1.1699997154108656e+01 -1.2080837046961022e-03 +0.0000000000000000e+00 +9.9999927026661461e-01
1.1799999999999974e+01 +9.0941115107302206e+00 +0.0000000000000000e+00 +1.1799997080509803e+01 -1.2184097758141995e-03 +0.0000000000000000e+00 +9.9999925773853326e-01
