# trajectory
# s[mm] rx[mm] ry[mm] rz[mm] px[rad] py[rad] pz[rad]
0.0000000000000000e+00 +9.1013000000000002e+00 +0.0000000000000000e+00 +0.0000000000000000e+00 +0.0000000000000000e+00 +0.0000000000000000e+00 +1.0000000000000000e+00
1.0000000000000001e-01 +9.1012994833676046e+00 +0.0000000000000000e+00 +9.9999999998220609e-02 -1.0332653652621037e-05 +0.0000000000000000e+00 +9.9999999994661815e-01
2.0000000000000001e-01 +9.1012979334681283e+00 +0.0000000000000000e+00 +1.9999999998576484e-01 -2.0665341515686932e-05 +0.0000000000000000e+00 +9.9999999978647180e-01
3.0000000000000004e-01 +9.1012953502981784e+00 +0.0000000000000000e+00 +2.9999999995195614e-01 -3.0998063032125299e-05 +0.0000000000000000e+00 +9.9999999951955998e-01
4.0000000000000002e-01 +9.1012917338544188e+00 +0.0000000000000000e+00 +3.9999999988611795e-01 -4.1330817624419116e-05 +0.0000000000000000e+00 +9.9999999914588167e-01
5.0000000000000000e-01 +9.1012870841335705e+00 +0.0000000000000000e+00 +4.9999999977757359e-01 -5.1663604694607134e-05 +0.0000000000000000e+00 +9.9999999866543587e-01
5.9999999999999998e-01 +9.1012814011324181e+00 +0.0000000000000000e+00 +5.9999999961564621e-01 -6.1996423624316297e-05 +0.0000000000000000e+00 +9.9999999807822160e-01
6.9999999999999996e-01 +9.1012746848478052e+00 +0.0000000000000000e+00 +6.9999999938965896e-01 -7.2329273775110836e-05 +0.0000000000000000e+00 +9.9999999738423795e-01
7.9999999999999993e-01 +9.1012669352766444e+00 +0.0000000000000000e+00 +7.9999999908893482e-01 -8.2662154488840600e-05 +0.0000000000000000e+00 +9.9999999658348393e-01
8.9999999999999991e-01 +9.1012581524159124e+00 +0.0000000000000000e+00 +8.9999999870279668e-01 -9.2995065087671946e-05 +0.0000000000000000e+00 +9.9999999567595876e-01
9.9999999999999989e-01 +9.1012483362626551e+00 +0.0000000000000000e+00 +9.9999999822056740e-01 -1.0332800487408662e-04 +0.0000000000000000e+00 +9.9999999466166156e-01
1.0999999999999999e+00 +9.1012374868139894e+00 +0.0000000000000000e+00 +1.0999999976315697e+00 -1.1366097313088027e-04 +0.0000000000000000e+00 +9.9999999354059144e-01
1.2000000000000000e+00 +9.1012256040671051e+00 +0.0000000000000000e+00 +1.1999999969251265e+00 -1.2399396912116052e-04 +0.0000000000000000e+00 +9.9999999231274761e-01
1.3000000000000000e+00 +9.1012126880192667e+00 +0.0000000000000000e+00 +1.2999999960905602e+00 -1.3432699208834465e-04 +0.0000000000000000e+00 +9.9999999097812942e-01
1.4000000000000001e+00 +9.1011987386678150e+00 +0.0000000000000000e+00 +1.3999999951171933e+00 -1.4466004125615701e-04 +0.0000000000000000e+00 +9.9999998953673608e-01
1.5000000000000002e+00 +9.1011837560101689e+00 +0.0000000000000000e+00 +1.4999999939943482e+00 -1.5499311582862593e-04 +0.0000000000000000e+00 +9.9999998798856682e-01
1.6000000000000003e+00 +9.1011677400438291e+00 +0.0000000000000000e+00 +1.5999999927113475e+00 -1.6532621499008030e-04 +0.0000000000000000e+00 +9.9999998633362108e-01
1.7000000000000004e+00 +9.1011506907663779e+00 +0.0000000000000000e+00 +1.6999999912575132e+00 -1.7565933790514572e-04 +0.0000000000000000e+00 +9.9999998457189820e-01
1.8000000000000005e+00 +9.1011326081754831e+00 +0.0000000000000000e+00 +1.7999999896221679e+00 -1.8599248371874041e-04 +0.0000000000000000e+00 +9.9999998270339763e-01
1.9000000000000006e+00 +9.1011134922688992e+00 +0.0000000000000000e+00 +1.8999999877946336e+00 -1.9632565155607053e-04 +0.0000000000000000e+00 +9.9999998072811891e-01
2.0000000000000004e+00 +9.1010933430444680e+00 +0.0000000000000000e+00 +1.9999999857642325e+00 -2.0665884052262530e-04 +0.0000000000000000e+00 +9.9999997864606138e-01
2.1000000000000005e+00 +9.1010721605001219e+00 +0.0000000000000000e+00 +2.0999999835202865e+00 -2.1699204970417155e-04 +0.0000000000000000e+00 +9.9999997645722472e-01
2.2000000000000006e+00 +9.1010499446338855e+00 +0.0000000000000000e+00 +2.1999999810521178e+00 -2.2732527816674816e-04 +0.0000000000000000e+00 +9.9999997416160846e-01
2.3000000000000007e+00 +9.1010266954438777e+00 +0.0000000000000000e+00 +2.2999999783490486e+00 -2.3765852495665984e-04 +0.0000000000000000e+00 +9.9999997175921218e-01
2.4000000000000008e+00 +9.1010024129283149e+00 +0.0000000000000000e+00 +2.3999999754004007e+00 -2.4799178910047065e-04 +0.0000000000000000e+00 +9.9999996925003565e-01
2.5000000000000009e+00 +9.1009770970855115e+00 +0.0000000000000000e+00 +2.4999999721954964e+00 -2.5832506960499723e-04 +0.0000000000000000e+00 +9.9999996663407853e-01
2.6000000000000010e+00 +9.1009507479138811e+00 +0.0000000000000000e+00 +2.5999999687236572e+00 -2.6865836545896020e-04 +0.0000000000000000e+00 +9.9999996391134061e-01
2.7000000000000011e+00 +9.1009233654119406e+00 +0.0000000000000000e+00 +2.6999999649742050e+00 -2.7899167565122456e-04 +0.0000000000000000e+00 +9.9999996108182165e-01
2.8000000000000012e+00 +9.1008949495783060e+00 +0.0000000000000000e+00 +2.7999999609364621e+00 -2.8932499918904442e-04 +0.0000000000000000e+00 +9.9999995814552145e-01
2.9000000000000012e+00 +9.1008655004116914e+00 +0.0000000000000000e+00 +2.8999999565997499e+00 -2.9965833509972256e-04 +0.0000000000000000e+00 +9.9999995510244000e-01
3.0000000000000013e+00 +9.1008350179109065e+00 +0.0000000000000000e+00 +2.9999999519533906e+00 -3.0999168243061177e-04 +0.0000000000000000e+00 +9.9999995195257718e-01
3.1000000000000014e+00 +9.1008035020748554e+00 +0.0000000000000000e+00 +3.0999999469867059e+00 -3.2032504024911664e-04 +0.0000000000000000e+00 +9.9999994869593289e-01
3.2000000000000015e+00 +9.1007709529025362e+00 +0.0000000000000000e+00 +3.1999999416890179e+00 -3.3065840764269575e-04 +0.0000000000000000e+00 +9.9999994533250713e-01
3.3000000000000016e+00 +9.1007373703930377e+00 +0.0000000000000000e+00 +3.2999999360496481e+00 -3.4099178371886424e-04 +0.0000000000000000e+00 +9.9999994186229990e-01
3.4000000000000017e+00 +9.1007027545455337e+00 +0.0000000000000000e+00 +3.3999999300579185e+00 -3.5132516760519691e-04 +0.0000000000000000e+00 +9.9999993828531131e-01
3.5000000000000018e+00 +9.1006671053592854e+00 +0.0000000000000000e+00 +3.4999999237031507e+00 -3.6165855844933175e-04 +0.0000000000000000e+00 +9.9999993460154135e-01
3.6000000000000019e+00 +9.1006304228336390e+00 +0.0000000000000000e+00 +3.5999999169746673e+00 -3.7199195541897366e-04 +0.0000000000000000e+00 +9.9999993081099015e-01
3.7000000000000020e+00 +9.1005927069680244e+00 +0.0000000000000000e+00 +3.6999999098617895e+00 -3.8232535770189901e-04 +0.0000000000000000e+00 +9.9999992691365780e-01
3.8000000000000020e+00 +9.1005539577619476e+00 +0.0000000000000000e+00 +3.7999999023538393e+00 -3.9265876450596021e-04 +0.0000000000000000e+00 +9.9999992290954443e-01
3.9000000000000021e+00 +9.1005141752149967e+00 +0.0000000000000000e+00 +3.8999998944401391e+00 -4.0299217505909100e-04 +0.0000000000000000e+00 +9.9999991879865024e-01
4.0000000000000018e+00 +9.1004733593268359e+00 +0.0000000000000000e+00 +3.9999998861100101e+00 -4.1332558860931204e-04 +0.0000000000000000e+00 +9.9999991458097537e-01
4.1000000000000014e+00 +9.1004315100972004e+00 +0.0000000000000000e+00 +4.0999998773527748e+00 -4.2365900442473695e-04 +0.0000000000000000e+00 +9.9999991025652002e-01
4.2000000000000011e+00 +9.1003886275259003e+00 +0.0000000000000000e+00 +4.1999998681577546e+00 -4.3399242179357876e-04 +0.0000000000000000e+00 +9.9999990582528453e-01
4.3000000000000007e+00 +9.1003447116128129e+00 +0.0000000000000000e+00 +4.2999998585142718e+00 -4.4432584002415681e-04 +0.0000000000000000e+00 +9.9999990128726912e-01
4.4000000000000004e+00 +9.1002997623578885e+00 +0.0000000000000000e+00 +4.3999998484116487e+00 -4.5465925844490409e-04 +0.0000000000000000e+00 +9.9999989664247402e-01
4.5000000000000000e+00 +9.1002537797611396e+00 +0.0000000000000000e+00 +4.4999998378392068e+00 -4.6499267640437496e-04 +0.0000000000000000e+00 +9.9999989189089955e-01
4.5999999999999996e+00 +9.1002067638226443e+00 +0.0000000000000000e+00 +4.5999998267862692e+00 -4.7532609327135498e-04 +0.0000000000000000e+00 +9.9999988703254605e-01
4.6999999999999993e+00 +9.1001587145425429e+00 +0.0000000000000000e+00 +4.6999998152421574e+00 -4.8565950843598634e-04 +0.0000000000000000e+00 +9.9999988206741386e-01
4.7999999999999989e+00 +9.1001096319210344e+00 +0.0000000000000000e+00 +4.7999998031961928e+00 -4.9599292131088826e-04 +0.0000000000000000e+00 +9.9999987699550330e-01
4.8999999999999986e+00 +9.1000595159583764e+00 +0.0000000000000000e+00 +4.8999997906376986e+00 -5.0632633133125755e-04 +0.0000000000000000e+00 +9.9999987181681471e-01
4.9999999999999982e+00 +9.1000083666548814e+00 +0.0000000000000000e+00 +4.9999997775559963e+00 -5.1665973795486783e-04 +0.0000000000000000e+00 +9.9999986653134854e-01
5.0999999999999979e+00 +9.0999561840109155e+00 +0.0000000000000000e+00 +5.0999997639404091e+00 -5.2699314066206827e-04 +0.0000000000000000e+00 +9.9999986113910511e-01
5.1999999999999975e+00 +9.0999029680268961e+00 +0.0000000000000000e+00 +5.1999997497802584e+00 -5.3732653895578221e-04 +0.0000000000000000e+00 +9.9999985564008476e-01
5.2999999999999972e+00 +9.0998487187032868e+00 +0.0000000000000000e+00 +5.2999997350648664e+00 -5.4765993236150585e-04 +0.0000000000000000e+00 +9.9999985003428793e-01
5.3999999999999968e+00 +9.0997934360406010e+00 +0.0000000000000000e+00 +5.3999997197835565e+00 -5.5799332042730677e-04 +0.0000000000000000e+00 +9.9999984432171496e-01
5.4999999999999964e+00 +9.0997371200393928e+00 +0.0000000000000000e+00 +5.4999997039256501e+00 -5.6832670272382213e-04 +0.0000000000000000e+00 +9.9999983850236629e-01
5.5999999999999961e+00 +9.0996797707002610e+00 +0.0000000000000000e+00 +5.5999996874804703e+00 -5.7866007884425723e-04 +0.0000000000000000e+00 +9.9999983257624236e-01
5.6999999999999957e+00 +9.0996213880238432e+00 +0.0000000000000000e+00 +5.6999996704373395e+00 -5.8899344840438340e-04 +0.0000000000000000e+00 +9.9999982654334363e-01
5.7999999999999954e+00 +9.0995619720108110e+00 +0.0000000000000000e+00 +5.7999996527855799e+00 -5.9932681104253637e-04 +0.0000000000000000e+00 +9.9999982040367041e-01
5.8999999999999950e+00 +9.0995015226618765e+00 +0.0000000000000000e+00 +5.8999996345145140e+00 -6.0966016641961402e-04 +0.0000000000000000e+00 +9.9999981415722328e-01
5.9999999999999947e+00 +9.0994400399777806e+00 +0.0000000000000000e+00 +5.9999996156134650e+00 -6.1999351421907422e-04 +0.0000000000000000e+00 +9.9999980780400255e-01
6.0999999999999943e+00 +9.0993775239592960e+00 +0.0000000000000000e+00 +6.0999995960717550e+00 -6.3032685414693272e-04 +0.0000000000000000e+00 +9.9999980134400857e-01
6.1999999999999940e+00 +9.0993139746072238e+00 +0.0000000000000000e+00 +6.1999995758787074e+00 -6.4066018593176058e-04 +0.0000000000000000e+00 +9.9999979477724188e-01
6.2999999999999936e+00 +9.0992493919223900e+00 +0.0000000000000000e+00 +6.2999995550236445e+00 -6.5099350932468192e-04 +0.0000000000000000e+00 +9.9999978810370282e-01
6.3999999999999932e+00 +9.0991837759056455e+00 +0.0000000000000000e+00 +6.3999995334958886e+00 -6.6132682409937116e-04 +0.0000000000000000e+00 +9.9999978132339185e-01
6.4999999999999929e+00 +9.0991171265578643e+00 +0.0000000000000000e+00 +6.4999995112847637e+00 -6.7166013005205032e-04 +0.0000000000000000e+00 +9.9999977443630927e-01
6.5999999999999925e+00 +9.0990494438799363e+00 +0.0000000000000000e+00 +6.5999994883795914e+00 -6.8199342699847693e-04 +0.0000000000000000e+00 +9.9999976744245556e-01
6.6999999999999922e+00 +9.0989807278727710e+00 +0.0000000000000000e+00 +6.6999994647696957e+00 -6.9232671474083417e-04 +0.0000000000000000e+00 +9.9999976034183113e-01
6.7999999999999918e+00 +9.0989109785373028e+00 +0.0000000000000000e+00 +6.7999994404443989e+00 -7.0265999303461689e-04 +0.0000000000000000e+00 +9.9999975313443645e-01
6.8999999999999915e+00 +9.0988401958744891e+00 +0.0000000000000000e+00 +6.8999994153930242e+00 -7.1299326158561177e-04 +0.0000000000000000e+00 +9.9999974582027196e-01
6.9999999999999911e+00 +9.0987683798853212e+00 +0.0000000000000000e+00 +6.9999993896048949e+00 -7.2332652004988656e-04 +0.0000000000000000e+00 +9.9999973839933831e-01
7.0999999999999908e+00 +9.0986955305708275e+00 +0.0000000000000000e+00 +7.0999993630693332e+00 -7.3365976803377861e-04 +0.0000000000000000e+00 +9.9999973087163596e-01
7.1999999999999904e+00 +9.0986216479320774e+00 +0.0000000000000000e+00 +7.1999993357756633e+00 -7.4399300509388384e-04 +0.0000000000000000e+00 +9.9999972323716568e-01
7.2999999999999901e+00 +9.0985467319701883e+00 +0.0000000000000000e+00 +7.2999993077132075e+00 -7.5432623073704453e-04 +0.0000000000000000e+00 +9.9999971549592814e-01
7.3999999999999897e+00 +9.0984707826863289e+00 +0.0000000000000000e+00 +7.3999992788712898e+00 -7.6465944442033701e-04 +0.0000000000000000e+00 +9.9999970764792412e-01
7.4999999999999893e+00 +9.0983938000817233e+00 +0.0000000000000000e+00 +7.4999992492392336e+00 -7.7499264555105907e-04 +0.0000000000000000e+00 +9.9999969969315439e-01
7.5999999999999890e+00 +9.0983157841576592e+00 +0.0000000000000000e+00 +7.5999992188063619e+00 -7.8532583348671716e-04 +0.0000000000000000e+00 +9.9999969163161995e-01
7.6999999999999886e+00 +9.0982367349154885e+00 +0.0000000000000000e+00 +7.6999991875619989e+00 -7.9565900753501286e-04 +0.0000000000000000e+00 +9.9999968346332158e-01
7.7999999999999883e+00 +9.0981566523566393e+00 +0.0000000000000000e+00 +7.7999991554954677e+00 -8.0599216695382908e-04 +0.0000000000000000e+00 +9.9999967518826050e-01
7.8999999999999879e+00 +9.0980755364826127e+00 +0.0000000000000000e+00 +7.8999991225960926e+00 -8.1632531095121607e-04 +0.0000000000000000e+00 +9.9999966680643770e-01
7.9999999999999876e+00 +9.0979933872949914e+00 +0.0000000000000000e+00 +7.9999990888531967e+00 -8.2665843868537684e-04 +0.0000000000000000e+00 +9.9999965831785431e-01
8.0999999999999872e+00 +9.0979102047954470e+00 +0.0000000000000000e+00 +8.0999990542561040e+00 -8.3699154926465257e-04 +0.0000000000000000e+00 +9.9999964972251165e-01
8.1999999999999869e+00 +9.0978259889857416e+00 +0.0000000000000000e+00 +8.1999990187941396e+00 -8.4732464174750713e-04 +0.0000000000000000e+00 +9.9999964102041106e-01
8.2999999999999865e+00 +9.0977407398677332e+00 +0.0000000000000000e+00 +8.2999989824566267e+00 -8.5765771514251167e-04 +0.0000000000000000e+00 +9.9999963221155397e-01
8.3999999999999861e+00 +9.0976544574433831e+00 +0.0000000000000000e+00 +8.3999989452328911e+00 -8.6799076840832863e-04 +0.0000000000000000e+00 +9.9999962329594183e-01
8.4999999999999858e+00 +9.0975671417147588e+00 +0.0000000000000000e+00 +8.4999989071122570e+00 -8.7832380045369538e-04 +0.0000000000000000e+00 +9.9999961427357620e-01
8.5999999999999854e+00 +9.0974787926840381e+00 +0.0000000000000000e+00 +8.5999988680840485e+00 -8.8865681014141742e-04 +0.0000000000000000e+00 +9.9999960514445874e-01
8.6999999999999851e+00 +9.0973894103535144e+00 +0.0000000000000000e+00 +8.6999988281375913e+00 -8.9898979633246199e-04 +0.0000000000000000e+00 +9.9999959590859122e-01
8.7999999999999847e+00 +9.0972989947255911e+00 +0.0000000000000000e+00 +8.7999987872622096e+00 -9.0932275793007174e-04 +0.0000000000000000e+00 +9.9999958656597532e-01
8.8999999999999844e+00 +9.0972075458027817e+00 +0.0000000000000000e+00 +8.8999987454472294e+00 -9.1965569388379072e-04 +0.0000000000000000e+00 +9.9999957711661280e-01
8.9999999999999840e+00 +9.0971150635877027e+00 +0.0000000000000000e+00 +8.9999987026819745e+00 -9.2998860318948130e-04 +0.0000000000000000e+00 +9.9999956756050534e-01
9.0999999999999837e+00 +9.0970215480830650e+00 +0.0000000000000000e+00 +9.0999986589557729e+00 -9.4032148488934215e-04 +0.0000000000000000e+00 +9.9999955789765471e-01
9.1999999999999833e+00 +9.0969269992916750e+00 +0.0000000000000000e+00 +9.1999986142579484e+00 -9.5065433807192646e-04 +0.0000000000000000e+00 +9.9999954812806258e-01
9.2999999999999829e+00 +9.0968314172164302e+00 +0.0000000000000000e+00 +9.2999985685778270e+00 -9.6098716187216092e-04 +0.0000000000000000e+00 +9.9999953825173071e-01
9.3999999999999826e+00 +9.0967348018603076e+00 +0.0000000000000000e+00 +9.3999985219047364e+00 -9.7131995547136522e-04 +0.0000000000000000e+00 +9.9999952826866079e-01
9.4999999999999822e+00 +9.0966371532263679e+00 +0.0000000000000000e+00 +9.4999984742280024e+00 -9.8165271809727236e-04 +0.0000000000000000e+00 +9.9999951817885446e-01
9.5999999999999819e+00 +9.0965384713177446e+00 +0.0000000000000000e+00 +9.5999984255369508e+00 -9.9198544902404941e-04 +0.0000000000000000e+00 +9.9999950798231341e-01
9.6999999999999815e+00 +9.0964387561376423e+00 +0.0000000000000000e+00 +9.6999983758209076e+00 -1.0023181475723184e-03 +0.0000000000000000e+00 +9.9999949767903940e-01
9.7999999999999812e+00 +9.0963380076893312e+00 +0.0000000000000000e+00 +9.7999983250692004e+00 -1.0126508131091787e-03 +0.0000000000000000e+00 +9.9999948726903398e-01
9.8999999999999808e+00 +9.0962362259761402e+00 +0.0000000000000000e+00 +9.8999982732711569e+00 -1.0229834450482295e-03 +0.0000000000000000e+00 +9.9999947675229872e-01
9.9999999999999805e+00 +9.0961334110014587e+00 +0.0000000000000000e+00 +9.9999982204161029e+00 -1.0333160428495926e-03 +0.0000000000000000e+00 +9.9999946612883528e-01
1.0099999999999980e+01 +9.0960295627687255e+00 +0.0000000000000000e+00 +1.0099998166493366e+01 -1.0436486060199368e-03 +0.0000000000000000e+00 +9.9999945539864532e-01
1.0199999999999980e+01 +9.0959246812814243e+00 +0.0000000000000000e+00 +1.0199998111492274e+01 -1.0539811341125011e-03 +0.0000000000000000e+00 +9.9999944456173029e-01
1.0299999999999979e+01 +9.0958187665430845e+00 +0.0000000000000000e+00 +1.0299998055402154e+01 -1.0643136267271206e-03 +0.0000000000000000e+00 +9.9999943361809163e-01
1.0399999999999979e+01 +9.0957118185572732e+00 +0.0000000000000000e+00 +1.0399997998212335e+01 -1.0746460835102515e-03 +0.0000000000000000e+00 +9.9999942256773089e-01
1.0499999999999979e+01 +9.0956038373275874e+00 +0.0000000000000000e+00 +1.0499997939912143e+01 -1.0849785041549972e-03 +0.0000000000000000e+00 +9.9999941141064952e-01
1.0599999999999978e+01 +9.0954948228576544e+00 +0.0000000000000000e+00 +1.0599997880490907e+01 -1.0953108884008899e-03 +0.0000000000000000e+00 +9.9999940014684896e-01
1.0699999999999978e+01 +9.0953847751511265e+00 +0.0000000000000000e+00 +1.0699997819937956e+01 -1.1056432360312183e-03 +0.0000000000000000e+00 +9.9999938877633054e-01
1.0799999999999978e+01 +9.0952736942116736e+00 +0.0000000000000000e+00 +1.0799997758242617e+01 -1.1159755468703519e-03 +0.0000000000000000e+00 +9.9999937729909549e-01
1.0899999999999977e+01 +9.0951615800429835e+00 +0.0000000000000000e+00 +1.0899997695394218e+01 -1.1263078207835173e-03 +0.0000000000000000e+00 +9.9999936571514525e-01
1.0999999999999977e+01 +9.0950484326487508e+00 +0.0000000000000000e+00 +1.0999997631382088e+01 -1.1366400576768203e-03 +0.0000000000000000e+00 +9.9999935402448104e-01
1.1099999999999977e+01 +9.0949342520326830e+00 +0.0000000000000000e+00 +1.1099997566195556e+01 -1.1469722574972674e-03 +0.0000000000000000e+00 +9.9999934222710396e-01
1.1199999999999976e+01 +9.0948190381984872e+00 +0.0000000000000000e+00 +1.1199997499823951e+01 -1.1573044202327889e-03 +0.0000000000000000e+00 +9.9999933032301525e-01
1.1299999999999976e+01 +9.0947027911498708e+00 +0.0000000000000000e+00 +1.1299997432256601e+01 -1.1676365459122621e-03 +0.0000000000000000e+00 +9.9999931831221600e-01
1.1399999999999975e+01 +9.0945855108905373e+00 +0.0000000000000000e+00 +1.1399997363482838e+01 -1.1779686346055345e-03 +0.0000000000000000e+00 +9.9999930619470734e-01
1.1499999999999975e+01 +9.0944671974241800e+00 +0.0000000000000000e+00 +1.1499997293491987e+01 -1.1883006864234476e-03 +0.0000000000000000e+00 +9.9999929397049014e-01
1.1599999999999975e+01 +9.0943478507544775e+00 +0.0000000000000000e+00 +1.1599997222273378e+01 -1.1986327015178614e-03 +0.0000000000000000e+00 +9.9999928163956542e-01
1.1699999999999974e+01 +9.0942274708850945e+00 +0.0000000000000000e+00 +1.1699997149816342e+01 -1.2089646800816796e-03 +0.0000000000000000e+00 +9.9999926920193416e-01
1.1799999999999974e+01 +9.0941060578196709e+00 +0.0000000000000000e+00 +1.1799997076110207e+01 -1.2192966223488742e-03 +0.0000000000000000e+00 +9.9999925665759715e-01
