# trajectory
# s[mm] rx[mm] ry[mm] rz[mm] px[rad] py[rad] pz[rad]
0.0000000000000000e+00 +9.0696999999999992e+00 +0.0000000000000000e+00 +0.0000000000000000e+00 +0.0000000000000000e+00 +0.0000000000000000e+00 +1.0000000000000000e+00
-1.0000000000000001e-01 +9.0696994833395426e+00 +0.0000000000000000e+00 -9.9999999998220415e-02 +1.0333213272646123e-05 +0.0000000000000000e+00 +9.9999999994661237e-01
-2.0000000000000001e-01 +9.0696979333565064e+00 +0.0000000000000000e+00 -1.9999999998576329e-01 +2.0666451685301847e-05 +0.0000000000000000e+00 +9.9999999978644893e-01
-3.0000000000000004e-01 +9.0696953500483524e+00 +0.0000000000000000e+00 -2.9999999995195098e-01 +3.0999715698894523e-05 +0.0000000000000000e+00 +9.9999999951950891e-01
-4.0000000000000002e-01 +9.0696917334124993e+00 +0.0000000000000000e+00 -3.9999999988610579e-01 +4.1333005722428261e-05 +0.0000000000000000e+00 +9.9999999914579141e-01
-5.0000000000000000e-01 +9.0696870834463290e+00 +0.0000000000000000e+00 -4.9999999977754994e-01 +5.1666322112984983e-05 +0.0000000000000000e+00 +9.9999999866529565e-01
-5.9999999999999998e-01 +9.0696814001471875e+00 +0.0000000000000000e+00 -5.9999999961560557e-01 +6.1999665175725428e-05 +0.0000000000000000e+00 +9.9999999807802087e-01
-6.9999999999999996e-01 +9.0696746835123960e+00 +0.0000000000000000e+00 -6.9999999938959478e-01 +7.2333035163889961e-05 +0.0000000000000000e+00 +9.9999999738396617e-01
-7.9999999999999993e-01 +9.0696669335392510e+00 +0.0000000000000000e+00 -7.9999999908883945e-01 +8.2666432278799383e-05 +0.0000000000000000e+00 +9.9999999658313066e-01
-8.9999999999999991e-01 +9.0696581502250311e+00 +0.0000000000000000e+00 -8.9999999870266145e-01 +9.2999856669855559e-05 +0.0000000000000000e+00 +9.9999999567551345e-01
-9.9999999999999989e-01 +9.0696483335670042e+00 +0.0000000000000000e+00 -9.9999999822038266e-01 +1.0333330843454198e-04 +0.0000000000000000e+00 +9.9999999466111378e-01
-1.0999999999999999e+00 +9.0696374835624294e+00 +0.0000000000000000e+00 -1.0999999976313248e+00 +1.1366678761842419e-04 +0.0000000000000000e+00 +9.9999999353993074e-01
-1.2000000000000000e+00 +9.0696256002085658e+00 +0.0000000000000000e+00 -1.1999999969248094e+00 +1.2400029421515016e-04 +0.0000000000000000e+00 +9.9999999231196357e-01
-1.3000000000000000e+00 +9.0696126835026742e+00 +0.0000000000000000e+00 -1.2999999960901580e+00 +1.3433382816645053e-04 +0.0000000000000000e+00 +9.9999999097721137e-01
-1.4000000000000001e+00 +9.0695987334420245e+00 +0.0000000000000000e+00 -1.3999999951166922e+00 +1.4466738936213868e-04 +0.0000000000000000e+00 +9.9999998953567326e-01
-1.5000000000000002e+00 +9.0695837500238987e+00 +0.0000000000000000e+00 -1.4999999939937332e+00 +1.5500097764011090e-04 +0.0000000000000000e+00 +9.9999998798734846e-01
-1.6000000000000003e+00 +9.0695677332456004e+00 +0.0000000000000000e+00 -1.5999999927106023e+00 +1.6533459278983987e-04 +0.0000000000000000e+00 +9.9999998633223619e-01
-1.7000000000000004e+00 +9.0695506831044526e+00 +0.0000000000000000e+00 -1.6999999912566208e+00 +1.7566823459080541e-04 +0.0000000000000000e+00 +9.9999998457033568e-01
-1.8000000000000005e+00 +9.0695325995977996e+00 +0.0000000000000000e+00 -1.7999999896211099e+00 +1.8600190285092606e-04 +0.0000000000000000e+00 +9.9999998270164603e-01
-1.9000000000000006e+00 +9.0695134827230053e+00 +0.0000000000000000e+00 -1.8999999877933904e+00 +1.9633559741005427e-04 +0.0000000000000000e+00 +9.9999998072616647e-01
-2.0000000000000004e+00 +9.0694933324774460e+00 +0.0000000000000000e+00 -1.9999999857627835e+00 +2.0666931813997805e-04 +0.0000000000000000e+00 +9.9999997864389634e-01
-2.1000000000000005e+00 +9.0694721488585088e+00 +0.0000000000000000e+00 -2.0999999835186101e+00 +2.1700306494442284e-04 +0.0000000000000000e+00 +9.9999997645483474e-01
-2.2000000000000006e+00 +9.0694499318635895e+00 +0.0000000000000000e+00 -2.1999999810501909e+00 +2.2733683775905347e-04 +0.0000000000000000e+00 +9.9999997415898090e-01
-2.3000000000000007e+00 +9.0694266814900910e+00 +0.0000000000000000e+00 -2.2999999783468468e+00 +2.3767063655147629e-04 +0.0000000000000000e+00 +9.9999997175633404e-01
-2.4000000000000008e+00 +9.0694023977354146e+00 +0.0000000000000000e+00 -2.3999999753978982e+00 +2.4800446132124148e-04 +0.0000000000000000e+00 +9.9999996924689327e-01
-2.5000000000000009e+00 +9.0693770805969613e+00 +0.0000000000000000e+00 -2.4999999721926658e+00 +2.5833831209984542e-04 +0.0000000000000000e+00 +9.9999996663065782e-01
-2.6000000000000010e+00 +9.0693507300721272e+00 +0.0000000000000000e+00 -2.5999999687204700e+00 +2.6867218895073339e-04 +0.0000000000000000e+00 +9.9999996390762691e-01
-2.7000000000000011e+00 +9.0693233461582992e+00 +0.0000000000000000e+00 -2.6999999649706314e+00 +2.7900609196930217e-04 +0.0000000000000000e+00 +9.9999996107779965e-01
-2.8000000000000012e+00 +9.0692949288528570e+00 +0.0000000000000000e+00 -2.7999999609324702e+00 +2.8934002128290308e-04 +0.0000000000000000e+00 +9.9999995814117526e-01
-2.9000000000000012e+00 +9.0692654781531612e+00 +0.0000000000000000e+00 -2.8999999565953067e+00 +2.9967397705084483e-04 +0.0000000000000000e+00 +9.9999995509775286e-01
-3.0000000000000013e+00 +9.0692349940565578e+00 +0.0000000000000000e+00 -2.9999999519484608e+00 +3.1000795946439688e-04 +0.0000000000000000e+00 +9.9999995194753155e-01
-3.1000000000000014e+00 +9.0692034765603715e+00 +0.0000000000000000e+00 -3.0999999469812529e+00 +3.2034196874679267e-04 +0.0000000000000000e+00 +9.9999994869051034e-01
-3.2000000000000015e+00 +9.0691709256619042e+00 +0.0000000000000000e+00 -3.1999999416830027e+00 +3.3067600515323311e-04 +0.0000000000000000e+00 +9.9999994532668846e-01
-3.3000000000000016e+00 +9.0691373413584273e+00 +0.0000000000000000e+00 -3.2999999360430303e+00 +3.4101006897089035e-04 +0.0000000000000000e+00 +9.9999994185606489e-01
-3.4000000000000017e+00 +9.0691027236471857e+00 +0.0000000000000000e+00 -3.3999999300506554e+00 +3.5134416051891138e-04 +0.0000000000000000e+00 +9.9999993827863864e-01
-3.5000000000000018e+00 +9.0690670725253888e+00 +0.0000000000000000e+00 -3.4999999236951980e+00 +3.6167828014842214e-04 +0.0000000000000000e+00 +9.9999993459440883e-01
-3.6000000000000019e+00 +9.0690303879902086e+00 +0.0000000000000000e+00 -3.5999999169659773e+00 +3.7201242823939833e-04 +0.0000000000000000e+00 +9.9999993080337435e-01
-3.7000000000000020e+00 +9.0689926700387797e+00 +0.0000000000000000e+00 -3.6999999098523126e+00 +3.8234660516620414e-04 +0.0000000000000000e+00 +9.9999992690553419e-01
-3.8000000000000020e+00 +9.0689539186682033e+00 +0.0000000000000000e+00 -3.7999999023435236e+00 +3.9268081126312793e-04 +0.0000000000000000e+00 +9.9999992290088735e-01
-3.9000000000000021e+00 +9.0689141338755466e+00 +0.0000000000000000e+00 -3.8999998944289298e+00 +4.0301504682124822e-04 +0.0000000000000000e+00 +9.9999991878943284e-01
-4.0000000000000018e+00 +9.0688733156578500e+00 +0.0000000000000000e+00 -3.9999998860978501e+00 +4.1334931208843217e-04 +0.0000000000000000e+00 +9.9999991457116955e-01
-4.1000000000000014e+00 +9.0688314640121330e+00 +0.0000000000000000e+00 -4.0999998773396031e+00 +4.2368360726933421e-04 +0.0000000000000000e+00 +9.9999991024609658e-01
-4.2000000000000011e+00 +9.0687885789353953e+00 +0.0000000000000000e+00 -4.1999998681435091e+00 +4.3401793252539423e-04 +0.0000000000000000e+00 +9.9999990581421283e-01
-4.3000000000000007e+00 +9.0687446604246222e+00 +0.0000000000000000e+00 -4.2999998584988859e+00 +4.4435228797483556e-04 +0.0000000000000000e+00 +9.9999990127551730e-01
-4.4000000000000004e+00 +9.0686997084767906e+00 +0.0000000000000000e+00 -4.3999998483950522e+00 +4.5468667369266290e-04 +0.0000000000000000e+00 +9.9999989663000910e-01
-4.5000000000000000e+00 +9.0686537230888735e+00 +0.0000000000000000e+00 -4.4999998378213268e+00 +4.6502108971065994e-04 +0.0000000000000000e+00 +9.9999989187768723e-01
-4.5999999999999996e+00 +9.0686067042578387e+00 +0.0000000000000000e+00 -4.5999998267670286e+00 +4.7535553601738679e-04 +0.0000000000000000e+00 +9.9999988701855080e-01
-4.6999999999999993e+00 +9.0685586519806609e+00 +0.0000000000000000e+00 -4.6999998152214761e+00 +4.8569001255817699e-04 +0.0000000000000000e+00 +9.9999988205259893e-01
-4.7999999999999989e+00 +9.0685095662543223e+00 +0.0000000000000000e+00 -4.7999998031739874e+00 +4.9602451923513478e-04 +0.0000000000000000e+00 +9.9999987697983062e-01
-4.8999999999999986e+00 +9.0684594470758135e+00 +0.0000000000000000e+00 -4.8999997906138812e+00 +5.0635905590713153e-04 +0.0000000000000000e+00 +9.9999987180024508e-01
-4.9999999999999982e+00 +9.0684082944421469e+00 +0.0000000000000000e+00 -4.9999997775304754e+00 +5.1669362238980282e-04 +0.0000000000000000e+00 +9.9999986651384143e-01
-5.0999999999999979e+00 +9.0683561083503506e+00 +0.0000000000000000e+00 -5.0999997639130887e+00 +5.2702821845554415e-04 +0.0000000000000000e+00 +9.9999986112061889e-01
-5.1999999999999975e+00 +9.0683028887974793e+00 +0.0000000000000000e+00 -5.1999997497510391e+00 +5.3736284383350751e-04 +0.0000000000000000e+00 +9.9999985562057669e-01
-5.2999999999999972e+00 +9.0682486357806180e+00 +0.0000000000000000e+00 -5.2999997350336434e+00 +5.4769749820959737e-04 +0.0000000000000000e+00 +9.9999985001371405e-01
-5.3999999999999968e+00 +9.0681933492968838e+00 +0.0000000000000000e+00 -5.3999997197502205e+00 +5.5803218122646599e-04 +0.0000000000000000e+00 +9.9999984430003030e-01
-5.4999999999999964e+00 +9.0681370293434327e+00 +0.0000000000000000e+00 -5.4999997038900883e+00 +5.6836689248350935e-04 +0.0000000000000000e+00 +9.9999983847952478e-01
-5.5999999999999961e+00 +9.0680796759174616e+00 +0.0000000000000000e+00 -5.5999996874425646e+00 +5.7870163153740173e-04 +0.0000000000000000e+00 +9.9999983255219682e-01
-5.6999999999999957e+00 +9.0680212890162153e+00 +0.0000000000000000e+00 -5.6999996703969673e+00 +5.8903639790802785e-04 +0.0000000000000000e+00 +9.9999982651804598e-01
-5.7999999999999954e+00 +9.0679618686369867e+00 +0.0000000000000000e+00 -5.7999996527426134e+00 +5.9937119108441795e-04 +0.0000000000000000e+00 +9.9999982037707158e-01
-5.8999999999999950e+00 +9.0679014147771220e+00 +0.0000000000000000e+00 -5.8999996344688208e+00 +6.0970601052528844e-04 +0.0000000000000000e+00 +9.9999981412927319e-01
-5.9999999999999947e+00 +9.0678399274340240e+00 +0.0000000000000000e+00 -5.9999996155649074e+00 +6.2004085565904382e-04 +0.0000000000000000e+00 +9.9999980777465025e-01
-6.0999999999999943e+00 +9.0677774066051526e+00 +0.0000000000000000e+00 -6.0999995960201900e+00 +6.3037572588377764e-04 +0.0000000000000000e+00 +9.9999980131320243e-01
-6.1999999999999940e+00 +9.0677138522880316e+00 +0.0000000000000000e+00 -6.1999995758239868e+00 +6.4071062056727450e-04 +0.0000000000000000e+00 +9.9999979474492939e-01
-6.2999999999999936e+00 +9.0676492644802469e+00 +0.0000000000000000e+00 -6.2999995549656154e+00 +6.5104553904701129e-04 +0.0000000000000000e+00 +9.9999978806983070e-01
-6.3999999999999932e+00 +9.0675836431794519e+00 +0.0000000000000000e+00 -6.3999995334343929e+00 +6.6138048063015919e-04 +0.0000000000000000e+00 +9.9999978128790612e-01
-6.4999999999999929e+00 +9.0675169883833746e+00 +0.0000000000000000e+00 -6.4999995112196363e+00 +6.7171544459358518e-04 +0.0000000000000000e+00 +9.9999977439915544e-01
-6.5999999999999925e+00 +9.0674493000898124e+00 +0.0000000000000000e+00 -6.5999994883106634e+00 +6.8205043018385416e-04 +0.0000000000000000e+00 +9.9999976740357843e-01
-6.6999999999999922e+00 +9.0673805782966426e+00 +0.0000000000000000e+00 -6.6999994646967913e+00 +6.9238543661723077e-04 +0.0000000000000000e+00 +9.9999976030117499e-01
-6.7999999999999918e+00 +9.0673108230018205e+00 +0.0000000000000000e+00 -6.7999994403673378e+00 +7.0272046307968115e-04 +0.0000000000000000e+00 +9.9999975309194500e-01
-6.8999999999999915e+00 +9.0672400342033868e+00 +0.0000000000000000e+00 -6.8999994153116200e+00 +7.1305550872687528e-04 +0.0000000000000000e+00 +9.9999974577588857e-01
-6.9999999999999911e+00 +9.0671682118994656e+00 +0.0000000000000000e+00 -6.9999993895189547e+00 +7.2339057268418910e-04 +0.0000000000000000e+00 +9.9999973835300560e-01
-7.0999999999999908e+00 +9.0670953560882701e+00 +0.0000000000000000e+00 -7.0999993629786600e+00 +7.3372565404670662e-04 +0.0000000000000000e+00 +9.9999973082329618e-01
-7.1999999999999904e+00 +9.0670214667681073e+00 +0.0000000000000000e+00 -7.1999993356800527e+00 +7.4406075187922224e-04 +0.0000000000000000e+00 +9.9999972318676056e-01
-7.2999999999999901e+00 +9.0669465439373784e+00 +0.0000000000000000e+00 -7.2999993076124507e+00 +7.5439586521624299e-04 +0.0000000000000000e+00 +9.9999971544339894e-01
-7.3999999999999897e+00 +9.0668705875945808e+00 +0.0000000000000000e+00 -7.3999992787651712e+00 +7.6473099306199107e-04 +0.0000000000000000e+00 +9.9999970759321155e-01
-7.4999999999999893e+00 +9.0667935977383163e+00 +0.0000000000000000e+00 -7.4999992491275318e+00 +7.7506613439040650e-04 +0.0000000000000000e+00 +9.9999969963619872e-01
-7.5999999999999890e+00 +9.0667155743672883e+00 +0.0000000000000000e+00 -7.5999992186888496e+00 +7.8540128814980818e-04 +0.0000000000000000e+00 +9.9999969157236090e-01
-7.6999999999999886e+00 +9.0666365174803065e+00 +0.0000000000000000e+00 -7.6999991874384426e+00 +7.9573645331414632e-04 +0.0000000000000000e+00 +9.9999968340169854e-01
-7.7999999999999883e+00 +9.0665564270762768e+00 +0.0000000000000000e+00 -7.7999991553656285e+00 +8.0607162893425580e-04 +0.0000000000000000e+00 +9.9999967512421195e-01
-7.8999999999999879e+00 +9.0664753031541991e+00 +0.0000000000000000e+00 -7.8999991224597244e+00 +8.1640681414251945e-04 +0.0000000000000000e+00 +9.9999966673990159e-01
-7.9999999999999876e+00 +9.0663931457131550e+00 +0.0000000000000000e+00 -7.9999990887100481e+00 +8.2674200815287160e-04 +0.0000000000000000e+00 +9.9999965824876780e-01
-8.0999999999999872e+00 +9.0663099547522989e+00 +0.0000000000000000e+00 -8.0999990541059166e+00 +8.3707721026080257e-04 +0.0000000000000000e+00 +9.9999964965081090e-01
-8.1999999999999869e+00 +9.0662257302708529e+00 +0.0000000000000000e+00 -8.1999990186366496e+00 +8.4741241984336274e-04 +0.0000000000000000e+00 +9.9999964094603111e-01
-8.2999999999999865e+00 +9.0661404722680992e+00 +0.0000000000000000e+00 -8.2999989822915623e+00 +8.5774763635916671e-04 +0.0000000000000000e+00 +9.9999963213442877e-01
-8.3999999999999861e+00 +9.0660541807433663e+00 +0.0000000000000000e+00 -8.3999989450599735e+00 +8.6808285934839773e-04 +0.0000000000000000e+00 +9.9999962321600400e-01
-8.4999999999999858e+00 +9.0659668556960273e+00 +0.0000000000000000e+00 -8.4999989069312019e+00 +8.7841808843281224e-04 +0.0000000000000000e+00 +9.9999961419075689e-01
-8.5999999999999854e+00 +9.0658784971254871e+00 +0.0000000000000000e+00 -8.5999988678945645e+00 +8.8875332331574456e-04 +0.0000000000000000e+00 +9.9999960505868757e-01
-8.6999999999999851e+00 +9.0657891050311772e+00 +0.0000000000000000e+00 -8.6999988279393783e+00 +8.9908856378211142e-04 +0.0000000000000000e+00 +9.9999959581979592e-01
-8.7999999999999847e+00 +9.0656986794125487e+00 +0.0000000000000000e+00 -8.7999987870549621e+00 +9.0942380969841674e-04 +0.0000000000000000e+00 +9.9999958647408205e-01
-8.8999999999999844e+00 +9.0656072202690581e+00 +0.0000000000000000e+00 -8.8999987452306328e+00 +9.1975906101275672e-04 +0.0000000000000000e+00 +9.9999957702154574e-01
-8.9999999999999840e+00 +9.0655147276001653e+00 +0.0000000000000000e+00 -8.9999987024557093e+00 +9.3009431775482464e-04 +0.0000000000000000e+00 +9.9999956746218688e-01
-9.0999999999999837e+00 +9.0654212014053233e+00 +0.0000000000000000e+00 -9.0999986587195085e+00 +9.4042958003591611e-04 +0.0000000000000000e+00 +9.9999955779600513e-01
-9.1999999999999833e+00 +9.0653266416839671e+00 +0.0000000000000000e+00 -9.1999986140113492e+00 +9.5076484804893424e-04 +0.0000000000000000e+00 +9.9999954802300017e-01
-9.2999999999999829e+00 +9.0652310484355123e+00 +0.0000000000000000e+00 -9.2999985683205484e+00 +9.6110012206839478e-04 +0.0000000000000000e+00 +9.9999953814317144e-01
-9.3999999999999826e+00 +9.0651344216593408e+00 +0.0000000000000000e+00 -9.3999985216364230e+00 +9.7143540245043180e-04 +0.0000000000000000e+00 +9.9999952815651849e-01
-9.4999999999999822e+00 +9.0650367613547953e+00 +0.0000000000000000e+00 -9.4999984739482919e+00 +9.8177068963280299e-04 +0.0000000000000000e+00 +9.9999951806304077e-01
-9.5999999999999819e+00 +9.0649380675211706e+00 +0.0000000000000000e+00 -9.5999984252454702e+00 +9.9210598412979053e-04 +0.0000000000000000e+00 +9.9999950786273739e-01
-9.6999999999999815e+00 +9.0648383401577082e+00 +0.0000000000000000e+00 -9.6999983755172785e+00 +1.0024412864760488e-03 +0.0000000000000000e+00 +9.9999949755560769e-01
-9.7999999999999812e+00 +9.0647375792635980e+00 +0.0000000000000000e+00 -9.7999983247530320e+00 +1.0127765971704372e-03 +0.0000000000000000e+00 +9.9999948714165088e-01
-9.8999999999999808e+00 +9.0646357848379804e+00 +0.0000000000000000e+00 -9.8999982729420477e+00 +1.0231119166708962e-03 +0.0000000000000000e+00 +9.9999947662086630e-01
-9.9999999999999805e+00 +9.0645329568799564e+00 +0.0000000000000000e+00 -9.9999982200736444e+00 +1.0334472453944286e-03 +0.0000000000000000e+00 +9.9999946599325318e-01
-1.0099999999999980e+01 +9.0644290953885829e+00 +0.0000000000000000e+00 -1.0099998166137137e+01 +1.0437825837170795e-03 +0.0000000000000000e+00 +9.9999945525881084e-01
-1.0199999999999980e+01 +9.0643242003628828e+00 +0.0000000000000000e+00 -1.0199998111121845e+01 +1.0541179319739167e-03 +0.0000000000000000e+00 +9.9999944441753863e-01
-1.0299999999999979e+01 +9.0642182718018471e+00 +0.0000000000000000e+00 -1.0299998055017085e+01 +1.0644532904590103e-03 +0.0000000000000000e+00 +9.9999943346943598e-01
-1.0399999999999979e+01 +9.0641113097044403e+00 +0.0000000000000000e+00 -1.0399997997812171e+01 +1.0747886594254107e-03 +0.0000000000000000e+00 +9.9999942241450224e-01
-1.0499999999999979e+01 +9.0640033140696055e+00 +0.0000000000000000e+00 -1.0499997939496424e+01 +1.0851240390851277e-03 +0.0000000000000000e+00 +9.9999941125273684e-01
-1.0599999999999978e+01 +9.0638942848962625e+00 +0.0000000000000000e+00 -1.0599997880059158e+01 +1.0954594296091085e-03 +0.0000000000000000e+00 +9.9999939998413923e-01
-1.0699999999999978e+01 +9.0637842221833171e+00 +0.0000000000000000e+00 -1.0699997819489690e+01 +1.1057948311272144e-03 +0.0000000000000000e+00 +9.9999938860870907e-01
-1.0799999999999978e+01 +9.0636731259296663e+00 +0.0000000000000000e+00 -1.0799997757777339e+01 +1.1161302437281981e-03 +0.0000000000000000e+00 +9.9999937712644582e-01
-1.0899999999999977e+01 +9.0635609961341999e+00 +0.0000000000000000e+00 -1.0899997694911418e+01 +1.1264656674596803e-03 +0.0000000000000000e+00 +9.9999936553734903e-01
-1.0999999999999977e+01 +9.0634478327958039e+00 +0.0000000000000000e+00 -1.0999997630881246e+01 +1.1368011023281249e-03 +0.0000000000000000e+00 +9.9999935384141836e-01
-1.1099999999999977e+01 +9.0633336359133647e+00 +0.0000000000000000e+00 -1.1099997565676141e+01 +1.1471365482988148e-03 +0.0000000000000000e+00 +9.9999934203865359e-01
-1.1199999999999976e+01 +9.0632184054857756e+00 +0.0000000000000000e+00 -1.1199997499285416e+01 +1.1574720052958264e-03 +0.0000000000000000e+00 +9.9999933012905440e-01
-1.1299999999999976e+01 +9.0631021415119406e+00 +0.0000000000000000e+00 -1.1299997431698390e+01 +1.1678074732020046e-03 +0.0000000000000000e+00 +9.9999931811262055e-01
-1.1399999999999975e+01 +9.0629848439907761e+00 +0.0000000000000000e+00 -1.1399997362904379e+01 +1.1781429518589357e-03 +0.0000000000000000e+00 +9.9999930598935194e-01
-1.1499999999999975e+01 +9.0628665129212163e+00 +0.0000000000000000e+00 -1.1499997292892699e+01 +1.1884784410669215e-03 +0.0000000000000000e+00 +9.9999929375924845e-01
-1.1599999999999975e+01 +9.0627471483022184e+00 +0.0000000000000000e+00 -1.1599997221652668e+01 +1.1988139405858882e-03 +0.0000000000000000e+00 +9.9999928142230998e-01
-1.1699999999999974e+01 +9.0626267501327646e+00 +0.0000000000000000e+00 -1.1699997149173601e+01 +1.2091494501456699e-03 +0.0000000000000000e+00 +9.9999926897853664e-01
