# field on trajectory
# s[mm] rx[mm] ry[mm] rz[mm] bx[T] by[T] bz[T]
0.0000000000000000e+00 +9.1081000000000003e+00 +0.0000000000000000e+00 +0.0000000000000000e+00 +1.1072166324902277e-02 -1.0324510732780348e+00 -5.9187369735827833e-02
-1.0000000000000001e-01 +9.1080994841318876e+00 +0.0000000000000000e+00 -9.9999999998225869e-02 +1.1072292943211865e-02 -1.0324492013473903e+00 -5.9187199357406184e-02
-2.0000000000000001e-01 +9.1080979365288002e+00 +0.0000000000000000e+00 -1.9999999998580698e-01 +1.1072416745981150e-02 -1.0324473155957259e+00 -5.9187018428280128e-02
-3.0000000000000004e-01 +9.1080953571926226e+00 +0.0000000000000000e+00 -2.9999999995209858e-01 +1.1072537378877170e-02 -1.0324454186917984e+00 -5.9186826817284842e-02
-4.0000000000000002e-01 +9.1080917461252504e+00 +0.0000000000000000e+00 -3.9999999988645601e-01 +1.1072654487572666e-02 -1.0324435133039453e+00 -5.9186624393276155e-02
-5.0000000000000000e-01 +9.1080871033285877e+00 +0.0000000000000000e+00 -4.9999999977823467e-01 +1.1072767717739457e-02 -1.0324416021001386e+00 -5.9186411025129150e-02
-5.9999999999999998e-01 +9.1080814288045442e+00 +0.0000000000000000e+00 -5.9999999961679007e-01 +1.1072876715041887e-02 -1.0324396877480391e+00 -5.9186186581736869e-02
-6.9999999999999996e-01 +9.1080747225550347e+00 +0.0000000000000000e+00 -6.9999999939147761e-01 +1.1072981125130199e-02 -1.0324377729150485e+00 -5.9185950932009145e-02
-7.9999999999999993e-01 +9.1080669845819706e+00 +0.0000000000000000e+00 -7.9999999909165298e-01 +1.1073080593633966e-02 -1.0324358602683665e+00 -5.9185703944871236e-02
-8.9999999999999991e-01 +9.1080582148872669e+00 +0.0000000000000000e+00 -8.9999999870667169e-01 +1.1073174766155471e-02 -1.0324339524750381e+00 -5.9185445489262446e-02
-9.9999999999999989e-01 +9.1080484134728295e+00 +0.0000000000000000e+00 -9.9999999822588959e-01 +1.1073263288263125e-02 -1.0324320522020132e+00 -5.9185175434135061e-02
-1.0999999999999999e+00 +9.1080375803405573e+00 +0.0000000000000000e+00 -1.0999999976386623e+00 +1.1073345805484885e-02 -1.0324301621161964e+00 -5.9184893648452905e-02
-1.2000000000000000e+00 +9.1080257154923405e+00 +0.0000000000000000e+00 -1.1999999969343456e+00 +1.1073421963301647e-02 -1.0324282848845023e+00 -5.9184600001190094e-02
-1.3000000000000000e+00 +9.1080128189300567e+00 +0.0000000000000000e+00 -1.2999999961022954e+00 +1.1073491407140640e-02 -1.0324264231739089e+00 -5.9184294361329826e-02
-1.4000000000000001e+00 +9.1079988906555673e+00 +0.0000000000000000e+00 -1.3999999951318678e+00 +1.1073553782368845e-02 -1.0324245796515081e+00 -5.9183976597862918e-02
-1.5000000000000002e+00 +9.1079839306707147e+00 +0.0000000000000000e+00 -1.4999999940124185e+00 +1.1073608734286398e-02 -1.0324227569845639e+00 -5.9183646579786746e-02
-1.6000000000000003e+00 +9.1079679389773229e+00 +0.0000000000000000e+00 -1.5999999927333037e+00 +1.1073656125239348e-02 -1.0324209540643032e+00 -5.9183304327348030e-02
-1.7000000000000004e+00 +9.1079509155771969e+00 +0.0000000000000000e+00 -1.6999999912838795e+00 +1.1073696686002412e-02 -1.0324191546773309e+00 -5.9182950465783923e-02
-1.8000000000000005e+00 +9.1079328604721379e+00 +0.0000000000000000e+00 -1.7999999896535019e+00 +1.1073731364475238e-02 -1.0324173388347415e+00 -5.9182585771606351e-02
-1.9000000000000006e+00 +9.1079137736639648e+00 +0.0000000000000000e+00 -1.8999999878315272e+00 +1.1073761108577615e-02 -1.0324154865485353e+00 -5.9182211021362917e-02
-2.0000000000000004e+00 +9.1078936551545304e+00 +0.0000000000000000e+00 -1.9999999858073116e+00 +1.1073786866257072e-02 -1.0324135778317292e+00 -5.9181826991639763e-02
-2.1000000000000005e+00 +9.1078725049457478e+00 +0.0000000000000000e+00 -2.0999999835702114e+00 +1.1073809585496421e-02 -1.0324115926984840e+00 -5.9181434459064805e-02
-2.2000000000000006e+00 +9.1078503230396048e+00 +0.0000000000000000e+00 -2.1999999811095829e+00 +1.1073830214321385e-02 -1.0324095111642164e+00 -5.9181034200310498e-02
-2.3000000000000007e+00 +9.1078271094381833e+00 +0.0000000000000000e+00 -2.2999999784147831e+00 +1.1073849700808134e-02 -1.0324073132457190e+00 -5.9180626992097043e-02
-2.4000000000000008e+00 +9.1078028641436859e+00 +0.0000000000000000e+00 -2.3999999754751680e+00 +1.1073868993090876e-02 -1.0324049789612797e+00 -5.9180213611195243e-02
-2.5000000000000009e+00 +9.1077775871584485e+00 +0.0000000000000000e+00 -2.4999999722800945e+00 +1.1073889039369438e-02 -1.0324024883308001e+00 -5.9179794834429582e-02
-2.6000000000000010e+00 +9.1077512784849652e+00 +0.0000000000000000e+00 -2.5999999688189193e+00 +1.1073910787916837e-02 -1.0323998213759114e+00 -5.9179371438681218e-02
-2.7000000000000011e+00 +9.1077239381259059e+00 +0.0000000000000000e+00 -2.6999999650809996e+00 +1.1073935187086881e-02 -1.0323969581200960e+00 -5.9178944200891023e-02
-2.8000000000000012e+00 +9.1076955660841357e+00 +0.0000000000000000e+00 -2.7999999610556920e+00 +1.1073963185321702e-02 -1.0323938785888058e+00 -5.9178513898062481e-02
-2.9000000000000012e+00 +9.1076661623627366e+00 +0.0000000000000000e+00 -2.8999999567323544e+00 +1.1073995731159393e-02 -1.0323905628095771e+00 -5.9178081307264749e-02
-3.0000000000000013e+00 +9.1076357269650270e+00 +0.0000000000000000e+00 -2.9999999521003438e+00 +1.1074033773241529e-02 -1.0323869908121532e+00 -5.9177647205635758e-02
-3.1000000000000014e+00 +9.1076042598945808e+00 +0.0000000000000000e+00 -3.0999999471490174e+00 +1.1074078260320806e-02 -1.0323831426286005e+00 -5.9177212370385028e-02
-3.2000000000000015e+00 +9.1075717611552491e+00 +0.0000000000000000e+00 -3.1999999418677336e+00 +1.1074130141268554e-02 -1.0323789982934279e+00 -5.9176777578796809e-02
-3.3000000000000016e+00 +9.1075382307511781e+00 +0.0000000000000000e+00 -3.2999999362458499e+00 +1.1074190365082379e-02 -1.0323745378437050e+00 -5.9176343608233005e-02
-3.4000000000000017e+00 +9.1075036686868298e+00 +0.0000000000000000e+00 -3.3999999302727248e+00 +1.1074259880893717e-02 -1.0323697413191817e+00 -5.9175911236136275e-02
-3.5000000000000018e+00 +9.1074680749670041e+00 +0.0000000000000000e+00 -3.4999999239377169e+00 +1.1074339637975392e-02 -1.0323645887624033e+00 -5.9175481240032836e-02
-3.6000000000000019e+00 +9.1074314495968558e+00 +0.0000000000000000e+00 -3.5999999172301846e+00 +1.1074430216484684e-02 -1.0323590695469511e+00 -5.9175054195106061e-02
-3.7000000000000020e+00 +9.1073937925818989e+00 +0.0000000000000000e+00 -3.6999999101394869e+00 +1.1074530719598533e-02 -1.0323532103603845e+00 -5.9174629866843464e-02
-3.8000000000000020e+00 +9.1073551039279916e+00 +0.0000000000000000e+00 -3.7999999026549833e+00 +1.1074639881177880e-02 -1.0323470472170080e+00 -5.9174207818210686e-02
-3.9000000000000021e+00 +9.1073153836412928e+00 +0.0000000000000000e+00 -3.8999998947660339e+00 +1.1074756435008009e-02 -1.0323406161291162e+00 -5.9173787612056258e-02
-4.0000000000000018e+00 +9.1072746317282309e+00 +0.0000000000000000e+00 -3.9999998864619979e+00 +1.1074879114790645e-02 -1.0323339531067819e+00 -5.9173368811101246e-02
-4.1000000000000014e+00 +9.1072328481954656e+00 +0.0000000000000000e+00 -4.0999998777322357e+00 +1.1075006654136084e-02 -1.0323270941576419e+00 -5.9172950977929017e-02
-4.2000000000000011e+00 +9.1071900330498536e+00 +0.0000000000000000e+00 -4.1999998685661089e+00 +1.1075137786555316e-02 -1.0323200752866908e+00 -5.9172533674974943e-02
-4.3000000000000007e+00 +9.1071461862984098e+00 +0.0000000000000000e+00 -4.2999998589529769e+00 +1.1075271245452125e-02 -1.0323129324960623e+00 -5.9172116464516047e-02
-4.4000000000000004e+00 +9.1071013079482732e+00 +0.0000000000000000e+00 -4.3999998488822012e+00 +1.1075405764115240e-02 -1.0323057017848225e+00 -5.9171698908660808e-02
-4.5000000000000000e+00 +9.1070553980066702e+00 +0.0000000000000000e+00 -4.4999998383431432e+00 +1.1075540075710403e-02 -1.0322984191487559e+00 -5.9171280569338736e-02
-4.5999999999999996e+00 +9.1070084564808820e+00 +0.0000000000000000e+00 -4.5999998273251652e+00 +1.1075672913272550e-02 -1.0322911205801530e+00 -5.9170861008290158e-02
-4.6999999999999993e+00 +9.1069604833782041e+00 +0.0000000000000000e+00 -4.6999998158176286e+00 +1.1075803009697871e-02 -1.0322838420675999e+00 -5.9170439787055933e-02
-4.7999999999999989e+00 +9.1069114787059107e+00 +0.0000000000000000e+00 -4.7999998038098948e+00 +1.1075929097735977e-02 -1.0322766195957649e+00 -5.9170016466967103e-02
-4.8999999999999986e+00 +9.1068614424712226e+00 +0.0000000000000000e+00 -4.8999997912913269e+00 +1.1076049909981983e-02 -1.0322694891451880e+00 -5.9169590609134619e-02
-4.9999999999999982e+00 +9.1068103746812685e+00 +0.0000000000000000e+00 -4.9999997782512864e+00 +1.1076164178868652e-02 -1.0322624866920660e+00 -5.9169161774439011e-02
-5.0999999999999979e+00 +9.1067582753430472e+00 +0.0000000000000000e+00 -5.0999997646791373e+00 +1.1076270636658498e-02 -1.0322556482080438e+00 -5.9168729523520203e-02
-5.1999999999999975e+00 +9.1067051444633957e+00 +0.0000000000000000e+00 -5.1999997505642410e+00 +1.1076368015435918e-02 -1.0322490096599999e+00 -5.9168293416767014e-02
-5.2999999999999972e+00 +9.1066509820489490e+00 +0.0000000000000000e+00 -5.2999997358959607e+00 +1.1076455047099303e-02 -1.0322426070098343e+00 -5.9167853014307069e-02
-5.3999999999999968e+00 +9.1065957881061106e+00 +0.0000000000000000e+00 -5.3999997206636596e+00 +1.1076530463353161e-02 -1.0322364762142575e+00 -5.9167407875996378e-02
-5.4999999999999964e+00 +9.1065395626410073e+00 +0.0000000000000000e+00 -5.4999997048567000e+00 +1.1076592995700239e-02 -1.0322306532245771e+00 -5.9166957561409037e-02
-5.5999999999999961e+00 +9.1064823056594637e+00 +0.0000000000000000e+00 -5.5999996884644458e+00 +1.1076641799202508e-02 -1.0322251663197015e+00 -5.9166501735920141e-02
-5.6999999999999957e+00 +9.1064240171669688e+00 +0.0000000000000000e+00 -5.6999996714762595e+00 +1.1076677723898117e-02 -1.0322200131072550e+00 -5.9166040489095795e-02
-5.7999999999999954e+00 +9.1063646971686776e+00 +0.0000000000000000e+00 -5.7999996538815033e+00 +1.1076702043666169e-02 -1.0322151835273745e+00 -5.9165574016613924e-02
-5.8999999999999950e+00 +9.1063043456694253e+00 +0.0000000000000000e+00 -5.8999996356695412e+00 +1.1076716032481232e-02 -1.0322106675201477e+00 -5.9165102514203011e-02
-5.9999999999999947e+00 +9.1062429626737309e+00 +0.0000000000000000e+00 -5.9999996168297356e+00 +1.1076720964419192e-02 -1.0322064550256620e+00 -5.9164626177647305e-02
-6.0999999999999943e+00 +9.1061805481858134e+00 +0.0000000000000000e+00 -6.0999995973514487e+00 +1.1076718113663035e-02 -1.0322025359840501e+00 -5.9164145202792201e-02
-6.1999999999999940e+00 +9.1061171022095948e+00 +0.0000000000000000e+00 -6.1999995772240437e+00 +1.1076708754508681e-02 -1.0321989003355361e+00 -5.9163659785549445e-02
-6.2999999999999936e+00 +9.1060526247487168e+00 +0.0000000000000000e+00 -6.2999995564368838e+00 +1.1076694161370771e-02 -1.0321955380204817e+00 -5.9163170121902406e-02
-6.3999999999999932e+00 +9.1059871158065455e+00 +0.0000000000000000e+00 -6.3999995349793304e+00 +1.1076675608788505e-02 -1.0321924389794339e+00 -5.9162676407911473e-02
-6.4999999999999929e+00 +9.1059205753861878e+00 +0.0000000000000000e+00 -6.4999995128407466e+00 +1.1076654371431434e-02 -1.0321895931531715e+00 -5.9162178839719144e-02
-6.5999999999999925e+00 +9.1058530034904930e+00 +0.0000000000000000e+00 -6.5999994900104957e+00 +1.1076631724105253e-02 -1.0321869904827494e+00 -5.9161677613555438e-02
-6.6999999999999922e+00 +9.1057844001220722e+00 +0.0000000000000000e+00 -6.6999994664779390e+00 +1.1076608941757668e-02 -1.0321846209095480e+00 -5.9161172925743140e-02
-6.7999999999999918e+00 +9.1057147652833006e+00 +0.0000000000000000e+00 -6.7999994422324388e+00 +1.1076587299484136e-02 -1.0321824743753174e+00 -5.9160664972703052e-02
-6.8999999999999915e+00 +9.1056440989763310e+00 +0.0000000000000000e+00 -6.8999994172633574e+00 +1.1076568072533722e-02 -1.0321805408222271e+00 -5.9160153950959339e-02
-6.9999999999999911e+00 +9.1055724012031050e+00 +0.0000000000000000e+00 -6.9999993915600571e+00 +1.1076552536314871e-02 -1.0321788101929097e+00 -5.9159640057144781e-02
-7.0999999999999908e+00 +9.1054996719653598e+00 +0.0000000000000000e+00 -7.0999993651119002e+00 +1.1076541966401248e-02 -1.0321772724305081e+00 -5.9159123488006005e-02
-7.1999999999999904e+00 +9.1054259112646410e+00 +0.0000000000000000e+00 -7.1999993379082481e+00 +1.1076537638537522e-02 -1.0321759174787224e+00 -5.9158604440408824e-02
-7.2999999999999901e+00 +9.1053511191023109e+00 +0.0000000000000000e+00 -7.2999993099384630e+00 +1.1076540828645176e-02 -1.0321747352818573e+00 -5.9158083111343573e-02
-7.3999999999999897e+00 +9.1052752954795597e+00 +0.0000000000000000e+00 -7.3999992811919064e+00 +1.1076552812828317e-02 -1.0321737157848681e+00 -5.9157559697930268e-02
-7.4999999999999893e+00 +9.1051984403974160e+00 +0.0000000000000000e+00 -7.4999992516579406e+00 +1.1076574867379473e-02 -1.0321728489334068e+00 -5.9157034397424008e-02
-7.5999999999999890e+00 +9.1051205538567537e+00 +0.0000000000000000e+00 -7.5999992213259269e+00 +1.1076607872523023e-02 -1.0321721246412943e+00 -5.9156507484011564e-02
-7.6999999999999886e+00 +9.1050416358583064e+00 +0.0000000000000000e+00 -7.6999991901852267e+00 +1.1076651123491911e-02 -1.0321715326937289e+00 -5.9155979539189475e-02
-7.7999999999999883e+00 +9.1049616864026746e+00 +0.0000000000000000e+00 -7.7999991582252006e+00 +1.1076703519147689e-02 -1.0321710628466827e+00 -5.9155451221377567e-02
-7.8999999999999879e+00 +9.1048807054903378e+00 +0.0000000000000000e+00 -7.8999991254352109e+00 +1.1076763958229971e-02 -1.0321707048598290e+00 -5.9154923189126532e-02
-7.9999999999999876e+00 +9.1047986931216620e+00 +0.0000000000000000e+00 -7.9999990918046189e+00 +1.1076831339351882e-02 -1.0321704484966796e+00 -5.9154396101122442e-02
-8.0999999999999872e+00 +9.1047156492969155e+00 +0.0000000000000000e+00 -8.0999990573227851e+00 +1.1076904560995403e-02 -1.0321702835247186e+00 -5.9153870616191220e-02
-8.1999999999999869e+00 +9.1046315740162704e+00 +0.0000000000000000e+00 -8.1999990219790710e+00 +1.1076982521506807e-02 -1.0321701997155386e+00 -5.9153347393303128e-02
-8.2999999999999865e+00 +9.1045464672798211e+00 +0.0000000000000000e+00 -8.2999989857628389e+00 +1.1077064119092039e-02 -1.0321701868449744e+00 -5.9152827091577251e-02
-8.3999999999999861e+00 +9.1044603290875905e+00 +0.0000000000000000e+00 -8.3999989486634483e+00 +1.1077148251812111e-02 -1.0321702346932387e+00 -5.9152310370285816e-02
-8.4999999999999858e+00 +9.1043731594395396e+00 +0.0000000000000000e+00 -8.4999989106702607e+00 +1.1077233817578505e-02 -1.0321703330450567e+00 -5.9151797888858881e-02
-8.5999999999999854e+00 +9.1042849583355814e+00 +0.0000000000000000e+00 -8.5999988717726357e+00 +1.1077319714148557e-02 -1.0321704716898001e+00 -5.9151290306888600e-02
-8.6999999999999851e+00 +9.1041957257755879e+00 +0.0000000000000000e+00 -8.6999988319599364e+00 +1.1077404839120885e-02 -1.0321706404216249e+00 -5.9150788284133803e-02
-8.7999999999999847e+00 +9.1041054617594011e+00 +0.0000000000000000e+00 -8.7999987912215225e+00 +1.1077488089930761e-02 -1.0321708290396023e+00 -5.9150292480524419e-02
-8.8999999999999844e+00 +9.1040141662868415e+00 +0.0000000000000000e+00 -8.8999987495467536e+00 +1.1077568363845519e-02 -1.0321710273478581e+00 -5.9149803556165864e-02
-8.9999999999999840e+00 +9.1039218393577226e+00 +0.0000000000000000e+00 -8.9999987069249912e+00 +1.1077644557959973e-02 -1.0321712251557049e+00 -5.9149322171343680e-02
-9.0999999999999837e+00 +9.1038284809718562e+00 +0.0000000000000000e+00 -9.0999986633455965e+00 +1.1077715569191782e-02 -1.0321714122777774e+00 -5.9148848986527766e-02
-9.1999999999999833e+00 +9.1037340911290663e+00 +0.0000000000000000e+00 -9.1999986187979310e+00 +1.1077780294276897e-02 -1.0321715785341687e+00 -5.9148384662377006e-02
-9.2999999999999829e+00 +9.1036386698291984e+00 +0.0000000000000000e+00 -9.2999985732713544e+00 +1.1077837629764923e-02 -1.0321717137505648e+00 -5.9147929859743584e-02
-9.3999999999999826e+00 +9.1035422170721283e+00 +0.0000000000000000e+00 -9.3999985267552280e+00 +1.1077886472014553e-02 -1.0321718077583790e+00 -5.9147485239677548e-02
-9.4999999999999822e+00 +9.1034447328577741e+00 +0.0000000000000000e+00 -9.4999984792389132e+00 +1.1077925717188955e-02 -1.0321718503948885e+00 -5.9147051463431237e-02
-9.5999999999999819e+00 +9.1033462171861022e+00 +0.0000000000000000e+00 -9.5999984307117696e+00 +1.1077954605937902e-02 -1.0321718334128516e+00 -5.9146628935969975e-02
-9.6999999999999815e+00 +9.1032466700571426e+00 +0.0000000000000000e+00 -9.6999983811631587e+00 +1.1077973757634007e-02 -1.0321717562065280e+00 -5.9146217036322959e-02
-9.7999999999999812e+00 +9.1031460914709807e+00 +0.0000000000000000e+00 -9.7999983305824419e+00 +1.1077984136486882e-02 -1.0321716200779978e+00 -5.9145814886867126e-02
-9.8999999999999808e+00 +9.1030444814277640e+00 +0.0000000000000000e+00 -9.8999982789589804e+00 +1.1077986706858492e-02 -1.0321714263266983e+00 -5.9145421609808062e-02
-9.9999999999999805e+00 +9.1029418399276967e+00 +0.0000000000000000e+00 -9.9999982262821359e+00 +1.1077982433267726e-02 -1.0321711762493313e+00 -5.9145036327174640e-02
-1.0099999999999980e+01 +9.1028381669710399e+00 +0.0000000000000000e+00 -1.0099998172541268e+01 +1.1077972280394918e-02 -1.0321708711397737e+00 -5.9144658160813733e-02
-1.0199999999999980e+01 +9.1027334625581080e+00 +0.0000000000000000e+00 -1.0199998117725739e+01 +1.1077957213086397e-02 -1.0321705122889844e+00 -5.9144286232384977e-02
-1.0299999999999979e+01 +9.1026277266892723e+00 +0.0000000000000000e+00 -1.0299998061824910e+01 +1.1077938196359041e-02 -1.0321701009849180e+00 -5.9143919663355506e-02
-1.0399999999999979e+01 +9.1025209593649539e+00 +0.0000000000000000e+00 -1.0399998004828143e+01 +1.1077916195404788e-02 -1.0321696385124262e+00 -5.9143557574994572e-02
-1.0499999999999979e+01 +9.1024131605856269e+00 +0.0000000000000000e+00 -1.0499997946724799e+01 +1.1077892175595213e-02 -1.0321691261531751e+00 -5.9143199088368389e-02
-1.0599999999999978e+01 +9.1023043303518136e+00 +0.0000000000000000e+00 -1.0599997887504239e+01 +1.1077867102486040e-02 -1.0321685651855490e+00 -5.9142843324334816e-02
-1.0699999999999978e+01 +9.1021944686640879e+00 +0.0000000000000000e+00 -1.0699997827155826e+01 +1.1077841941821712e-02 -1.0321679568845614e+00 -5.9142489403538098e-02
-1.0799999999999978e+01 +9.1020835755230678e+00 +0.0000000000000000e+00 -1.0799997765668920e+01 +1.1077817659539883e-02 -1.0321673025217628e+00 -5.9142136446403530e-02
-1.0899999999999977e+01 +9.1019716509294195e+00 +0.0000000000000000e+00 -1.0899997703032884e+01 +1.1077795221776005e-02 -1.0321666033651535e+00 -5.9141783573132378e-02
-1.0999999999999977e+01 +9.1018586948838536e+00 +0.0000000000000000e+00 -1.0999997639237080e+01 +1.1077775594867846e-02 -1.0321658606790876e+00 -5.9141429903696328e-02
-1.1099999999999977e+01 +9.1017447073871232e+00 +0.0000000000000000e+00 -1.1099997574270867e+01 +1.1077759745360015e-02 -1.0321650757241867e+00 -5.9141074557832532e-02
-1.1199999999999976e+01 +9.1016296884400258e+00 +0.0000000000000000e+00 -1.1199997508123611e+01 +1.1077748640008524e-02 -1.0321642497572459e+00 -5.9140716655038117e-02
-1.1299999999999976e+01 +9.1015136380433983e+00 +0.0000000000000000e+00 -1.1299997440784672e+01 +1.1077743245785301e-02 -1.0321633840311459e+00 -5.9140355314565081e-02
-1.1399999999999975e+01 +9.1013965561981180e+00 +0.0000000000000000e+00 -1.1399997372243412e+01 +1.1077744529882739e-02 -1.0321624797947602e+00 -5.9139989655414879e-02
-1.1499999999999975e+01 +9.1012784429051017e+00 +0.0000000000000000e+00 -1.1499997302489195e+01 +1.1077753459718233e-02 -1.0321615382928651e+00 -5.9139618796333393e-02
-1.1599999999999975e+01 +9.1011592981653031e+00 +0.0000000000000000e+00 -1.1599997231511381e+01 +1.1077770658769980e-02 -1.0321605614905580e+00 -5.9139242161255628e-02
-1.1699999999999974e+01 +9.1010391219797082e+00 +0.0000000000000000e+00 -1.1699997159299334e+01 +1.1077795373857016e-02 -1.0321595542495223e+00 -5.9138860395893916e-02
