# trajectory
# s[mm] rx[mm] ry[mm] rz[mm] px[rad] py[rad] pz[rad]
0.0000000000000000e+00 +9.0449999999999999e+00 +0.0000000000000000e+00 +0.0000000000000000e+00 +0.0000000000000000e+00 +0.0000000000000000e+00 +1.0000000000000000e+00
1.0000000000000001e-01 +9.0449994831601987e+00 +0.0000000000000000e+00 +9.9999999998219166e-02 -1.0336797904103116e-05 +0.0000000000000000e+00 +9.9999999994657529e-01
2.0000000000000001e-01 +9.0449979326400562e+00 +0.0000000000000000e+00 +1.9999999998575341e-01 -2.0673606700514158e-05 +0.0000000000000000e+00 +9.9999999978630094e-01
3.0000000000000004e-01 +9.0449953484385262e+00 +0.0000000000000000e+00 +2.9999999995191773e-01 -3.1010425478187191e-05 +0.0000000000000000e+00 +9.9999999951917673e-01
4.0000000000000002e-01 +9.0449917305546617e+00 +0.0000000000000000e+00 +3.9999999988602708e-01 -4.1347253214629287e-05 +0.0000000000000000e+00 +9.9999999914520232e-01
5.0000000000000000e-01 +9.0449870789876226e+00 +0.0000000000000000e+00 +4.9999999977739651e-01 -5.1684088775899353e-05 +0.0000000000000000e+00 +9.9999999866437750e-01
5.9999999999999998e-01 +9.0449813937366876e+00 +0.0000000000000000e+00 +5.9999999961534090e-01 -6.2020930923426676e-05 +0.0000000000000000e+00 +9.9999999807670203e-01
6.9999999999999996e-01 +9.0449746748012618e+00 +0.0000000000000000e+00 +6.9999999938917523e-01 -7.2357778389033241e-05 +0.0000000000000000e+00 +9.9999999738217593e-01
7.9999999999999993e-01 +9.0449669221808744e+00 +0.0000000000000000e+00 +7.9999999908821440e-01 -8.2694629949956516e-05 +0.0000000000000000e+00 +9.9999999658079908e-01
8.9999999999999991e-01 +9.0449581358751754e+00 +0.0000000000000000e+00 +8.9999999870177338e-01 -9.3031484435668294e-05 +0.0000000000000000e+00 +9.9999999567257147e-01
9.9999999999999989e-01 +9.0449483158839286e+00 +0.0000000000000000e+00 +9.9999999821916707e-01 -1.0336834072787318e-04 +0.0000000000000000e+00 +9.9999999465749312e-01
1.0999999999999999e+00 +9.0449374622070060e+00 +0.0000000000000000e+00 +1.0999999976297103e+00 -1.1370519776050706e-04 +0.0000000000000000e+00 +9.9999999353556401e-01
1.2000000000000000e+00 +9.0449255748443864e+00 +0.0000000000000000e+00 +1.1999999969227182e+00 -1.2404205451973564e-04 +0.0000000000000000e+00 +9.9999999230678438e-01
1.3000000000000000e+00 +9.0449126537961444e+00 +0.0000000000000000e+00 +1.2999999960875055e+00 -1.3437891004395281e-04 +0.0000000000000000e+00 +9.9999999097115433e-01
1.4000000000000001e+00 +9.0448986990624487e+00 +0.0000000000000000e+00 +1.3999999951133872e+00 -1.4471576342377926e-04 +0.0000000000000000e+00 +9.9999998952867397e-01
1.5000000000000002e+00 +9.0448837106435587e+00 +0.0000000000000000e+00 +1.4999999939896784e+00 -1.5505261380206089e-04 +0.0000000000000000e+00 +9.9999998797934353e-01
1.6000000000000003e+00 +9.0448676885398154e+00 +0.0000000000000000e+00 +1.5999999927056943e+00 -1.6538946037386728e-04 +0.0000000000000000e+00 +9.9999998632316323e-01
1.7000000000000004e+00 +9.0448506327516363e+00 +0.0000000000000000e+00 +1.6999999912507495e+00 -1.7572630238649027e-04 +0.0000000000000000e+00 +9.9999998456013328e-01
1.8000000000000005e+00 +9.0448325432795134e+00 +0.0000000000000000e+00 +1.7999999896141592e+00 -1.8606313913944230e-04 +0.0000000000000000e+00 +9.9999998269025403e-01
1.9000000000000006e+00 +9.0448134201240062e+00 +0.0000000000000000e+00 +1.8999999877852385e+00 -1.9639996998445505e-04 +0.0000000000000000e+00 +9.9999998071352580e-01
2.0000000000000004e+00 +9.0447932632857349e+00 +0.0000000000000000e+00 +1.9999999857533026e+00 -2.0673679432547780e-04 +0.0000000000000000e+00 +9.9999997862994883e-01
2.1000000000000005e+00 +9.0447720727653760e+00 +0.0000000000000000e+00 +2.0999999835076668e+00 -2.1707361161867598e-04 +0.0000000000000000e+00 +9.9999997643952343e-01
2.2000000000000006e+00 +9.0447498485636615e+00 +0.0000000000000000e+00 +2.1999999810376458e+00 -2.2741042137242967e-04 +0.0000000000000000e+00 +9.9999997414224995e-01
2.3000000000000007e+00 +9.0447265906813676e+00 +0.0000000000000000e+00 +2.2999999783325551e+00 -2.3774722314733209e-04 +0.0000000000000000e+00 +9.9999997173812871e-01
2.4000000000000008e+00 +9.0447022991193116e+00 +0.0000000000000000e+00 +2.3999999753817098e+00 -2.4808401655618804e-04 +0.0000000000000000e+00 +9.9999996922716006e-01
2.5000000000000009e+00 +9.0446769738783459e+00 +0.0000000000000000e+00 +2.4999999721744253e+00 -2.5842080126401248e-04 +0.0000000000000000e+00 +9.9999996660934432e-01
2.6000000000000010e+00 +9.0446506149593571e+00 +0.0000000000000000e+00 +2.5999999687000170e+00 -2.6875757698631528e-04 +0.0000000000000000e+00 +9.9999996388468193e-01
2.7000000000000011e+00 +9.0446232223632563e+00 +0.0000000000000000e+00 +2.6999999649478004e+00 -2.7909434347025091e-04 +0.0000000000000000e+00 +9.9999996105317313e-01
2.8000000000000012e+00 +9.0445947960909798e+00 +0.0000000000000000e+00 +2.7999999609070905e+00 -2.8943110047576843e-04 +0.0000000000000000e+00 +9.9999995811481834e-01
2.9000000000000012e+00 +9.0445653361434850e+00 +0.0000000000000000e+00 +2.8999999565672026e+00 -2.9976784777389806e-04 +0.0000000000000000e+00 +9.9999995506961792e-01
3.0000000000000013e+00 +9.0445348425217560e+00 +0.0000000000000000e+00 +2.9999999519174523e+00 -3.1010458514675105e-04 +0.0000000000000000e+00 +9.9999995191757218e-01
3.1000000000000014e+00 +9.0445033152267946e+00 +0.0000000000000000e+00 +3.0999999469471553e+00 -3.2044131238752002e-04 +0.0000000000000000e+00 +9.9999994865868158e-01
3.2000000000000015e+00 +9.0444707542596241e+00 +0.0000000000000000e+00 +3.1999999416456273e+00 -3.3077802930047925e-04 +0.0000000000000000e+00 +9.9999994529294645e-01
3.3000000000000016e+00 +9.0444371596212854e+00 +0.0000000000000000e+00 +3.2999999360021834e+00 -3.4111473570098511e-04 +0.0000000000000000e+00 +9.9999994182036711e-01
3.4000000000000017e+00 +9.0444025313128407e+00 +0.0000000000000000e+00 +3.3999999300061394e+00 -3.5145143141547671e-04 +0.0000000000000000e+00 +9.9999993824094402e-01
3.5000000000000018e+00 +9.0443668693353647e+00 +0.0000000000000000e+00 +3.4999999236468109e+00 -3.6178811628147651e-04 +0.0000000000000000e+00 +9.9999993455467762e-01
3.6000000000000019e+00 +9.0443301736899517e+00 +0.0000000000000000e+00 +3.5999999169135135e+00 -3.7212479014759128e-04 +0.0000000000000000e+00 +9.9999993076156823e-01
3.7000000000000020e+00 +9.0442924443777066e+00 +0.0000000000000000e+00 +3.6999999097955629e+00 -3.8246145287351295e-04 +0.0000000000000000e+00 +9.9999992686161621e-01
3.8000000000000020e+00 +9.0442536813997521e+00 +0.0000000000000000e+00 +3.7999999022822752e+00 -3.9279810433001980e-04 +0.0000000000000000e+00 +9.9999992285482198e-01
3.9000000000000021e+00 +9.0442138847572195e+00 +0.0000000000000000e+00 +3.8999998943629661e+00 -4.0313474439897761e-04 +0.0000000000000000e+00 +9.9999991874118599e-01
4.0000000000000018e+00 +9.0441730544512549e+00 +0.0000000000000000e+00 +3.9999998860269512e+00 -4.1347137297334101e-04 +0.0000000000000000e+00 +9.9999991452070858e-01
4.1000000000000014e+00 +9.0441311904830108e+00 +0.0000000000000000e+00 +4.0999998772635466e+00 -4.2380798995715499e-04 +0.0000000000000000e+00 +9.9999991019339018e-01
4.2000000000000011e+00 +9.0440882928536528e+00 +0.0000000000000000e+00 +4.1999998680620685e+00 -4.3414459526555654e-04 +0.0000000000000000e+00 +9.9999990575923114e-01
4.3000000000000007e+00 +9.0440443615643495e+00 +0.0000000000000000e+00 +4.2999998584118320e+00 -4.4448118882477622e-04 +0.0000000000000000e+00 +9.9999990121823190e-01
4.4000000000000004e+00 +9.0439993966162806e+00 +0.0000000000000000e+00 +4.3999998483021532e+00 -4.5481777057214021e-04 +0.0000000000000000e+00 +9.9999989657039279e-01
4.5000000000000000e+00 +9.0439533980106308e+00 +0.0000000000000000e+00 +4.4999998377223491e+00 -4.6515434045607215e-04 +0.0000000000000000e+00 +9.9999989181571425e-01
4.5999999999999996e+00 +9.0439063657485868e+00 +0.0000000000000000e+00 +4.5999998266617350e+00 -4.7549089843507158e-04 +0.0000000000000000e+00 +9.9999988695419673e-01
4.6999999999999993e+00 +9.0438582998313422e+00 +0.0000000000000000e+00 +4.6999998151096269e+00 -4.8582744446645429e-04 +0.0000000000000000e+00 +9.9999988198584056e-01
4.7999999999999989e+00 +9.0438092002600943e+00 +0.0000000000000000e+00 +4.7999998030553419e+00 -4.9616397849508735e-04 +0.0000000000000000e+00 +9.9999987691064607e-01
4.8999999999999986e+00 +9.0437590670360457e+00 +0.0000000000000000e+00 +4.8999997904881951e+00 -5.0650050045235773e-04 +0.0000000000000000e+00 +9.9999987172861371e-01
4.9999999999999982e+00 +9.0437079001604079e+00 +0.0000000000000000e+00 +4.9999997773975036e+00 -5.1683701025616443e-04 +0.0000000000000000e+00 +9.9999986643974392e-01
5.0999999999999979e+00 +9.0436556996344013e+00 +0.0000000000000000e+00 +5.0999997637725833e+00 -5.2717350781090967e-04 +0.0000000000000000e+00 +9.9999986104403715e-01
5.1999999999999975e+00 +9.0436024654592568e+00 +0.0000000000000000e+00 +5.1999997496027506e+00 -5.3750999300749007e-04 +0.0000000000000000e+00 +9.9999985554149373e-01
5.2999999999999972e+00 +9.0435481976362162e+00 +0.0000000000000000e+00 +5.2999997348773213e+00 -5.4784646572328768e-04 +0.0000000000000000e+00 +9.9999984993211422e-01
5.3999999999999968e+00 +9.0434928961665335e+00 +0.0000000000000000e+00 +5.3999997195856126e+00 -5.5818292582215988e-04 +0.0000000000000000e+00 +9.9999984421589905e-01
5.4999999999999964e+00 +9.0434365610514771e+00 +0.0000000000000000e+00 +5.4999997037169406e+00 -5.6851937315442953e-04 +0.0000000000000000e+00 +9.9999983839284867e-01
5.5999999999999961e+00 +9.0433791922923330e+00 +0.0000000000000000e+00 +5.5999996872606213e+00 -5.7885580755687443e-04 +0.0000000000000000e+00 +9.9999983246296353e-01
5.6999999999999957e+00 +9.0433207898904033e+00 +0.0000000000000000e+00 +5.6999996702059716e+00 -5.8919222885271639e-04 +0.0000000000000000e+00 +9.9999982642624419e-01
5.7999999999999954e+00 +9.0432613538470061e+00 +0.0000000000000000e+00 +5.7999996525423088e+00 -5.9952863685161007e-04 +0.0000000000000000e+00 +9.9999982028269119e-01
5.8999999999999950e+00 +9.0432008841634826e+00 +0.0000000000000000e+00 +5.8999996342589487e+00 -6.0986503134963124e-04 +0.0000000000000000e+00 +9.9999981403230498e-01
5.9999999999999947e+00 +9.0431393808411933e+00 +0.0000000000000000e+00 +5.9999996153452084e+00 -6.2020141212926455e-04 +0.0000000000000000e+00 +9.9999980767508623e-01
6.0999999999999943e+00 +9.0430768438815221e+00 +0.0000000000000000e+00 +6.0999995957904050e+00 -6.3053777895939159e-04 +0.0000000000000000e+00 +9.9999980121103538e-01
6.1999999999999940e+00 +9.0430132732858759e+00 +0.0000000000000000e+00 +6.1999995755838544e+00 -6.4087413159527736e-04 +0.0000000000000000e+00 +9.9999979464015309e-01
6.2999999999999936e+00 +9.0429486690556864e+00 +0.0000000000000000e+00 +6.2999995547148746e+00 -6.5121046977855757e-04 +0.0000000000000000e+00 +9.9999978796244005e-01
6.3999999999999932e+00 +9.0428830311924120e+00 +0.0000000000000000e+00 +6.3999995331727817e+00 -6.6154679323722466e-04 +0.0000000000000000e+00 +9.9999978117789678e-01
6.4999999999999929e+00 +9.0428163596975395e+00 +0.0000000000000000e+00 +6.4999995109468927e+00 -6.7188310168561378e-04 +0.0000000000000000e+00 +9.9999977428652387e-01
6.5999999999999925e+00 +9.0427486545725859e+00 +0.0000000000000000e+00 +6.5999994880265254e+00 -6.8221939482620544e-04 +0.0000000000000000e+00 +9.9999976728832207e-01
6.6999999999999922e+00 +9.0426799158190949e+00 +0.0000000000000000e+00 +6.6999994644009959e+00 -6.9255567236959986e-04 +0.0000000000000000e+00 +9.9999976018329206e-01
6.7999999999999918e+00 +9.0426101434386403e+00 +0.0000000000000000e+00 +6.7999994400596222e+00 -7.0289193405450668e-04 +0.0000000000000000e+00 +9.9999975297143451e-01
6.8999999999999915e+00 +9.0425393374328209e+00 +0.0000000000000000e+00 +6.8999994149917221e+00 -7.1322817964957440e-04 +0.0000000000000000e+00 +9.9999974565275007e-01
6.9999999999999911e+00 +9.0424674978032549e+00 +0.0000000000000000e+00 +6.9999993891866117e+00 -7.2356440895340391e-04 +0.0000000000000000e+00 +9.9999973822723931e-01
7.0999999999999908e+00 +9.0423946245515801e+00 +0.0000000000000000e+00 +7.0999993626336089e+00 -7.3390062179456257e-04 +0.0000000000000000e+00 +9.9999973069490289e-01
7.1999999999999904e+00 +9.0423207176794502e+00 +0.0000000000000000e+00 +7.1999993353220315e+00 -7.4423681803159906e-04 +0.0000000000000000e+00 +9.9999972305574147e-01
7.2999999999999901e+00 +9.0422457771885316e+00 +0.0000000000000000e+00 +7.2999993072411966e+00 -7.5457299755305905e-04 +0.0000000000000000e+00 +9.9999971530975562e-01
7.3999999999999897e+00 +9.0421698030804993e+00 +0.0000000000000000e+00 +7.3999992783804220e+00 -7.6490916027750094e-04 +0.0000000000000000e+00 +9.9999970745694589e-01
7.4999999999999893e+00 +9.0420927953570374e+00 +0.0000000000000000e+00 +7.4999992487290248e+00 -7.7524530615351284e-04 +0.0000000000000000e+00 +9.9999969949731293e-01
7.5999999999999890e+00 +9.0420147540198315e+00 +0.0000000000000000e+00 +7.5999992182763236e+00 -7.8558143515972990e-04 +0.0000000000000000e+00 +9.9999969143085721e-01
7.6999999999999886e+00 +9.0419356790705674e+00 +0.0000000000000000e+00 +7.6999991870116355e+00 -7.9591754730485231e-04 +0.0000000000000000e+00 +9.9999968325757926e-01
7.7999999999999883e+00 +9.0418555705109309e+00 +0.0000000000000000e+00 +7.7999991549242784e+00 -8.0625364262766391e-04 +0.0000000000000000e+00 +9.9999967497747955e-01
7.8999999999999879e+00 +9.0417744283426007e+00 +0.0000000000000000e+00 +7.8999991220035701e+00 -8.1658972119705178e-04 +0.0000000000000000e+00 +9.9999966659055850e-01
7.9999999999999876e+00 +9.0416922525672465e+00 +0.0000000000000000e+00 +7.9999990882388294e+00 -8.2692578311202569e-04 +0.0000000000000000e+00 +9.9999965809681668e-01
8.0999999999999872e+00 +9.0416090431865292e+00 +0.0000000000000000e+00 +8.0999990536193724e+00 -8.3726182850173917e-04 +0.0000000000000000e+00 +9.9999964949625431e-01
8.1999999999999869e+00 +9.0415248002020920e+00 +0.0000000000000000e+00 +8.1999990181345197e+00 -8.4759785752551041e-04 +0.0000000000000000e+00 +9.9999964078887194e-01
8.2999999999999865e+00 +9.0414395236155638e+00 +0.0000000000000000e+00 +8.2999989817735873e+00 -8.5793387037284439e-04 +0.0000000000000000e+00 +9.9999963197466979e-01
8.3999999999999861e+00 +9.0413532134285504e+00 +0.0000000000000000e+00 +8.3999989445258940e+00 -8.6826986726345524e-04 +0.0000000000000000e+00 +9.9999962305364820e-01
8.4999999999999858e+00 +9.0412658696426345e+00 +0.0000000000000000e+00 +8.4999989063807568e+00 -8.7860584844728928e-04 +0.0000000000000000e+00 +9.9999961402580750e-01
8.5999999999999854e+00 +9.0411774922593739e+00 +0.0000000000000000e+00 +8.5999988673274945e+00 -8.8894181420186118e-04 +0.0000000000000000e+00 +9.9999960489114792e-01
8.6999999999999851e+00 +9.0410880812802983e+00 +0.0000000000000000e+00 +8.6999988273554258e+00 -8.9927776480270432e-04 +0.0000000000000000e+00 +9.9999959564966956e-01
8.7999999999999847e+00 +9.0409976367069103e+00 +0.0000000000000000e+00 +8.7999987864538678e+00 -9.0961370049379815e-04 +0.0000000000000000e+00 +9.9999958630137276e-01
8.8999999999999844e+00 +9.0409061585406896e+00 +0.0000000000000000e+00 +8.8999987446121391e+00 -9.1994962148486377e-04 +0.0000000000000000e+00 +9.9999957684625784e-01
8.9999999999999840e+00 +9.0408136467830982e+00 +0.0000000000000000e+00 +8.9999987018195586e+00 -9.3028552795134615e-04 +0.0000000000000000e+00 +9.9999956728432504e-01
9.0999999999999837e+00 +9.0407201014355802e+00 +0.0000000000000000e+00 +9.0999986580654433e+00 -9.4062142003439593e-04 +0.0000000000000000e+00 +9.9999955761557469e-01
9.1999999999999833e+00 +9.0406255224995675e+00 +0.0000000000000000e+00 +9.1999986133391118e+00 -9.5095729784085061e-04 +0.0000000000000000e+00 +9.9999954784000711e-01
9.2999999999999829e+00 +9.0405299099764846e+00 +0.0000000000000000e+00 +9.2999985676298831e+00 -9.6129316144321524e-04 +0.0000000000000000e+00 +9.9999953795762264e-01
9.3999999999999826e+00 +9.0404332638677509e+00 +0.0000000000000000e+00 +9.3999985209270758e+00 -9.7162901087964257e-04 +0.0000000000000000e+00 +9.9999952796842173e-01
9.4999999999999822e+00 +9.0403355841747803e+00 +0.0000000000000000e+00 +9.4999984732200069e+00 -9.8196484615391245e-04 +0.0000000000000000e+00 +9.9999951787240482e-01
9.5999999999999819e+00 +9.0402368708989922e+00 +0.0000000000000000e+00 +9.5999984244979952e+00 -9.9230066723541080e-04 +0.0000000000000000e+00 +9.9999950766957224e-01
9.6999999999999815e+00 +9.0401371240418076e+00 +0.0000000000000000e+00 +9.6999983747503595e+00 -1.0026364740591080e-03 +0.0000000000000000e+00 +9.9999949735992466e-01
9.7999999999999812e+00 +9.0400363436046582e+00 +0.0000000000000000e+00 +9.7999983239664186e+00 -1.0129722665255369e-03 +0.0000000000000000e+00 +9.9999948694346252e-01
9.8999999999999808e+00 +9.0399345295889848e+00 +0.0000000000000000e+00 +9.8999982721354911e+00 -1.0233080445007699e-03 +0.0000000000000000e+00 +9.9999947642018649e-01
9.9999999999999805e+00 +9.0398316819962456e+00 +0.0000000000000000e+00 +9.9999982192468959e+00 -1.0336438078163959e-03 +0.0000000000000000e+00 +9.9999946579009713e-01
1.0099999999999980e+01 +9.0397278008279169e+00 +0.0000000000000000e+00 +1.0099998165289950e+01 -1.0439795562694960e-03 +0.0000000000000000e+00 +9.9999945505319510e-01
1.0199999999999980e+01 +9.0396228860854961e+00 +0.0000000000000000e+00 +1.0199998110253974e+01 -1.0543152896226192e-03 +0.0000000000000000e+00 +9.9999944420948117e-01
1.0299999999999979e+01 +9.0395169377705056e+00 +0.0000000000000000e+00 +1.0299998054128286e+01 -1.0646510076037581e-03 +0.0000000000000000e+00 +9.9999943325895602e-01
1.0399999999999979e+01 +9.0394099558844978e+00 +0.0000000000000000e+00 +1.0399997996902206e+01 -1.0749867099063223e-03 +0.0000000000000000e+00 +9.9999942220162041e-01
1.0499999999999979e+01 +9.0393019404290573e+00 +0.0000000000000000e+00 +1.0499997938565050e+01 -1.0853223961891131e-03 +0.0000000000000000e+00 +9.9999941103747525e-01
1.0599999999999978e+01 +9.0391928914058060e+00 +0.0000000000000000e+00 +1.0599997879106141e+01 -1.0956580660793998e-03 +0.0000000000000000e+00 +9.9999939976652152e-01
1.0699999999999978e+01 +9.0390828088164010e+00 +0.0000000000000000e+00 +1.0699997818514795e+01 -1.1059937192070359e-03 +0.0000000000000000e+00 +9.9999938838876001e-01
1.0799999999999978e+01 +9.0389716926625354e+00 +0.0000000000000000e+00 +1.0799997756780332e+01 -1.1163293552386036e-03 +0.0000000000000000e+00 +9.9999937690419172e-01
1.0899999999999977e+01 +9.0388595429459340e+00 +0.0000000000000000e+00 +1.0899997693892072e+01 -1.1266649738805351e-03 +0.0000000000000000e+00 +9.9999936531281741e-01
1.0999999999999977e+01 +9.0387463596683482e+00 +0.0000000000000000e+00 +1.0999997629839335e+01 -1.1370005748791332e-03 +0.0000000000000000e+00 +9.9999935361463799e-01
1.1099999999999977e+01 +9.0386321428315544e+00 +0.0000000000000000e+00 +1.1099997564611440e+01 -1.1473361580205922e-03 +0.0000000000000000e+00 +9.9999934180965422e-01
1.1199999999999976e+01 +9.0385168924373467e+00 +0.0000000000000000e+00 +1.1199997498197707e+01 -1.1576717231310183e-03 +0.0000000000000000e+00 +9.9999932989786677e-01
1.1299999999999976e+01 +9.0384006084875352e+00 +0.0000000000000000e+00 +1.1299997430587455e+01 -1.1680072700764512e-03 +0.0000000000000000e+00 +9.9999931787927643e-01
1.1399999999999975e+01 +9.0382832909839408e+00 +0.0000000000000000e+00 +1.1399997361770003e+01 -1.1783427987628872e-03 +0.0000000000000000e+00 +9.9999930575388385e-01
1.1499999999999975e+01 +9.0381649399283930e+00 +0.0000000000000000e+00 +1.1499997291734672e+01 -1.1886783091363006e-03 +0.0000000000000000e+00 +9.9999929352168970e-01
1.1599999999999975e+01 +9.0380455553227250e+00 +0.0000000000000000e+00 +1.1599997220470781e+01 -1.1990138011826678e-03 +0.0000000000000000e+00 +9.9999928118269454e-01
1.1699999999999974e+01 +9.0379251371687666e+00 +0.0000000000000000e+00 +1.1699997147967650e+01 -1.2093492749279905e-03 +0.0000000000000000e+00 +9.9999926873689882e-01
1.1799999999999974e+01 +9.0378036854683472e+00 +0.0000000000000000e+00 +1.1799997074214600e+01 -1.2196847304383205e-03 +0.0000000000000000e+00 +9.9999925618430308e-01
