# multipoles
# s[mm] polynom_b[n=0][T/m^n] polynom_b[n=1][T/m^n] polynom_b[n=2][T/m^n] polynom_b[n=3][T/m^n] polynom_b[n=4][T/m^n] polynom_b[n=5][T/m^n] polynom_b[n=6][T/m^n] 
+0.0000000000000000e+00 -1.0599033224798713e+00 +2.3599468131738370e+00 +2.0404731008153838e+01 +5.8236593078235401e+01 +3.6272328512864360e+03 +4.8955663780911872e+05 +8.0058798877287479e+06 
-1.0000000000000001e-01 -1.0599030426498073e+00 +2.3599772039824281e+00 +2.0404996793617297e+01 +5.7149250377559319e+01 +3.6325822309143596e+03 +4.9654780272217939e+05 +8.0554588614213886e+06 
-2.0000000000000001e-01 -1.0599027685887106e+00 +2.3600047991574260e+00 +2.0405272520056325e+01 +5.6088317860811046e+01 +3.6355089222052948e+03 +5.0356169907480956e+05 +8.1227722910145354e+06 
-3.0000000000000004e-01 -1.0599025004271518e+00 +2.3600297964331221e+00 +2.0405558739577767e+01 +5.5051824707013196e+01 +3.6362920815143448e+03 +5.1060085450133897e+05 +8.2054112290334515e+06 
-4.0000000000000002e-01 -1.0599022382957193e+00 +2.3600523935412090e+00 +2.0405856006859992e+01 +5.4037800193760035e+01 +3.6352108194874486e+03 +5.1766779599387950e+05 +8.3009668947846359e+06 
-5.0000000000000000e-01 -1.0599019823249558e+00 +2.3600727882182775e+00 +2.0406164872294458e+01 +5.3044273458499809e+01 +3.6325443221075916e+03 +5.2476505136717996e+05 +8.4070301324429922e+06 
-5.9999999999999998e-01 -1.0599017326454576e+00 +2.3600911781993572e+00 +2.0406485893770284e+01 +5.2069273696740730e+01 +3.6285716269501950e+03 +5.3189514808625844e+05 +8.5211924823505636e+06 
-6.9999999999999996e-01 -1.0599014893876986e+00 +2.3601077612172512e+00 +2.0406819614726604e+01 +5.1110830189729903e+01 +3.6235720429715525e+03 +5.3906061309695616e+05 +8.6410441821229197e+06 
-7.9999999999999993e-01 -1.0599012526822815e+00 +2.3601227350089014e+00 +2.0407166595747746e+01 +5.0166972099852643e+01 +3.6178245404952431e+03 +5.4626397408465529e+05 +8.7641771057241149e+06 
-8.9999999999999991e-01 -1.0599010226596937e+00 +2.3601362973008997e+00 +2.0407527383088404e+01 +4.9235728911271465e+01 +3.6116083560744937e+03 +5.5350775687224336e+05 +8.8881818742234651e+06 
-9.9999999999999989e-01 -1.0599007994505103e+00 +2.3601486458196215e+00 +2.0407902535649523e+01 +4.8315130123727506e+01 +3.6052024723119421e+03 +5.6079448724354280e+05 +9.0106503539411984e+06 
-1.0999999999999999e+00 -1.0599005831852943e+00 +2.3601599782836900e+00 +2.0408292610601524e+01 +4.7403205484264433e+01 +3.5988858917349926e+03 +5.6812668957731442e+05 +9.1291743678826503e+06 
-1.2000000000000000e+00 -1.0599003739946142e+00 +2.3601704924078799e+00 +2.0408698166936759e+01 +4.6497984852197753e+01 +3.5929375668677362e+03 +5.7550688770241116e+05 +9.2413460348312259e+06 
-1.3000000000000000e+00 -1.0599001720090588e+00 +2.3601803858977628e+00 +2.0409119767110145e+01 +4.5597498379420365e+01 +3.5876363661312703e+03 +5.8293760379895999e+05 +9.3447579499508999e+06 
-1.4000000000000001e+00 -1.0598999773592497e+00 +2.3601898564532187e+00 +2.0409557977181130e+01 +4.4699776401661559e+01 +3.5832610760106850e+03 +5.9042135905952787e+05 +9.4370031694916245e+06 
-1.5000000000000002e+00 -1.0598997901758624e+00 +2.3601991017613644e+00 +2.0410013371477316e+01 +4.3802849628127390e+01 +3.5800902993692089e+03 +5.9796067264819436e+05 +9.5156757369851153e+06 
-1.6000000000000003e+00 -1.0598996105895380e+00 +2.3602083195009769e+00 +2.0410486520102630e+01 +4.2904749030242463e+01 +3.5784027009941751e+03 +6.0555806230720738e+05 +9.5783695000606105e+06 
-1.7000000000000004e+00 -1.0598994387310370e+00 +2.3602177073370703e+00 +2.0410978008154785e+01 +4.2003506002497446e+01 +3.5784766380644323e+03 +6.1321604342989298e+05 +9.6226798887906764e+06 
-1.8000000000000005e+00 -1.0598992747311267e+00 +2.3602274629261659e+00 +2.0411488422522979e+01 +4.1097152192024822e+01 +3.5805904049615024e+03 +6.2093713011009386e+05 +9.6462027734591700e+06 
-1.9000000000000006e+00 -1.0598991187206077e+00 +2.3602377839048345e+00 +2.0412018354321965e+01 +4.0183719854657085e+01 +3.5850221922000915e+03 +6.2872383302977099e+05 +9.6465346543323286e+06 
-2.0000000000000004e+00 -1.0598989708303757e+00 +2.3602488678980493e+00 +2.0412568406617716e+01 +3.9261241579869960e+01 +3.5920499321449051e+03 +6.3657866114281921e+05 +9.6212734248692356e+06 
-2.1000000000000005e+00 -1.0598988311053585e+00 +2.3602608861660044e+00 +2.0413143204546920e+01 +3.8328195039105744e+01 +3.6017623583661039e+03 +6.4450065643886733e+05 +9.5692619913387019e+06 
-2.2000000000000006e+00 -1.0598986992090524e+00 +2.3602738944836190e+00 +2.0413758817235248e+01 +3.7385226649650306e+01 +3.6135871798327726e+03 +6.5247233604997338e+05 +9.4938825182452388e+06 
-2.3000000000000007e+00 -1.0598985747001153e+00 +2.3602879173799369e+00 +2.0414433015545207e+01 +3.6433618246057549e+01 +3.6268104614761237e+03 +6.6047143659902364e+05 +9.3995446758228093e+06 
-2.4000000000000008e+00 -1.0598984571371994e+00 +2.3603029793694206e+00 +2.0415183567936257e+01 +3.5474652176296004e+01 +3.6407183387951100e+03 +6.6847569141145621e+05 +9.2906577498611715e+06 
-2.5000000000000009e+00 -1.0598983460789630e+00 +2.3603191049708121e+00 +2.0416028241182904e+01 +3.4509610780693876e+01 +3.6545970047568244e+03 +6.7646283345294069e+05 +9.1716307033016905e+06 
-2.6000000000000010e+00 -1.0598982410840054e+00 +2.3603363186976161e+00 +2.0416984790437148e+01 +3.3539776668131587e+01 +3.6677329176500316e+03 +6.8441059370421863e+05 +9.0468711329087429e+06 
-2.7000000000000011e+00 -1.0598981417109612e+00 +2.3603546450604691e+00 +2.0418070973721733e+01 +3.2566432654204824e+01 +3.6794125086854319e+03 +6.9229670149111713e+05 +8.9207867044037618e+06 
-2.8000000000000012e+00 -1.0598980475183737e+00 +2.3603741085746686e+00 +2.0419304532605388e+01 +3.1590861559447927e+01 +3.6889225757887943e+03 +7.0009888558721624e+05 +8.7977832063481454e+06 
-2.9000000000000012e+00 -1.0598979580648207e+00 +2.3603947337492408e+00 +2.0420703210247694e+01 +3.0614346520532703e+01 +3.6955499265362655e+03 +7.0779487239794468e+05 +8.6822662857436631e+06 
-3.0000000000000013e+00 -1.0598978729088260e+00 +2.3604165450951622e+00 +2.0422284738236183e+01 +2.9638170768751610e+01 +3.6985816470589807e+03 +7.1536238719378132e+05 +8.5786401144528557e+06 
-3.1000000000000014e+00 -1.0598977916088512e+00 +2.3604395671245713e+00 +2.0424066836335637e+01 +2.8663617667639734e+01 +3.6973050993557131e+03 +7.2277915382007777e+05 +8.4913074258011095e+06 
-3.2000000000000015e+00 -1.0598977137233370e+00 +2.3604638243518568e+00 +2.0426067216442522e+01 +2.7691970686458959e+01 +3.6910078630265098e+03 +7.3002289481799689e+05 +8.4246697374449186e+06 
-3.3000000000000016e+00 -1.0598976388106927e+00 +2.3604893412899952e+00 +2.0428303582220849e+01 +2.6724513494116792e+01 +3.6789777343247306e+03 +7.3707133090561361e+05 +8.3831273819848308e+06 
-3.4000000000000017e+00 -1.0598975664292705e+00 +2.3605161424557610e+00 +2.0430793624417284e+01 +2.5762529852012886e+01 +3.6605028267928201e+03 +7.4390218144855683e+05 +8.3710789914849093e+06 
-3.5000000000000018e+00 -1.0598974961373624e+00 +2.3605442523707376e+00 +2.0433555020773017e+01 +2.4807303569930287e+01 +3.6348715783137168e+03 +7.5049316473976511e+05 +8.3929214488506652e+06 
-3.6000000000000019e+00 -1.0598974274932427e+00 +2.3605736955583945e+00 +2.0436605441294343e+01 +2.3860118600764686e+01 +3.6013726466665721e+03 +7.5682199740733963e+05 +8.4530503964337967e+06 
-3.7000000000000020e+00 -1.0598973600550758e+00 +2.3606044965417676e+00 +2.0439962535411762e+01 +2.2922259124991761e+01 +3.5592951706385093e+03 +7.6286639385223307e+05 +8.5558589441442415e+06 
-3.8000000000000020e+00 -1.0598972933809954e+00 +2.3606366798537506e+00 +2.0443643942664625e+01 +2.1995009249457837e+01 +3.5079285622466132e+03 +7.6860406799054903e+05 +8.7057386694156025e+06 
-3.9000000000000021e+00 -1.0598972270290881e+00 +2.3606702700332041e+00 +2.0447667289803888e+01 +2.1079653142592171e+01 +3.4465625684799561e+03 +7.7401273238073289e+05 +8.9070793050423712e+06 
-4.0000000000000018e+00 -1.0598971605573171e+00 +2.3607052916155751e+00 +2.0452050180872330e+01 +2.0177475287244683e+01 +3.3744874671727889e+03 +7.7907009699665906e+05 +9.1642678035552632e+06 
-4.1000000000000014e+00 -1.0598970934845797e+00 +2.3607417152630417e+00 +2.0456799262394803e+01 +1.9290126270417495e+01 +3.2912911213857942e+03 +7.8375819981690787e+05 +9.4801233038190715e+06 
-4.2000000000000011e+00 -1.0598970252605429e+00 +2.3607793135580497e+00 +2.0461892277813419e+01 +1.8420022773471043e+01 +3.1974872527366911e+03 +7.8808038242412207e+05 +9.8521958988350388e+06 
-4.3000000000000007e+00 -1.0598969553393056e+00 +2.3608178134211375e+00 +2.0467303422682260e+01 +1.7569600442180242e+01 +3.0937571527825635e+03 +7.9204639429347136e+05 +1.0276955643411292e+07 
-4.4000000000000004e+00 -1.0598968831749329e+00 +2.3608569417758369e+00 +2.0473006892187076e+01 +1.6741294690954692e+01 +2.9807820692617588e+03 +7.9566598705834651e+05 +1.0750872919569436e+07 
-4.5000000000000000e+00 -1.0598968082215183e+00 +2.3608964255555192e+00 +2.0478976892215549e+01 +1.5937540509743235e+01 +2.8592429784176643e+03 +7.9894891550657502e+05 +1.1270419573602231e+07 
-4.5999999999999996e+00 -1.0598967299330728e+00 +2.3609359917065906e+00 +2.0485187623416355e+01 +1.5160772367916980e+01 +2.7298208925324534e+03 +8.0190493816443870e+05 +1.1832067444960145e+07 
-4.6999999999999993e+00 -1.0598966477636456e+00 +2.3609753671823959e+00 +2.0491613298111563e+01 +1.4413424376333847e+01 +2.5931965279286228e+03 +8.0454381641993194e+05 +1.2432289969587356e+07 
-4.7999999999999989e+00 -1.0598965611672879e+00 +2.3610142789473096e+00 +2.0498228135960758e+01 +1.3697930153917149e+01 +2.4500503784770417e+03 +8.0687531535556866e+05 +1.3067561857364763e+07 
-4.8999999999999986e+00 -1.0598964695979913e+00 +2.3610524539757152e+00 +2.0505006356515555e+01 +1.3016722850830332e+01 +2.3010628634835648e+03 +8.0890920365950593e+05 +1.3734358362173790e+07 
-4.9999999999999982e+00 -1.0598963725097468e+00 +2.3610896192550883e+00 +2.0511922186996141e+01 +1.2372235034270435e+01 +2.1469141646985913e+03 +8.1065525436993700e+05 +1.4429156105813324e+07 
-5.0999999999999979e+00 -1.0598962693565563e+00 +2.3611255017850228e+00 +2.0518949864853024e+01 +1.1766898715092236e+01 +1.9882841744796187e+03 +8.1212324475455412e+05 +1.5148433325523986e+07 
-5.1999999999999975e+00 -1.0598961595923864e+00 +2.3611598285755231e+00 +2.0526063631187089e+01 +1.1203145374997794e+01 +1.8258526196249923e+03 +8.1332295622471825e+05 +1.5888669291163869e+07 
-5.2999999999999972e+00 -1.0598960426711999e+00 +2.3611923266554049e+00 +2.0533237736500784e+01 +1.0683405718865986e+01 +1.6602989432139154e+03 +8.1426417582194100e+05 +1.6646344885532552e+07 
-5.3999999999999968e+00 -1.0598959180469658e+00 +2.3612227230594720e+00 +2.0540446441721240e+01 +1.0210110028902481e+01 +1.4923022793110601e+03 +8.1495669420923374e+05 +1.7417942743927598e+07 
-5.4999999999999964e+00 -1.0598957851736130e+00 +2.3612507448474900e+00 +2.0547664012727719e+01 +9.7856875972320232e+00 +1.3225415552118534e+03 +8.1541030905617052e+05 +1.8199946768594526e+07 
-5.5999999999999961e+00 -1.0598956435050566e+00 +2.3612761190822318e+00 +2.0554864724396687e+01 +9.4125673548265958e+00 +1.1516954084018987e+03 +8.1563482142107550e+05 +1.8988842538228832e+07 
-5.6999999999999957e+00 -1.0598954924952468e+00 +2.3612985728512972e+00 +2.0562022867073221e+01 +9.0931772382369260e+00 +9.8044205660177363e+02 +8.1564003943848005e+05 +1.9781117947012253e+07 
-5.7999999999999954e+00 -1.0598953315980773e+00 +2.3613178332518938e+00 +2.0569112735520775e+01 +8.8299445871029238e+00 +8.0945950498227853e+02 +8.1543577617562399e+05 +2.0573262220753063e+07 
-5.8999999999999950e+00 -1.0598951602674460e+00 +2.3613336274045467e+00 +2.0576108637139029e+01 +8.6252957590139587e+00 +6.3942538236975770e+02 +8.1503185183647345e+05 +2.1361766720107984e+07 
-5.9999999999999947e+00 -1.0598949779572335e+00 +2.3613456824451968e+00 +2.0582984889935268e+01 +8.4816563369005404e+00 +4.7101697071872593e+02 +8.1443809227418923e+05 +2.2143124789157148e+07 
-6.0999999999999943e+00 -1.0598947843816180e+00 +2.3613538067791517e+00 +2.0589719646032162e+01 +8.4001689999929763e+00 +3.0481827151648213e+02 +8.1366728885764908e+05 +2.2914380275823358e+07 
-6.1999999999999940e+00 -1.0598945802358397e+00 +2.3613581445156986e+00 +2.0596291685617427e+01 +8.3771971588108265e+00 +1.4130599476021035e+02 +8.1274109795643447e+05 +2.3673725662929703e+07 
-6.2999999999999936e+00 -1.0598943664455815e+00 +2.3613589273358118e+00 +2.0602676246723870e+01 +8.4079885581201168e+00 -1.9005794027922008e+01 +8.1168257328309922e+05 +2.4419395331888802e+07 
-6.3999999999999932e+00 -1.0598941439365617e+00 +2.3613563869328127e+00 +2.0608848569339877e+01 +8.4877904970360056e+00 -1.7560306165498761e+02 +8.1051477055973618e+05 +2.5149623815777671e+07 
-6.4999999999999929e+00 -1.0598939136345207e+00 +2.3613507550238082e+00 +2.0614783895628960e+01 +8.6118493605800275e+00 -3.2797181406602874e+02 +8.0926075077408866e+05 +2.5862645809906300e+07 
-6.5999999999999925e+00 -1.0598936764652926e+00 +2.3613422633451622e+00 +2.0620457478271195e+01 +8.7754107433840787e+00 -4.7559824791709821e+02 +8.0794357944518246e+05 +2.6556696874155600e+07 
-6.6999999999999922e+00 -1.0598934333547867e+00 +2.3613311436529671e+00 +2.0625844577464491e+01 +8.9737194276884207e+00 -6.1796868881789999e+02 +8.0658632675235928e+05 +2.7230013123245936e+07 
-6.7999999999999918e+00 -1.0598931852289328e+00 +2.3613176277245098e+00 +2.0630920454386239e+01 +9.2020193461436328e+00 -7.5456946758647598e+02 +8.0521206770396559e+05 +2.7880830640465572e+07 
-6.8999999999999915e+00 -1.0598929330137852e+00 +2.3613019473607229e+00 +2.0635660384446982e+01 +9.4555534775497172e+00 -8.8488717768174627e+02 +8.0384388280204963e+05 +2.8507386716137107e+07 
-6.9999999999999911e+00 -1.0598926776354050e+00 +2.3612843343825403e+00 +2.0640039641521792e+01 +9.7295639768028614e+00 -1.0084083608325601e+03 +8.0250485719462472e+05 +2.9107918310882080e+07 
-7.0999999999999908e+00 -1.0598924200199942e+00 +2.3612650206337991e+00 +2.0644033515457313e+01 +1.0019292064567466e+01 -1.1246198528863381e+03 +8.0121808134739369e+05 +2.9680663737729780e+07 
-7.1999999999999904e+00 -1.0598921610937568e+00 +2.3612442379823970e+00 +2.0647617293882487e+01 +1.0319977993883576e+01 -1.2330084239332627e+03 +8.0000665122032829e+05 +3.0223860908192877e+07 
-7.2999999999999901e+00 -1.0598919017830499e+00 +2.3612222183208837e+00 +2.0650766281760653e+01 +1.0626861017898040e+01 -1.3330611613138387e+03 +7.9889366845782264e+05 +3.0735749187503804e+07 
-7.3999999999999897e+00 -1.0598916430142615e+00 +2.3611991935617622e+00 +2.0653455784743663e+01 +1.0935179536498525e+01 -1.4242651376395286e+03 +7.9790223948523030e+05 +3.1214567769714460e+07 
-7.4999999999999893e+00 -1.0598913857138916e+00 +2.3611753956509949e+00 +2.0655661120523931e+01 +1.1240170675113859e+01 -1.5061076377206882e+03 +7.9705547800020198e+05 +3.1658556787526950e+07 
-7.5999999999999890e+00 -1.0598911308084840e+00 +2.3611510565507765e+00 +2.0657357609476779e+01 +1.1537070793644251e+01 -1.5780759748479556e+03 +7.9637650195935264e+05 +3.2065956423860323e+07 
-7.6999999999999886e+00 -1.0598908792247239e+00 +2.3611264082530363e+00 +2.0658520586557511e+01 +1.1821115085713366e+01 -1.6396577107362830e+03 +7.9588843590799707e+05 +3.2435007936581582e+07 
-7.7999999999999883e+00 -1.0598906318893579e+00 +2.3611016827794482e+00 +2.0659125391679574e+01 +1.2087537571923411e+01 -1.6903404806245751e+03 +7.9561441100387170e+05 +3.2763952851498451e+07 
-7.8999999999999879e+00 -1.0598903897292689e+00 +2.3610771121743563e+00 +2.0659147378610054e+01 +1.2331571288885337e+01 -1.7296121540120771e+03 +7.9557756392561633e+05 +3.3051033700766008e+07 
-7.9999999999999876e+00 -1.0598901536713750e+00 +2.3610529285068678e+00 +2.0658561902498853e+01 +1.2548448543235587e+01 -1.7569605667397354e+03 +7.9580103369474807e+05 +3.3294492561621405e+07 
-8.0999999999999872e+00 -1.0598899242650388e+00 +2.3610293331698293e+00 +2.0657349847863202e+01 +1.2734793843284848e+01 -1.7720079301465439e+03 +7.9629725297630543e+05 +3.3492956389477395e+07 
-8.1999999999999869e+00 -1.0598897004922234e+00 +2.3610063556957952e+00 +2.0655509794541981e+01 +1.2892977253613818e+01 -1.7748900729953268e+03 +7.9703899320587283e+05 +3.3646797822500192e+07 
-8.2999999999999865e+00 -1.0598894809293757e+00 +2.3609839697179176e+00 +2.0653044027696154e+01 +1.3026889850060460e+01 -1.7658684663480344e+03 +7.9798952135063021e+05 +3.3756871330578528e+07 
-8.3999999999999861e+00 -1.0598892641528310e+00 +2.3609621488473955e+00 +2.0649954809981125e+01 +1.3140423893009148e+01 -1.7452040429455360e+03 +7.9911209557716246e+05 +3.3824028532570414e+07 
-8.4999999999999858e+00 -1.0598890487387769e+00 +2.3609408666551981e+00 +2.0646244375561686e+01 +1.3237473481878355e+01 -1.7131570806373725e+03 +8.0036996123181796e+05 +3.3849117632668130e+07 
-8.5999999999999854e+00 -1.0598888332632976e+00 +2.3609200966884418e+00 +2.0641914936684728e+01 +1.3321934078076790e+01 -1.6699873349918037e+03 +8.0172635363204475e+05 +3.3832984071863890e+07 
-8.6999999999999851e+00 -1.0598886163023498e+00 +2.3608998124600253e+00 +2.0636968679390851e+01 +1.3397702850798790e+01 -1.6159539488677899e+03 +8.0314449591974262e+05 +3.3776470074594229e+07 
-8.7999999999999847e+00 -1.0598883964317698e+00 +2.3608799874502377e+00 +2.0631407764265791e+01 +1.3468678632633813e+01 -1.5513154602741113e+03 +8.0458759931465646e+05 +3.3680414667989530e+07 
-8.8999999999999844e+00 -1.0598881722272266e+00 +2.3608605951091692e+00 +2.0625234320221068e+01 +1.3538761891083865e+01 -1.4763296844657373e+03 +8.0601886316223652e+05 +3.3545653124086212e+07 
-8.9999999999999840e+00 -1.0598879422642833e+00 +2.3608416088435118e+00 +2.0618450452545385e+01 +1.3611855115494450e+01 -1.3912538675272754e+03 +8.0740147268140549e+05 +3.3373017692108035e+07 
-9.0999999999999837e+00 -1.0598877051183269e+00 +2.3608230020300818e+00 +2.0611058232712182e+01 +1.3691862462015859e+01 -1.2963444789168370e+03 +8.0869860090762551e+05 +3.3163336573268816e+07 
-9.1999999999999833e+00 -1.0598874593646355e+00 +2.3608047480065673e+00 +2.0603059707358650e+01 +1.3782690036716353e+01 -1.1918573874933691e+03 +8.0987340702229249e+05 +3.2917434775617059e+07 
-9.2999999999999829e+00 -1.0598872035783240e+00 +2.3607868200713606e+00 +2.0594456891231250e+01 +1.3888245920729346e+01 -1.0780477227450474e+03 +8.1088903613959474e+05 +3.2636133439033192e+07 
-9.3999999999999826e+00 -1.0598869363343337e+00 +2.3607691914812410e+00 +2.0585251764796634e+01 +1.4012440262538794e+01 -9.5516982275122223e+02 +8.1170861869768065e+05 +3.2320249572933085e+07 
-9.4999999999999822e+00 -1.0598866562074409e+00 +2.3607518354543391e+00 +2.0575446275569991e+01 +1.4159185226067285e+01 -8.2347725598283694e+02 +8.1229527067467233e+05 +3.1970596149435081e+07 
-9.5999999999999819e+00 -1.0598863617723402e+00 +2.3607347251684407e+00 +2.0565042348980587e+01 +1.4332395027836887e+01 -6.8322303286750275e+02 +8.1261209339742502e+05 +3.1587983124404453e+07 
-9.6999999999999815e+00 -1.0598860516034332e+00 +2.3607178337519703e+00 +2.0554041859431308e+01 +1.4535986265524675e+01 -5.3465903583298621e+02 +8.1262217144614609e+05 +3.1173214672637127e+07 
-9.7999999999999812e+00 -1.0598857242750643e+00 +2.3607011342933588e+00 +2.0542446662282991e+01 +1.4773877632982471e+01 -3.7803664265521525e+02 +8.1228857434864843e+05 +3.0727092195540503e+07 
-9.8999999999999808e+00 -1.0598853783613391e+00 +2.3606845998354724e+00 +2.0530258568918310e+01 +1.5049990116316328e+01 -2.1360623749904917e+02 +8.1157435534328897e+05 +3.0250411955998313e+07 
-9.9999999999999805e+00 -1.0598850124361594e+00 +2.3606682033724349e+00 +2.0517479350411410e+01 +1.5368246631717529e+01 -4.1617328230773651e+01 +8.1044255516625487e+05 +2.9743965852482777e+07 
-1.0099999999999980e+01 -1.0598846256202075e+00 +2.3606519120426355e+00 +2.0504127637245578e+01 +1.5731388584198102e+01 +1.3745769957162031e+02 +8.0886712915591232e+05 +2.9209512413257081e+07 
