# field on trajectory
# s[mm] rx[mm] ry[mm] rz[mm] bx[T] by[T] bz[T]
-0.0000000000000000e+00 +9.1076201166355002e+00 +0.0000000000000000e+00 -0.0000000000000000e+00 +1.1126157754166635e-02 -1.0320103964334970e+00 -5.8952144712102625e-02
-1.0005104645227200e-01 +9.1076196006322601e+00 +0.0000000000000000e+00 -1.0005104645049701e-01 +1.1126204883512498e-02 -1.0320061968809118e+00 -5.8951493546790620e-02
-2.0010209290454301e-01 +9.1076180526189905e+00 +0.0000000000000000e+00 -2.0010209289035000e-01 +1.1126255303496599e-02 -1.0320020744026328e+00 -5.8950834351117247e-02
-3.0015313935681498e-01 +9.1076154725992300e+00 +0.0000000000000000e+00 -3.0015313930891202e-01 +1.1126307820721123e-02 -1.0319980351766516e+00 -5.8950167943095724e-02
-4.0020418580908601e-01 +9.1076118605712200e+00 +0.0000000000000000e+00 -4.0020418569554000e-01 +1.1126361241787836e-02 -1.0319940853802596e+00 -5.8949495140741111e-02
-5.0025523226135804e-01 +9.1076072165331805e+00 +0.0000000000000000e+00 -5.0025523203958799e-01 +1.1126414373291420e-02 -1.0319902311900264e+00 -5.8948816762070297e-02
-6.0030627871362996e-01 +9.1076015404886608e+00 +0.0000000000000000e+00 -6.0030627833041095e-01 +1.1126466021812761e-02 -1.0319864787817796e+00 -5.8948133625101831e-02
-7.0035732516590099e-01 +9.1075948324376501e+00 +0.0000000000000000e+00 -7.0035732455736299e-01 +1.1126514993912685e-02 -1.0319828343306250e+00 -5.8947446547857676e-02
-8.0040837161817302e-01 +9.1075870923766207e+00 +0.0000000000000000e+00 -8.0040837070980198e-01 +1.1126560096125343e-02 -1.0319793040109340e+00 -5.8946756348363508e-02
-9.0045941807044405e-01 +9.1075783203073204e+00 +0.0000000000000000e+00 -9.0045941677707997e-01 +1.1126600134951486e-02 -1.0319758939963191e+00 -5.8946063844648462e-02
-1.0005104645227201e+00 +9.1075685162297706e+00 +0.0000000000000000e+00 -1.0005104627485499e+00 +1.1126633916852076e-02 -1.0319726104596427e+00 -5.8945369854746361e-02
-1.1005615109749900e+00 +9.1075576801457405e+00 +0.0000000000000000e+00 -1.1005615086135800e+00 +1.1126660248241662e-02 -1.0319694595730036e+00 -5.8944675196695905e-02
-1.2006125574272599e+00 +9.1075458120516792e+00 +0.0000000000000000e+00 -1.2006125543615100e+00 +1.1126677935482020e-02 -1.0319664475077468e+00 -5.8943980688542008e-02
-1.3006636038795301e+00 +9.1075329119511395e+00 +0.0000000000000000e+00 -1.3006635999817000e+00 +1.1126685784875261e-02 -1.0319635804344267e+00 -5.8943287148334918e-02
-1.4007146503318000e+00 +9.1075189798405596e+00 +0.0000000000000000e+00 -1.4007146454635000e+00 +1.1126682602657680e-02 -1.0319608645228349e+00 -5.8942595394132380e-02
-1.5007656967840699e+00 +9.1075040157234994e+00 +0.0000000000000000e+00 -1.5007656907962801e+00 +1.1126667194993020e-02 -1.0319583059419588e+00 -5.8941906243998497e-02
-1.6008167432363500e+00 +9.1074880195981898e+00 +0.0000000000000000e+00 -1.6008167359693799e+00 +1.1126638758242607e-02 -1.0319559089586059e+00 -5.8941220381876880e-02
-1.7008677896886200e+00 +9.1074709914646199e+00 +0.0000000000000000e+00 -1.7008677809721600e+00 +1.1126598014393066e-02 -1.0319536704058110e+00 -5.8940537967376271e-02
-1.8009188361408901e+00 +9.1074529313228005e+00 +0.0000000000000000e+00 -1.8009188257939699e+00 +1.1126546058203483e-02 -1.0319515852997838e+00 -5.8939859031993683e-02
-1.9009698825931600e+00 +9.1074338391727103e+00 +0.0000000000000000e+00 -1.9009698704241800e+00 +1.1126483984461108e-02 -1.0319496486559825e+00 -5.8939183607221932e-02
-2.0010209290454299e+00 +9.1074137150161505e+00 +0.0000000000000000e+00 -2.0010209148521301e+00 +1.1126412887990600e-02 -1.0319478554891048e+00 -5.8938511724548073e-02
-2.1010719754977001e+00 +9.1073925588495506e+00 +0.0000000000000000e+00 -2.1010719590671898e+00 +1.1126333863663514e-02 -1.0319462008131146e+00 -5.8937843415453127e-02
-2.2011230219499698e+00 +9.1073703706746993e+00 +0.0000000000000000e+00 -2.2011230030586999e+00 +1.1126248006407342e-02 -1.0319446796412080e+00 -5.8937178711409639e-02
-2.3011740684022501e+00 +9.1073471504933696e+00 +0.0000000000000000e+00 -2.3011740468160200e+00 +1.1126156411214953e-02 -1.0319432869858327e+00 -5.8936517643881234e-02
-2.4012251148545198e+00 +9.1073228983037797e+00 +0.0000000000000000e+00 -2.4012250903285000e+00 +1.1126060173153998e-02 -1.0319420178586962e+00 -5.8935860244321701e-02
-2.5012761613067900e+00 +9.1072976141041497e+00 +0.0000000000000000e+00 -2.5012761335854998e+00 +1.1125960387376101e-02 -1.0319408672707582e+00 -5.8935206544173488e-02
-2.6013272077590601e+00 +9.1072712978980501e+00 +0.0000000000000000e+00 -2.6013271765763899e+00 +1.1125858149126065e-02 -1.0319398302322158e+00 -5.8934556574865980e-02
-2.7013782542113298e+00 +9.1072439496836903e+00 +0.0000000000000000e+00 -2.7013782192905000e+00 +1.1125754553751420e-02 -1.0319389017525353e+00 -5.8933910367815416e-02
-2.8014293006636000e+00 +9.1072155694610704e+00 +0.0000000000000000e+00 -2.8014292617172001e+00 +1.1125650696711566e-02 -1.0319380768404316e+00 -5.8933267954423010e-02
-2.9014803471158799e+00 +9.1071861572302009e+00 +0.0000000000000000e+00 -2.9014803038458301e+00 +1.1125547673587107e-02 -1.0319373505038751e+00 -5.8932629366073921e-02
-3.0015313935681500e+00 +9.1071557129910694e+00 +0.0000000000000000e+00 -3.0015313456657702e+00 +1.1125446580089184e-02 -1.0319367177500922e+00 -5.8931994634136127e-02
-3.1015824400204202e+00 +9.1071242367454595e+00 +0.0000000000000000e+00 -3.1015823871663502e+00 +1.1125348512068693e-02 -1.0319361735855603e+00 -5.8931363789959029e-02
-3.2016334864726899e+00 +9.1070917284915893e+00 +0.0000000000000000e+00 -3.2016334283369399e+00 +1.1125254565525775e-02 -1.0319357130160276e+00 -5.8930736864872893e-02
-3.3016845329249600e+00 +9.1070581882277004e+00 +0.0000000000000000e+00 -3.3016844691668901e+00 +1.1125165836618987e-02 -1.0319353310464967e+00 -5.8930113890187229e-02
-3.4017355793772301e+00 +9.1070236159573206e+00 +0.0000000000000000e+00 -3.4017355096455599e+00 +1.1125083421674497e-02 -1.0319350226812187e+00 -5.8929494897189141e-02
-3.5017866258295101e+00 +9.1069880116786806e+00 +0.0000000000000000e+00 -3.5017865497623002e+00 +1.1125008417193973e-02 -1.0319347829237229e+00 -5.8928879917142636e-02
-3.6018376722817802e+00 +9.1069513753917892e+00 +0.0000000000000000e+00 -3.6018375895064700e+00 +1.1124941611488224e-02 -1.0319346074909663e+00 -5.8928268871605981e-02
-3.7018887187340499e+00 +9.1069137070966395e+00 +0.0000000000000000e+00 -3.7018886288674100e+00 +1.1124882623771652e-02 -1.0319344948070361e+00 -5.8927661266276556e-02
-3.8019397651863200e+00 +9.1068750067950095e+00 +0.0000000000000000e+00 -3.8019396678344899e+00 +1.1124830796138246e-02 -1.0319344439372238e+00 -5.8927056508325804e-02
-3.9019908116385902e+00 +9.1068352744833394e+00 +0.0000000000000000e+00 -3.9019907063970600e+00 +1.1124785470578628e-02 -1.0319344539464801e+00 -5.8926454004943819e-02
-4.0020418580908599e+00 +9.1067945101634198e+00 +0.0000000000000000e+00 -4.0020417445444796e+00 +1.1124745988969205e-02 -1.0319345238994067e+00 -5.8925853163339884e-02
-4.1020929045431300e+00 +9.1067527138370199e+00 +0.0000000000000000e+00 -4.1020927822660997e+00 +1.1124711693061767e-02 -1.0319346528602982e+00 -5.8925253390744538e-02
-4.2021439509954099e+00 +9.1067098855023705e+00 +0.0000000000000000e+00 -4.2021438195512797e+00 +1.1124681924473042e-02 -1.0319348398931734e+00 -5.8924654094411971e-02
-4.3021949974476801e+00 +9.1066660251594502e+00 +0.0000000000000000e+00 -4.3021948563893604e+00 +1.1124656024673999e-02 -1.0319350840617858e+00 -5.8924054681620854e-02
-4.4022460438999502e+00 +9.1066211328065094e+00 +0.0000000000000000e+00 -4.4022458927697201e+00 +1.1124633334979419e-02 -1.0319353844296608e+00 -5.8923454559676576e-02
-4.5022970903522204e+00 +9.1065752084488594e+00 +0.0000000000000000e+00 -4.5022969286816901e+00 +1.1124613196537056e-02 -1.0319357400600913e+00 -5.8922853135911918e-02
-4.6023481368044896e+00 +9.1065282520811692e+00 +0.0000000000000000e+00 -4.6023479641146396e+00 +1.1124594950317640e-02 -1.0319361500162141e+00 -5.8922249817690724e-02
-4.7023991832567598e+00 +9.1064802637070095e+00 +0.0000000000000000e+00 -4.7023989990579196e+00 +1.1124577937103738e-02 -1.0319366133609780e+00 -5.8921644012407334e-02
-4.8024502297090397e+00 +9.1064312433245895e+00 +0.0000000000000000e+00 -4.8024500335008904e+00 +1.1124561497479635e-02 -1.0319371291572110e+00 -5.8921035127490022e-02
-4.9025012761613098e+00 +9.1063811909321402e+00 +0.0000000000000000e+00 -4.9025010674329002e+00 +1.1124544971820615e-02 -1.0319376964676261e+00 -5.8920422570401941e-02
-5.0025523226135800e+00 +9.1063301065332105e+00 +0.0000000000000000e+00 -5.0025521008432996e+00 +1.1124527700282279e-02 -1.0319383143548337e+00 -5.8919805748642355e-02
-5.1026033690658501e+00 +9.1062779901260207e+00 +0.0000000000000000e+00 -5.1026031337214599e+00 +1.1124509022790267e-02 -1.0319389818813935e+00 -5.8919184069749435e-02
-5.2026544155181202e+00 +9.1062248417123506e+00 +0.0000000000000000e+00 -5.2026541660567203e+00 +1.1124488279029499e-02 -1.0319396981098157e+00 -5.8918556941301013e-02
-5.3027054619703904e+00 +9.1061706612886404e+00 +0.0000000000000000e+00 -5.3027051978384501e+00 +1.1124464808433838e-02 -1.0319404621026098e+00 -5.8917923770917140e-02
-5.4027565084226703e+00 +9.1061154488584606e+00 +0.0000000000000000e+00 -5.4027562290559903e+00 +1.1124437950175215e-02 -1.0319412729222741e+00 -5.8917283966260711e-02
-5.5028075548749404e+00 +9.1060592044200206e+00 +0.0000000000000000e+00 -5.5028072596986997e+00 +1.1124407043157335e-02 -1.0319421296313782e+00 -5.8916636935045133e-02
-5.6028586013272097e+00 +9.1060019279733204e+00 +0.0000000000000000e+00 -5.6028582897559396e+00 +1.1124371618790653e-02 -1.0319430325158125e+00 -5.8915982328693432e-02
-5.7029096477794798e+00 +9.1059436195183707e+00 +0.0000000000000000e+00 -5.7029093192170599e+00 +1.1124331917309575e-02 -1.0319439863595914e+00 -5.8915320694741820e-02
-5.8029606942317500e+00 +9.1058842790551608e+00 +0.0000000000000000e+00 -5.8029603480714202e+00 +1.1124288342004705e-02 -1.0319449969796584e+00 -5.8914652786770744e-02
-5.9030117406840201e+00 +9.1058239065854707e+00 +0.0000000000000000e+00 -5.9030113763083696e+00 +1.1124241296342530e-02 -1.0319460701920162e+00 -5.8913979358499007e-02
-6.0030627871363000e+00 +9.1057625021075204e+00 +0.0000000000000000e+00 -6.0030624039172604e+00 +1.1124191183975441e-02 -1.0319472118117217e+00 -5.8913301163789698e-02
-6.1031138335885702e+00 +9.1057000656213205e+00 +0.0000000000000000e+00 -6.1031134308874604e+00 +1.1124138408751450e-02 -1.0319484276528512e+00 -5.8912618956654866e-02
-6.2031648800408403e+00 +9.1056365971268605e+00 +0.0000000000000000e+00 -6.2031644572083096e+00 +1.1124083374724144e-02 -1.0319497235284849e+00 -5.8911933491261059e-02
-6.3032159264931096e+00 +9.1055720966241402e+00 +0.0000000000000000e+00 -6.3032154828691800e+00 +1.1124026486162548e-02 -1.0319511052506860e+00 -5.8911245521934538e-02
-6.4032669729453797e+00 +9.1055065641149504e+00 +0.0000000000000000e+00 -6.4032665078594100e+00 +1.1123968147560986e-02 -1.0319525786304786e+00 -5.8910555803166585e-02
-6.5033180193976499e+00 +9.1054399995957205e+00 +0.0000000000000000e+00 -6.5033175321683601e+00 +1.1123908763649146e-02 -1.0319541494778435e+00 -5.8909865089619325e-02
-6.6033690658499298e+00 +9.1053724030699996e+00 +0.0000000000000000e+00 -6.6033685557853898e+00 +1.1123848739401618e-02 -1.0319558236016668e+00 -5.8909174136129873e-02
-6.7034201123021999e+00 +9.1053037745378091e+00 +0.0000000000000000e+00 -6.7034195786998501e+00 +1.1123788480048099e-02 -1.0319576068097476e+00 -5.8908483697716743e-02
-6.8034711587544701e+00 +9.1052341139955892e+00 +0.0000000000000000e+00 -6.8034706009011003e+00 +1.1123728391083259e-02 -1.0319595049087766e+00 -5.8907794529584966e-02
-6.9035222052067402e+00 +9.1051634214468908e+00 +0.0000000000000000e+00 -6.9035216223784897e+00 +1.1123668878276344e-02 -1.0319615237042921e+00 -5.8907107387130619e-02
-7.0035732516590103e+00 +9.1050916968899305e+00 +0.0000000000000000e+00 -7.0035726431213803e+00 +1.1123610347681412e-02 -1.0319636690006857e+00 -5.8906423025947070e-02
-7.1036242981112796e+00 +9.1050189403247099e+00 +0.0000000000000000e+00 -7.1036236631191203e+00 +1.1123553205647035e-02 -1.0319659466011704e+00 -5.8905742201829835e-02
-7.2036753445635497e+00 +9.1049451517530091e+00 +0.0000000000000000e+00 -7.2036746823610702e+00 +1.1123497858826171e-02 -1.0319683623077556e+00 -5.8905065670781631e-02
-7.3037263910158297e+00 +9.1048703311712806e+00 +0.0000000000000000e+00 -7.3037257008365799e+00 +1.1123444714186291e-02 -1.0319709219212487e+00 -5.8904394189018577e-02
-7.4037774374680998e+00 +9.1047944785830701e+00 +0.0000000000000000e+00 -7.4037767185350001e+00 +1.1123394179018885e-02 -1.0319736312412000e+00 -5.8903728512974214e-02
-7.5038284839203699e+00 +9.1047175939865994e+00 +0.0000000000000000e+00 -7.5038277354457001e+00 +1.1123346660943251e-02 -1.0319764960657067e+00 -5.8903069399300803e-02
-7.6038795303726401e+00 +9.1046396773836609e+00 +0.0000000000000000e+00 -7.6038787515580202e+00 +1.1123302438139981e-02 -1.0319795180235229e+00 -5.8902417503161060e-02
-7.7039305768249102e+00 +9.1045607287706805e+00 +0.0000000000000000e+00 -7.7039297668613296e+00 +1.1123261325987651e-02 -1.0319826838757582e+00 -5.8901773117006818e-02
-7.8039816232771804e+00 +9.1044807481512198e+00 +0.0000000000000000e+00 -7.8039807813449800e+00 +1.1123223036442120e-02 -1.0319859770709539e+00 -5.8901136452336376e-02
-7.9040326697294496e+00 +9.1043997355235007e+00 +0.0000000000000000e+00 -7.9040317949983097e+00 +1.1123187281150517e-02 -1.0319893810587948e+00 -5.8900507720526254e-02
-8.0040837161817304e+00 +9.1043176908892995e+00 +0.0000000000000000e+00 -8.0040828078106898e+00 +1.1123153771439522e-02 -1.0319928792901447e+00 -5.8899887132824055e-02
-8.1041347626340006e+00 +9.1042346142468507e+00 +0.0000000000000000e+00 -8.1041338197714801e+00 +1.1123122218304141e-02 -1.0319964552171230e+00 -5.8899274900343031e-02
-8.2041858090862707e+00 +9.1041505055961398e+00 +0.0000000000000000e+00 -8.2041848308700196e+00 +1.1123092332396100e-02 -1.0320000922931487e+00 -5.8898671234055455e-02
-8.3042368555385409e+00 +9.1040653649371706e+00 +0.0000000000000000e+00 -8.3042358410956805e+00 +1.1123063824012435e-02 -1.0320037739730021e+00 -5.8898076344786429e-02
-8.4042879019908092e+00 +9.1039791922699393e+00 +0.0000000000000000e+00 -8.4042868504377992e+00 +1.1123036403084060e-02 -1.0320074837128816e+00 -5.8897490443207884e-02
-8.5043389484430794e+00 +9.1038919875980202e+00 +0.0000000000000000e+00 -8.5043378588857408e+00 +1.1123009779164195e-02 -1.0320112049704544e+00 -5.8896913739831920e-02
-8.6043899948953602e+00 +9.1038037509160592e+00 +0.0000000000000000e+00 -8.6043888664288701e+00 +1.1122983661417283e-02 -1.0320149212049436e+00 -5.8896346445005958e-02
-8.7044410413476303e+00 +9.1037144822276108e+00 +0.0000000000000000e+00 -8.7044398730565202e+00 +1.1122957758607036e-02 -1.0320186158771434e+00 -5.8895788768904660e-02
-8.8044920877999004e+00 +9.1036241815309200e+00 +0.0000000000000000e+00 -8.8044908787580596e+00 +1.1122931779085368e-02 -1.0320222724495107e+00 -5.8895240921525253e-02
-8.9045431342521706e+00 +9.1035328488259601e+00 +0.0000000000000000e+00 -8.9045418835228496e+00 +1.1122905430780736e-02 -1.0320258743862054e+00 -5.8894703112680621e-02
-9.0045941807044407e+00 +9.1034404841127508e+00 +0.0000000000000000e+00 -9.0045928873402303e+00 +1.1122878421186751e-02 -1.0320294051531542e+00 -5.8894175551993187e-02
-9.1046452271567109e+00 +9.1033470873930593e+00 +0.0000000000000000e+00 -9.1046438901995597e+00 +1.1122850457350647e-02 -1.0320328482181027e+00 -5.8893658448888692e-02
-9.2046962736089899e+00 +9.1032526586651095e+00 +0.0000000000000000e+00 -9.2046948920902096e+00 +1.1122821245862009e-02 -1.0320361870506882e+00 -5.8893152012590433e-02
-9.3047473200612600e+00 +9.1031571979306793e+00 +0.0000000000000000e+00 -9.3047458930015097e+00 +1.1122790492841055e-02 -1.0320394051224782e+00 -5.8892656452112349e-02
-9.4047983665135302e+00 +9.1030607051879997e+00 +0.0000000000000000e+00 -9.4047968929228301e+00 +1.1122757903927439e-02 -1.0320424859070469e+00 -5.8892171976253550e-02
-9.5048494129658003e+00 +9.1029631804370599e+00 +0.0000000000000000e+00 -9.5048478918435304e+00 +1.1122723184281756e-02 -1.0320454128805125e+00 -5.8891698793580777e-02
-9.6049004594180705e+00 +9.1028646236796291e+00 +0.0000000000000000e+00 -9.6048988897529508e+00 +1.1122686171924854e-02 -1.0320481744914038e+00 -5.8891237002990669e-02
-9.7049515058703406e+00 +9.1027650349139595e+00 +0.0000000000000000e+00 -9.7049498866404598e+00 +1.1122647166137197e-02 -1.0320507763878539e+00 -5.8890786324567318e-02
-9.8050025523226108e+00 +9.1026644141418007e+00 +0.0000000000000000e+00 -9.8050008824953991e+00 +1.1122606566255841e-02 -1.0320532279364603e+00 -5.8890346396576990e-02
-9.9050535987748898e+00 +9.1025627613596107e+00 +0.0000000000000000e+00 -9.9050518773071392e+00 +1.1122564772014568e-02 -1.0320555385052592e+00 -5.8889916857336355e-02
-1.0005104645227201e+01 +9.1024600765709298e+00 +0.0000000000000000e+00 -1.0005102871065001e+01 +1.1122522183555472e-02 -1.0320577174637344e+00 -5.8889497345212601e-02
-1.0105155691679400e+01 +9.1023563597757793e+00 +0.0000000000000000e+00 -1.0105153863758400e+01 +1.1122479201441137e-02 -1.0320597741828750e+00 -5.8889087498625675e-02
-1.0205206738131700e+01 +9.1022516109723703e+00 +0.0000000000000000e+00 -1.0205204855376600e+01 +1.1122436226666530e-02 -1.0320617180352105e+00 -5.8888686956049457e-02
-1.0305257784584001e+01 +9.1021458301607101e+00 +0.0000000000000000e+00 -1.0305255845909100e+01 +1.1122393660670776e-02 -1.0320635583948343e+00 -5.8888295356012546e-02
-1.0405308831036200e+01 +9.1020390173425607e+00 +0.0000000000000000e+00 -1.0405306835345099e+01 +1.1122351905349076e-02 -1.0320653046374417e+00 -5.8887912337099807e-02
-1.0505359877488500e+01 +9.1019311725161600e+00 +0.0000000000000000e+00 -1.0505357823674100e+01 +1.1122311363064751e-02 -1.0320669661403761e+00 -5.8887537537953782e-02
-1.0605410923940800e+01 +9.1018222956832808e+00 +0.0000000000000000e+00 -1.0605408810885301e+01 +1.1122272436660955e-02 -1.0320685522826474e+00 -5.8887170597275641e-02
-1.0705461970393101e+01 +9.1017123868421397e+00 +0.0000000000000000e+00 -1.0705459796968199e+01 +1.1122235529472791e-02 -1.0320700724449856e+00 -5.8886811153826865e-02
-1.0805513016845300e+01 +9.1016014459927401e+00 +0.0000000000000000e+00 -1.0805510781912000e+01 +1.1122201045339050e-02 -1.0320715360098629e+00 -5.8886458846430234e-02
-1.0905564063297600e+01 +9.1014894731368603e+00 +0.0000000000000000e+00 -1.0905561765706199e+01 +1.1122169388614114e-02 -1.0320729523615273e+00 -5.8886113313970950e-02
-1.1005615109749900e+01 +9.1013764682745109e+00 +0.0000000000000000e+00 -1.1005612748340100e+01 +1.1122140964179980e-02 -1.0320743308860487e+00 -5.8885774195398345e-02
-1.1105666156202100e+01 +9.1012624314038906e+00 +0.0000000000000000e+00 -1.1105663729803000e+01 +1.1122116177458154e-02 -1.0320756809713532e+00 -5.8885441129727246e-02
-1.1205717202654400e+01 +9.1011473625250208e+00 +0.0000000000000000e+00 -1.1205714710084401e+01 +1.1122095434421456e-02 -1.0320770120072469e+00 -5.8885113756038707e-02
-1.1305768249106700e+01 +9.1010312616396707e+00 +0.0000000000000000e+00 -1.1305765689173500e+01 +1.1122079141605914e-02 -1.0320783333854564e+00 -5.8884791713481537e-02
-1.1405819295559001e+01 +9.1009141287460693e+00 +0.0000000000000000e+00 -1.1405816667059700e+01 +1.1122067706122859e-02 -1.0320796544996718e+00 -5.8884474641273978e-02
-1.1505870342011200e+01 +9.1007959638459806e+00 +0.0000000000000000e+00 -1.1505867643732399e+01 +1.1122061535641695e-02 -1.0320809847452219e+00 -5.8884162178720507e-02
-1.1605921388463500e+01 +9.1006767669376405e+00 +0.0000000000000000e+00 -1.1605918619181001e+01 +1.1122060868610940e-02 -1.0320823314926391e+00 -5.8883854060017032e-02
-1.1705972434915800e+01 +9.1005565380228095e+00 +0.0000000000000000e+00 -1.1705969593394700e+01 +1.1122065373651548e-02 -1.0320836953093642e+00 -5.8883550337744679e-02
