# trajectory
# s[mm] rx[mm] ry[mm] rz[mm] px[rad] py[rad] pz[rad]
0.0000000000000000e+00 +9.1013000000000002e+00 +0.0000000000000000e+00 +0.0000000000000000e+00 +0.0000000000000000e+00 +0.0000000000000000e+00 +1.0000000000000000e+00
-1.0000000000000001e-01 +9.1012994847487949e+00 +0.0000000000000000e+00 -9.9999999998230102e-02 +1.0305020745579595e-05 +0.0000000000000000e+00 +9.9999999994690325e-01
-2.0000000000000001e-01 +9.1012979389965576e+00 +0.0000000000000000e+00 -1.9999999998584087e-01 +2.0610020264905989e-05 +0.0000000000000000e+00 +9.9999999978761356e-01
-3.0000000000000004e-01 +9.1012953627455193e+00 +0.0000000000000000e+00 -2.9999999995221305e-01 +3.0914996469552301e-05 +0.0000000000000000e+00 +9.9999999952213148e-01
-4.0000000000000002e-01 +9.1012917559981030e+00 +0.0000000000000000e+00 -3.9999999988672746e-01 +4.1219947520051514e-05 +0.0000000000000000e+00 +9.9999999915045790e-01
-5.0000000000000000e-01 +9.1012871187569075e+00 +0.0000000000000000e+00 -4.9999999977876497e-01 +5.1524871825894236e-05 +0.0000000000000000e+00 +9.9999999867259370e-01
-5.9999999999999998e-01 +9.1012814510246756e+00 +0.0000000000000000e+00 -5.9999999961770656e-01 +6.1829768045527060e-05 +0.0000000000000000e+00 +9.9999999808853979e-01
-6.9999999999999996e-01 +9.1012747528042723e+00 +0.0000000000000000e+00 -6.9999999939293334e-01 +7.2134635086351466e-05 +0.0000000000000000e+00 +9.9999999739829715e-01
-7.9999999999999993e-01 +9.1012670240986591e+00 +0.0000000000000000e+00 -7.9999999909382646e-01 +8.2439472104723412e-05 +0.0000000000000000e+00 +9.9999999660186667e-01
-8.9999999999999991e-01 +9.1012582649108715e+00 +0.0000000000000000e+00 -8.9999999870976710e-01 +9.2744278505953385e-05 +0.0000000000000000e+00 +9.9999999569924936e-01
-9.9999999999999989e-01 +9.1012484752439899e+00 +0.0000000000000000e+00 -9.9999999823013674e-01 +1.0304905394430711e-04 +0.0000000000000000e+00 +9.9999999469044620e-01
-1.0999999999999999e+00 +9.1012376551011176e+00 +0.0000000000000000e+00 -1.0999999976443169e+00 +1.1335379832300683e-04 +0.0000000000000000e+00 +9.9999999357545821e-01
-1.2000000000000000e+00 +9.1012258044853560e+00 +0.0000000000000000e+00 -1.1999999969416890e+00 +1.2365851179423317e-04 +0.0000000000000000e+00 +9.9999999235428627e-01
-1.3000000000000000e+00 +9.1012129233997765e+00 +0.0000000000000000e+00 -1.2999999961116346e+00 +1.3396319475912763e-04 +0.0000000000000000e+00 +9.9999999102693127e-01
-1.4000000000000001e+00 +9.1011990118473989e+00 +0.0000000000000000e+00 -1.3999999951435358e+00 +1.4426784786779554e-04 +0.0000000000000000e+00 +9.9999998959339409e-01
-1.5000000000000002e+00 +9.1011840698311683e+00 +0.0000000000000000e+00 -1.4999999940267741e+00 +1.5457247201930972e-04 +0.0000000000000000e+00 +9.9999998805367551e-01
-1.6000000000000003e+00 +9.1011680973539235e+00 +0.0000000000000000e+00 -1.5999999927507316e+00 +1.6487706835653263e-04 +0.0000000000000000e+00 +9.9999998640777621e-01
-1.7000000000000004e+00 +9.1011510944183804e+00 +0.0000000000000000e+00 -1.6999999913047901e+00 +1.7518163820911642e-04 +0.0000000000000000e+00 +9.9999998465569684e-01
-1.8000000000000005e+00 +9.1011330610271166e+00 +0.0000000000000000e+00 -1.7999999896783316e+00 +1.8548618303649488e-04 +0.0000000000000000e+00 +9.9999998279743796e-01
-1.9000000000000006e+00 +9.1011139971825550e+00 +0.0000000000000000e+00 -1.8999999878607383e+00 +1.9579070442269080e-04 +0.0000000000000000e+00 +9.9999998083300001e-01
-2.0000000000000004e+00 +9.1010939028869569e+00 +0.0000000000000000e+00 -1.9999999858413924e+00 +2.0609520407630341e-04 +0.0000000000000000e+00 +9.9999997876238333e-01
-2.1000000000000005e+00 +9.1010727781424041e+00 +0.0000000000000000e+00 -2.0999999836096759e+00 +2.1639968383049412e-04 +0.0000000000000000e+00 +9.9999997658558826e-01
-2.2000000000000006e+00 +9.1010506229507886e+00 +0.0000000000000000e+00 -2.1999999811549706e+00 +2.2670414564297066e-04 +0.0000000000000000e+00 +9.9999997430261500e-01
-2.3000000000000007e+00 +9.1010274373138031e+00 +0.0000000000000000e+00 -2.2999999784666594e+00 +2.3700859159596956e-04 +0.0000000000000000e+00 +9.9999997191346357e-01
-2.4000000000000008e+00 +9.1010032212329239e+00 +0.0000000000000000e+00 -2.3999999755341239e+00 +2.4731302389623697e-04 +0.0000000000000000e+00 +9.9999996941813385e-01
-2.5000000000000009e+00 +9.1009779747094015e+00 +0.0000000000000000e+00 -2.4999999723467465e+00 +2.5761744487500773e-04 +0.0000000000000000e+00 +9.9999996681662573e-01
-2.6000000000000010e+00 +9.1009516977442448e+00 +0.0000000000000000e+00 -2.5999999688939095e+00 +2.6792185698798292e-04 +0.0000000000000000e+00 +9.9999996410893888e-01
-2.7000000000000011e+00 +9.1009243903382142e+00 +0.0000000000000000e+00 -2.6999999651649951e+00 +2.7822626281530556e-04 +0.0000000000000000e+00 +9.9999996129507285e-01
-2.8000000000000012e+00 +9.1008960524918017e+00 +0.0000000000000000e+00 -2.7999999611493851e+00 +2.8853066506153482e-04 +0.0000000000000000e+00 +9.9999995837502709e-01
-2.9000000000000012e+00 +9.1008666842052275e+00 +0.0000000000000000e+00 -2.8999999568364614e+00 +2.9883506655561861e-04 +0.0000000000000000e+00 +9.9999995534880082e-01
-3.0000000000000013e+00 +9.1008362854784188e+00 +0.0000000000000000e+00 -2.9999999522156058e+00 +3.0913947025086418e-04 +0.0000000000000000e+00 +9.9999995221639315e-01
-3.1000000000000014e+00 +9.1008048563110027e+00 +0.0000000000000000e+00 -3.0999999472762005e+00 +3.1944387922490749e-04 +0.0000000000000000e+00 +9.9999994897780309e-01
-3.2000000000000015e+00 +9.1007723967022915e+00 +0.0000000000000000e+00 -3.1999999420076271e+00 +3.2974829667968059e-04 +0.0000000000000000e+00 +9.9999994563302930e-01
-3.3000000000000016e+00 +9.1007389066512729e+00 +0.0000000000000000e+00 -3.2999999363992671e+00 +3.4005272594137752e-04 +0.0000000000000000e+00 +9.9999994218207044e-01
-3.4000000000000017e+00 +9.1007043861565950e+00 +0.0000000000000000e+00 -3.3999999304405017e+00 +3.5035717046041828e-04 +0.0000000000000000e+00 +9.9999993862492498e-01
-3.5000000000000018e+00 +9.1006688352165543e+00 +0.0000000000000000e+00 -3.4999999241207123e+00 +3.6066163381141163e-04 +0.0000000000000000e+00 +9.9999993496159112e-01
-3.6000000000000019e+00 +9.1006322538290831e+00 +0.0000000000000000e+00 -3.5999999174292800e+00 +3.7096611967849522e-04 +0.0000000000000000e+00 +9.9999993119206698e-01
-3.7000000000000020e+00 +9.1005946419917478e+00 +0.0000000000000000e+00 -3.6999999103555861e+00 +3.8127063169447701e-04 +0.0000000000000000e+00 +9.9999992731635035e-01
-3.8000000000000020e+00 +9.1005559997017595e+00 +0.0000000000000000e+00 -3.7999999028890104e+00 +3.9157517328001015e-04 +0.0000000000000000e+00 +9.9999992333443921e-01
-3.9000000000000021e+00 +9.1005163269559990e+00 +0.0000000000000000e+00 -3.8999998950189338e+00 +4.0187974762899366e-04 +0.0000000000000000e+00 +9.9999991924633125e-01
-4.0000000000000018e+00 +9.1004756237510414e+00 +0.0000000000000000e+00 -3.9999998867347366e+00 +4.1218435770859772e-04 +0.0000000000000000e+00 +9.9999991505202435e-01
-4.1000000000000014e+00 +9.1004338900831740e+00 +0.0000000000000000e+00 -4.0999998780257982e+00 +4.2248900625929122e-04 +0.0000000000000000e+00 +9.9999991075151617e-01
-4.2000000000000011e+00 +9.1003911259484234e+00 +0.0000000000000000e+00 -4.1999998688814992e+00 +4.3279369579487219e-04 +0.0000000000000000e+00 +9.9999990634480440e-01
-4.3000000000000007e+00 +9.1003473313425722e+00 +0.0000000000000000e+00 -4.2999998592912192e+00 +4.4309842860250077e-04 +0.0000000000000000e+00 +9.9999990183188681e-01
-4.4000000000000004e+00 +9.1003025062611904e+00 +0.0000000000000000e+00 -4.3999998492443364e+00 +4.5340320674273487e-04 +0.0000000000000000e+00 +9.9999989721276117e-01
-4.5000000000000000e+00 +9.1002566506996505e+00 +0.0000000000000000e+00 -4.4999998387302309e+00 +4.6370803204956842e-04 +0.0000000000000000e+00 +9.9999989248742516e-01
-4.5999999999999996e+00 +9.1002097646531546e+00 +0.0000000000000000e+00 -4.5999998277382810e+00 +4.7401290613047214e-04 +0.0000000000000000e+00 +9.9999988765587655e-01
-4.6999999999999993e+00 +9.1001618481167537e+00 +0.0000000000000000e+00 -4.6999998162578658e+00 +4.8431783036643734e-04 +0.0000000000000000e+00 +9.9999988271811313e-01
-4.7999999999999989e+00 +9.1001129010853710e+00 +0.0000000000000000e+00 -4.7999998042783636e+00 +4.9462280591202180e-04 +0.0000000000000000e+00 +9.9999987767413290e-01
-4.8999999999999986e+00 +9.1000629235538284e+00 +0.0000000000000000e+00 -4.8999997917891518e+00 +5.0492783369539881e-04 +0.0000000000000000e+00 +9.9999987252393374e-01
-4.9999999999999982e+00 +9.1000119155168662e+00 +0.0000000000000000e+00 -4.9999997787796095e+00 +5.1523291441840841e-04 +0.0000000000000000e+00 +9.9999986726751366e-01
-5.0999999999999979e+00 +9.0999598769691641e+00 +0.0000000000000000e+00 -5.0999997652391142e+00 +5.2553804855661162e-04 +0.0000000000000000e+00 +9.9999986190487078e-01
-5.1999999999999975e+00 +9.0999068079053664e+00 +0.0000000000000000e+00 -5.1999997511570433e+00 +5.3584323635934706e-04 +0.0000000000000000e+00 +9.9999985643600331e-01
-5.2999999999999972e+00 +9.0998527083201033e+00 +0.0000000000000000e+00 -5.2999997365227740e+00 +5.4614847784979033e-04 +0.0000000000000000e+00 +9.9999985086090959e-01
-5.3999999999999968e+00 +9.0997975782080136e+00 +0.0000000000000000e+00 -5.3999997213256838e+00 +5.5645377282501605e-04 +0.0000000000000000e+00 +9.9999984517958795e-01
-5.4999999999999964e+00 +9.0997414175637701e+00 +0.0000000000000000e+00 -5.4999997055551502e+00 +5.6675912085606248e-04 +0.0000000000000000e+00 +9.9999983939203718e-01
-5.5999999999999961e+00 +9.0996842263820970e+00 +0.0000000000000000e+00 -5.5999996892005504e+00 +5.7706452129492863e-04 +0.0000000000000000e+00 +9.9999983349825594e-01
-5.6999999999999957e+00 +9.0996260046577913e+00 +0.0000000000000000e+00 -5.6999996722512609e+00 +5.8736997335086369e-04 +0.0000000000000000e+00 +9.9999982749824301e-01
-5.7999999999999954e+00 +9.0995667523857353e+00 +0.0000000000000000e+00 -5.7999996546966583e+00 +5.9767547616661264e-04 +0.0000000000000000e+00 +9.9999982139199728e-01
-5.8999999999999950e+00 +9.0995064695608967e+00 +0.0000000000000000e+00 -5.8999996365261191e+00 +6.0798102882533638e-04 +0.0000000000000000e+00 +9.9999981517951786e-01
-5.9999999999999947e+00 +9.0994451561783407e+00 +0.0000000000000000e+00 -5.9999996177290207e+00 +6.1828663035059855e-04 +0.0000000000000000e+00 +9.9999980886080375e-01
-6.0999999999999943e+00 +9.0993828122332321e+00 +0.0000000000000000e+00 -6.0999995982947386e+00 +6.2859227970635180e-04 +0.0000000000000000e+00 +9.9999980243585407e-01
-6.1999999999999940e+00 +9.0993194377208422e+00 +0.0000000000000000e+00 -6.1999995782126502e+00 +6.3889797579692290e-04 +0.0000000000000000e+00 +9.9999979590466803e-01
-6.2999999999999936e+00 +9.0992550326365542e+00 +0.0000000000000000e+00 -6.2999995574721313e+00 +6.4920371746699673e-04 +0.0000000000000000e+00 +9.9999978926724498e-01
-6.3999999999999932e+00 +9.0991895969758705e+00 +0.0000000000000000e+00 -6.3999995360625581e+00 +6.5950950350159943e-04 +0.0000000000000000e+00 +9.9999978252358435e-01
-6.4999999999999929e+00 +9.0991231307344176e+00 +0.0000000000000000e+00 -6.4999995139733073e+00 +6.6981533262608004e-04 +0.0000000000000000e+00 +9.9999977567368548e-01
-6.5999999999999925e+00 +9.0990556339079536e+00 +0.0000000000000000e+00 -6.5999994911937545e+00 +6.8012120350609143e-04 +0.0000000000000000e+00 +9.9999976871754803e-01
-6.6999999999999922e+00 +9.0989871064923715e+00 +0.0000000000000000e+00 -6.6999994677132761e+00 +6.9042711474757014e-04 +0.0000000000000000e+00 +9.9999976165517168e-01
-6.7999999999999918e+00 +9.0989175484837066e+00 +0.0000000000000000e+00 -6.7999994435212479e+00 +7.0073306489671500e-04 +0.0000000000000000e+00 +9.9999975448655620e-01
-6.8999999999999915e+00 +9.0988469598781450e+00 +0.0000000000000000e+00 -6.8999994186070461e+00 +7.1103905243996503e-04 +0.0000000000000000e+00 +9.9999974721170148e-01
-6.9999999999999911e+00 +9.0987753406720238e+00 +0.0000000000000000e+00 -6.9999993929600466e+00 +7.2134507580397570e-04 +0.0000000000000000e+00 +9.9999973983060741e-01
-7.0999999999999908e+00 +9.0987026908618436e+00 +0.0000000000000000e+00 -7.0999993665696257e+00 +7.3165113335559463e-04 +0.0000000000000000e+00 +9.9999973234327422e-01
-7.1999999999999904e+00 +9.0986290104442684e+00 +0.0000000000000000e+00 -7.1999993394251600e+00 +7.4195722340183621e-04 +0.0000000000000000e+00 +9.9999972474970200e-01
-7.2999999999999901e+00 +9.0985542994161381e+00 +0.0000000000000000e+00 -7.2999993115160251e+00 +7.5226334418985476e-04 +0.0000000000000000e+00 +9.9999971704989099e-01
-7.3999999999999897e+00 +9.0984785577744667e+00 +0.0000000000000000e+00 -7.3999992828315975e+00 +7.6256949390691704e-04 +0.0000000000000000e+00 +9.9999970924384174e-01
-7.4999999999999893e+00 +9.0984017855164545e+00 +0.0000000000000000e+00 -7.4999992533612527e+00 +7.7287567068037367e-04 +0.0000000000000000e+00 +9.9999970133155480e-01
-7.5999999999999890e+00 +9.0983239826394922e+00 +0.0000000000000000e+00 -7.5999992230943674e+00 +7.8318187258592526e-04 +0.0000000000000000e+00 +9.9999969331303074e-01
-7.6999999999999886e+00 +9.0982451491411620e+00 +0.0000000000000000e+00 -7.6999991920203179e+00 +7.9348809773885788e-04 +0.0000000000000000e+00 +9.9999968518827032e-01
-7.7999999999999883e+00 +9.0981652850192276e+00 +0.0000000000000000e+00 -7.7999991601284808e+00 +8.0379434438530091e-04 +0.0000000000000000e+00 +9.9999967695727432e-01
-7.8999999999999879e+00 +9.0980843902716213e+00 +0.0000000000000000e+00 -7.8999991274082317e+00 +8.1410061091053180e-04 +0.0000000000000000e+00 +9.9999966862004330e-01
-7.9999999999999876e+00 +9.0980024648964317e+00 +0.0000000000000000e+00 -7.9999990938489480e+00 +8.2440689583898521e-04 +0.0000000000000000e+00 +9.9999966017657782e-01
-8.0999999999999872e+00 +9.0979195088918843e+00 +0.0000000000000000e+00 -8.0999990594400053e+00 +8.3471319783426227e-04 +0.0000000000000000e+00 +9.9999965162687854e-01
-8.1999999999999869e+00 +9.0978355222563358e+00 +0.0000000000000000e+00 -8.1999990241707810e+00 +8.4501951569913999e-04 +0.0000000000000000e+00 +9.9999964297094590e-01
-8.2999999999999865e+00 +9.0977505049882517e+00 +0.0000000000000000e+00 -8.2999989880306533e+00 +8.5532584837558104e-04 +0.0000000000000000e+00 +9.9999963420878024e-01
-8.3999999999999861e+00 +9.0976644570861982e+00 +0.0000000000000000e+00 -8.3999989510089961e+00 +8.6563219494474402e-04 +0.0000000000000000e+00 +9.9999962534038189e-01
-8.4999999999999858e+00 +9.0975773785488254e+00 +0.0000000000000000e+00 -8.4999989130951885e+00 +8.7593855462699346e-04 +0.0000000000000000e+00 +9.9999961636575119e-01
-8.5999999999999854e+00 +9.0974892693748561e+00 +0.0000000000000000e+00 -8.5999988742786062e+00 +8.8624492678191055e-04 +0.0000000000000000e+00 +9.9999960728488824e-01
-8.6999999999999851e+00 +9.0974001295630700e+00 +0.0000000000000000e+00 -8.6999988345486248e+00 +8.9655131090830397e-04 +0.0000000000000000e+00 +9.9999959809779315e-01
-8.7999999999999847e+00 +9.0973099591122875e+00 +0.0000000000000000e+00 -8.7999987938946234e+00 +9.0685770664422096e-04 +0.0000000000000000e+00 +9.9999958880446582e-01
-8.8999999999999844e+00 +9.0972187580213610e+00 +0.0000000000000000e+00 -8.8999987523059776e+00 +9.1716411376695857e-04 +0.0000000000000000e+00 +9.9999957940490614e-01
-8.9999999999999840e+00 +9.0971265262891574e+00 +0.0000000000000000e+00 -8.9999987097720631e+00 +9.2747053219307542e-04 +0.0000000000000000e+00 +9.9999956989911387e-01
-9.0999999999999837e+00 +9.0970332639145433e+00 +0.0000000000000000e+00 -9.0999986662822590e+00 +9.3777696197840349e-04 +0.0000000000000000e+00 +9.9999956028708847e-01
-9.1999999999999833e+00 +9.0969389708963764e+00 +0.0000000000000000e+00 -9.1999986218259409e+00 +9.4808340331806011e-04 +0.0000000000000000e+00 +9.9999955056882950e-01
-9.2999999999999829e+00 +9.0968436472334844e+00 +0.0000000000000000e+00 -9.2999985763924844e+00 +9.5838985654646052e-04 +0.0000000000000000e+00 +9.9999954074433628e-01
-9.3999999999999826e+00 +9.0967472929246558e+00 +0.0000000000000000e+00 -9.3999985299712669e+00 +9.6869632213733038e-04 +0.0000000000000000e+00 +9.9999953081360793e-01
-9.4999999999999822e+00 +9.0966499079686240e+00 +0.0000000000000000e+00 -9.4999984825516641e+00 +9.7900280070371891e-04 +0.0000000000000000e+00 +9.9999952077664356e-01
-9.5999999999999819e+00 +9.0965514923640569e+00 +0.0000000000000000e+00 -9.5999984341230533e+00 +9.8930929298912738e-04 +0.0000000000000000e+00 +9.9999951063344195e-01
-9.6999999999999815e+00 +9.0964520461095422e+00 +0.0000000000000000e+00 -9.6999983846748101e+00 +9.9961579976979545e-04 +0.0000000000000000e+00 +9.9999950038400187e-01
-9.7999999999999812e+00 +9.0963515692035948e+00 +0.0000000000000000e+00 -9.7999983341963119e+00 +1.0099223217569862e-03 +0.0000000000000000e+00 +9.9999949002832222e-01
-9.8999999999999808e+00 +9.0962500616446622e+00 +0.0000000000000000e+00 -9.8999982826769326e+00 +1.0202288595881220e-03 +0.0000000000000000e+00 +9.9999947956640189e-01
-9.9999999999999805e+00 +9.0961475234311298e+00 +0.0000000000000000e+00 -9.9999982301060495e+00 +1.0305354138268055e-03 +0.0000000000000000e+00 +9.9999946899823977e-01
-1.0099999999999980e+01 +9.0960439545613330e+00 +0.0000000000000000e+00 -1.0099998176473038e+01 +1.0408419849628405e-03 +0.0000000000000000e+00 +9.9999945832383474e-01
-1.0199999999999980e+01 +9.0959393550335594e+00 +0.0000000000000000e+00 -1.0199998121767274e+01 +1.0511485734122543e-03 +0.0000000000000000e+00 +9.9999944754318604e-01
-1.0299999999999979e+01 +9.0958337248460612e+00 +0.0000000000000000e+00 -1.0299998065978134e+01 +1.0614551795173201e-03 +0.0000000000000000e+00 +9.9999943665629254e-01
-1.0399999999999979e+01 +9.0957270639970584e+00 +0.0000000000000000e+00 -1.0399998009094992e+01 +1.0717618035465790e-03 +0.0000000000000000e+00 +9.9999942566315358e-01
-1.0499999999999979e+01 +9.0956193724847481e+00 +0.0000000000000000e+00 -1.0499997951107224e+01 +1.0820684456948634e-03 +0.0000000000000000e+00 +9.9999941456376829e-01
-1.0599999999999978e+01 +9.0955106503073111e+00 +0.0000000000000000e+00 -1.0599997892004204e+01 +1.0923751060833212e-03 +0.0000000000000000e+00 +9.9999940335813609e-01
-1.0699999999999978e+01 +9.0954008974629215e+00 +0.0000000000000000e+00 -1.0699997831775310e+01 +1.1026817847594385e-03 +0.0000000000000000e+00 +9.9999939204625621e-01
-1.0799999999999978e+01 +9.0952901139497513e+00 +0.0000000000000000e+00 -1.0799997770409915e+01 +1.1129884816970651e-03 +0.0000000000000000e+00 +9.9999938062812821e-01
-1.0899999999999977e+01 +9.0951782997659780e+00 +0.0000000000000000e+00 -1.0899997707897395e+01 +1.1232951967964388e-03 +0.0000000000000000e+00 +9.9999936910375165e-01
-1.0999999999999977e+01 +9.0950654549097933e+00 +0.0000000000000000e+00 -1.0999997644227124e+01 +1.1336019298842106e-03 +0.0000000000000000e+00 +9.9999935747312607e-01
-1.1099999999999977e+01 +9.0949515793794102e+00 +0.0000000000000000e+00 -1.1099997579388479e+01 +1.1439086807134707e-03 +0.0000000000000000e+00 +9.9999934573625127e-01
-1.1199999999999976e+01 +9.0948366731730701e+00 +0.0000000000000000e+00 -1.1199997513370834e+01 +1.1542154489637745e-03 +0.0000000000000000e+00 +9.9999933389312701e-01
-1.1299999999999976e+01 +9.0947207362890499e+00 +0.0000000000000000e+00 -1.1299997446163562e+01 +1.1645222342411689e-03 +0.0000000000000000e+00 +9.9999932194375329e-01
-1.1399999999999975e+01 +9.0946037687256691e+00 +0.0000000000000000e+00 -1.1399997377756042e+01 +1.1748290360782193e-03 +0.0000000000000000e+00 +9.9999930988813002e-01
-1.1499999999999975e+01 +9.0944857704812989e+00 +0.0000000000000000e+00 -1.1499997308137647e+01 +1.1851358539340373e-03 +0.0000000000000000e+00 +9.9999929772625740e-01
-1.1599999999999975e+01 +9.0943667415543690e+00 +0.0000000000000000e+00 -1.1599997237297753e+01 +1.1954426871945902e-03 +0.0000000000000000e+00 +9.9999928545813566e-01
-1.1699999999999974e+01 +9.0942466819433694e+00 +0.0000000000000000e+00 -1.1699997165225733e+01 +1.2057495351758102e-03 +0.0000000000000000e+00 +9.9999927308376513e-01
