# trajectory
# s[mm] rx[mm] ry[mm] rz[mm] px[rad] py[rad] pz[rad]
0.0000000000000000e+00 +9.1158999999999999e+00 +0.0000000000000000e+00 +0.0000000000000000e+00 +0.0000000000000000e+00 +0.0000000000000000e+00 +1.0000000000000000e+00
-1.0000000000000001e-01 +9.1158994848702548e+00 +0.0000000000000000e+00 -9.9999999998230921e-02 +1.0302595793959440e-05 +0.0000000000000000e+00 +9.9999999994692823e-01
-2.0000000000000001e-01 +9.1158979394806554e+00 +0.0000000000000000e+00 -1.9999999998584750e-01 +2.0605197155868241e-05 +0.0000000000000000e+00 +9.9999999978771292e-01
-3.0000000000000004e-01 +9.1158953638306297e+00 +0.0000000000000000e+00 -2.9999999995223536e-01 +3.0907804364245384e-05 +0.0000000000000000e+00 +9.9999999952235386e-01
-4.0000000000000002e-01 +9.1158917579195826e+00 +0.0000000000000000e+00 -3.9999999988678014e-01 +4.1210417583833459e-05 +0.0000000000000000e+00 +9.9999999915085080e-01
-5.0000000000000000e-01 +9.1158871217469102e+00 +0.0000000000000000e+00 -4.9999999977886739e-01 +5.1513036865594608e-05 +0.0000000000000000e+00 +9.9999999867320355e-01
-5.9999999999999998e-01 +9.1158814553120084e+00 +0.0000000000000000e+00 -5.9999999961788264e-01 +6.1815662146705051e-05 +0.0000000000000000e+00 +9.9999999808941198e-01
-6.9999999999999996e-01 +9.1158747586142859e+00 +0.0000000000000000e+00 -6.9999999939321156e-01 +7.2118293250547993e-05 +0.0000000000000000e+00 +9.9999999739947587e-01
-7.9999999999999993e-01 +9.1158670316531740e+00 +0.0000000000000000e+00 -7.9999999909423969e-01 +8.2420929886705140e-05 +0.0000000000000000e+00 +9.9999999660339511e-01
-8.9999999999999991e-01 +9.1158582744281382e+00 +0.0000000000000000e+00 -8.9999999871035241e-01 +9.2723571650946563e-05 +0.0000000000000000e+00 +9.9999999570116960e-01
-9.9999999999999989e-01 +9.1158484869386900e+00 +0.0000000000000000e+00 -9.9999999823093533e-01 +1.0302621802521917e-04 +0.0000000000000000e+00 +9.9999999469279921e-01
-1.0999999999999999e+00 +9.1158376691843994e+00 +0.0000000000000000e+00 -1.0999999976453740e+00 +1.1332886837763366e-04 +0.0000000000000000e+00 +9.9999999357828384e-01
-1.2000000000000000e+00 +9.1158258211649059e+00 +0.0000000000000000e+00 -1.1999999969430539e+00 +1.2363152196244982e-04 +0.0000000000000000e+00 +9.9999999235762338e-01
-1.3000000000000000e+00 +9.1158129428799270e+00 +0.0000000000000000e+00 -1.2999999961133606e+00 +1.3393417792006054e-04 +0.0000000000000000e+00 +9.9999999103081794e-01
-1.4000000000000001e+00 +9.1157990343292745e+00 +0.0000000000000000e+00 -1.3999999951456794e+00 +1.4423683527697414e-04 +0.0000000000000000e+00 +9.9999998959786762e-01
-1.5000000000000002e+00 +9.1157840955128613e+00 +0.0000000000000000e+00 -1.4999999940293960e+00 +1.5453949294579522e-04 +0.0000000000000000e+00 +9.9999998805877244e-01
-1.6000000000000003e+00 +9.1157681264307140e+00 +0.0000000000000000e+00 -1.5999999927538957e+00 +1.6484214973552628e-04 +0.0000000000000000e+00 +9.9999998641353272e-01
-1.7000000000000004e+00 +9.1157511270829819e+00 +0.0000000000000000e+00 -1.6999999913085644e+00 +1.7514480446509295e-04 +0.0000000000000000e+00 +9.9999998466214857e-01
-1.8000000000000005e+00 +9.1157330974699242e+00 +0.0000000000000000e+00 -1.7999999896827874e+00 +1.8544745607688184e-04 +0.0000000000000000e+00 +9.9999998280462032e-01
-1.9000000000000006e+00 +9.1157140375919017e+00 +0.0000000000000000e+00 -1.8999999878659504e+00 +1.9575010364706482e-04 +0.0000000000000000e+00 +9.9999998084094821e-01
-2.0000000000000004e+00 +9.1156939474493566e+00 +0.0000000000000000e+00 -1.9999999858474389e+00 +2.0605274638560371e-04 +0.0000000000000000e+00 +9.9999997877113256e-01
-2.1000000000000005e+00 +9.1156728270428076e+00 +0.0000000000000000e+00 -2.0999999836166388e+00 +2.1635538363625704e-04 +0.0000000000000000e+00 +9.9999997659517359e-01
-2.2000000000000006e+00 +9.1156506763728302e+00 +0.0000000000000000e+00 -2.1999999811629354e+00 +2.2665801487658913e-04 +0.0000000000000000e+00 +9.9999997431307175e-01
-2.3000000000000007e+00 +9.1156274954400462e+00 +0.0000000000000000e+00 -2.2999999784757148e+00 +2.3696063971798123e-04 +0.0000000000000000e+00 +9.9999997192482715e-01
-2.4000000000000008e+00 +9.1156032842451094e+00 +0.0000000000000000e+00 -2.3999999755443628e+00 +2.4726325790564487e-04 +0.0000000000000000e+00 +9.9999996943044012e-01
-2.5000000000000009e+00 +9.1155780427886910e+00 +0.0000000000000000e+00 -2.4999999723582649e+00 +2.5756586931863744e-04 +0.0000000000000000e+00 +9.9999996682991088e-01
-2.6000000000000010e+00 +9.1155517710714715e+00 +0.0000000000000000e+00 -2.5999999689068067e+00 +2.6786847396987988e-04 +0.0000000000000000e+00 +9.9999996412323966e-01
-2.7000000000000011e+00 +9.1155244690941188e+00 +0.0000000000000000e+00 -2.6999999651793747e+00 +2.7817107200617654e-04 +0.0000000000000000e+00 +9.9999996131042657e-01
-2.8000000000000012e+00 +9.1154961368572813e+00 +0.0000000000000000e+00 -2.7999999611653541e+00 +2.8847366370823721e-04 +0.0000000000000000e+00 +9.9999995839147182e-01
-2.9000000000000012e+00 +9.1154667743615736e+00 +0.0000000000000000e+00 -2.8999999568541308e+00 +2.9877624949070154e-04 +0.0000000000000000e+00 +9.9999995536637543e-01
-3.0000000000000013e+00 +9.1154363816075623e+00 +0.0000000000000000e+00 -2.9999999522350911e+00 +3.0907882990216518e-04 +0.0000000000000000e+00 +9.9999995223513738e-01
-3.1000000000000014e+00 +9.1154049585957502e+00 +0.0000000000000000e+00 -3.0999999472976203e+00 +3.1938140562520859e-04 +0.0000000000000000e+00 +9.9999994899775768e-01
-3.2000000000000015e+00 +9.1153725053265671e+00 +0.0000000000000000e+00 -3.1999999420311047e+00 +3.2968397747642770e-04 +0.0000000000000000e+00 +9.9999994565423611e-01
-3.3000000000000016e+00 +9.1153390218003523e+00 +0.0000000000000000e+00 -3.2999999364249297e+00 +3.3998654640646697e-04 +0.0000000000000000e+00 +9.9999994220457256e-01
-3.4000000000000017e+00 +9.1153045080173474e+00 +0.0000000000000000e+00 -3.3999999304684811e+00 +3.5028911350005435e-04 +0.0000000000000000e+00 +9.9999993864876668e-01
-3.5000000000000018e+00 +9.1152689639776732e+00 +0.0000000000000000e+00 -3.4999999241511448e+00 +3.6059167997603875e-04 +0.0000000000000000e+00 +9.9999993498681816e-01
-3.6000000000000019e+00 +9.1152323896813279e+00 +0.0000000000000000e+00 -3.5999999174623065e+00 +3.7089424718268733e-04 +0.0000000000000000e+00 +9.9999993121872643e-01
-3.7000000000000020e+00 +9.1151947851281658e+00 +0.0000000000000000e+00 -3.6999999103913521e+00 +3.8119681654556211e-04 +0.0000000000000000e+00 +9.9999992734449095e-01
-3.8000000000000020e+00 +9.1151561503178993e+00 +0.0000000000000000e+00 -3.7999999029276665e+00 +3.9149938951538589e-04 +0.0000000000000000e+00 +9.9999992336411114e-01
-3.9000000000000021e+00 +9.1151164852500930e+00 +0.0000000000000000e+00 -3.8999998950606360e+00 +4.0180196756332278e-04 +0.0000000000000000e+00 +9.9999991927758625e-01
-4.0000000000000018e+00 +9.1150757899241661e+00 +0.0000000000000000e+00 -3.9999998867796456e+00 +4.1210455218100090e-04 +0.0000000000000000e+00 +9.9999991508491548e-01
-4.1000000000000014e+00 +9.1150340643393868e+00 +0.0000000000000000e+00 -4.0999998780740805e+00 +4.2240714488053603e-04 +0.0000000000000000e+00 +9.9999991078609807e-01
-4.2000000000000011e+00 +9.1149913084948704e+00 +0.0000000000000000e+00 -4.1999998689333262e+00 +4.3270974719455556e-04 +0.0000000000000000e+00 +9.9999990638113301e-01
-4.3000000000000007e+00 +9.1149475223895760e+00 +0.0000000000000000e+00 -4.2999998593467685e+00 +4.4301236067622332e-04 +0.0000000000000000e+00 +9.9999990187001941e-01
-4.4000000000000004e+00 +9.1149027060223098e+00 +0.0000000000000000e+00 -4.3999998493037920e+00 +4.5331498689926491e-04 +0.0000000000000000e+00 +9.9999989725275618e-01
-4.5000000000000000e+00 +9.1148568593917183e+00 +0.0000000000000000e+00 -4.4999998387937818e+00 +4.6361762745799376e-04 +0.0000000000000000e+00 +9.9999989252934207e-01
-4.5999999999999996e+00 +9.1148099824962863e+00 +0.0000000000000000e+00 -4.5999998278061227e+00 +4.7392028396733778e-04 +0.0000000000000000e+00 +9.9999988769977599e-01
-4.6999999999999993e+00 +9.1147620753343386e+00 +0.0000000000000000e+00 -4.6999998163301990e+00 +4.8422295806286664e-04 +0.0000000000000000e+00 +9.9999988276405660e-01
-4.7999999999999989e+00 +9.1147131379040331e+00 +0.0000000000000000e+00 -4.7999998043553953e+00 +4.9452565140081968e-04 +0.0000000000000000e+00 +9.9999987772218257e-01
-4.8999999999999986e+00 +9.1146631702033609e+00 +0.0000000000000000e+00 -4.8999997918710969e+00 +5.0482836565813444e-04 +0.0000000000000000e+00 +9.9999987257415246e-01
-4.9999999999999982e+00 +9.1146121722301476e+00 +0.0000000000000000e+00 -4.9999997788666874e+00 +5.1513110253247605e-04 +0.0000000000000000e+00 +9.9999986731996482e-01
-5.0999999999999979e+00 +9.1145601439820432e+00 +0.0000000000000000e+00 -5.0999997653315514e+00 +5.2543386374226690e-04 +0.0000000000000000e+00 +9.9999986195961788e-01
-5.1999999999999975e+00 +9.1145070854565287e+00 +0.0000000000000000e+00 -5.1999997512550724e+00 +5.3573665102671711e-04 +0.0000000000000000e+00 +9.9999985649311007e-01
-5.2999999999999972e+00 +9.1144529966509094e+00 +0.0000000000000000e+00 -5.2999997366266349e+00 +5.4603946614585586e-04 +0.0000000000000000e+00 +9.9999985092043964e-01
-5.3999999999999968e+00 +9.1143978775623129e+00 +0.0000000000000000e+00 -5.3999997214356217e+00 +5.5634231088056286e-04 +0.0000000000000000e+00 +9.9999984524160468e-01
-5.4999999999999964e+00 +9.1143417281876857e+00 +0.0000000000000000e+00 -5.4999997056714172e+00 +5.6664518703260106e-04 +0.0000000000000000e+00 +9.9999983945660320e-01
-5.5999999999999961e+00 +9.1142845485237984e+00 +0.0000000000000000e+00 -5.5999996893234041e+00 +5.7694809641616258e-04 +0.0000000000000000e+00 +9.9999983356543320e-01
-5.6999999999999957e+00 +9.1142263385672369e+00 +0.0000000000000000e+00 -5.6999996723809652e+00 +5.8725104076453921e-04 +0.0000000000000000e+00 +9.9999982756809269e-01
-5.7999999999999954e+00 +9.1141670983144270e+00 +0.0000000000000000e+00 -5.7999996548334831e+00 +5.9755402163674863e-04 +0.0000000000000000e+00 +9.9999982146457966e-01
-5.8999999999999950e+00 +9.1141068277616455e+00 +0.0000000000000000e+00 -5.8999996366703416e+00 +6.0785704040900303e-04 +0.0000000000000000e+00 +9.9999981525489212e-01
-5.9999999999999947e+00 +9.1140455269050413e+00 +0.0000000000000000e+00 -5.9999996178809223e+00 +6.1816009827466085e-04 +0.0000000000000000e+00 +9.9999980893902818e-01
-6.0999999999999943e+00 +9.1139831957406532e+00 +0.0000000000000000e+00 -6.0999995984546080e+00 +6.2846319624417521e-04 +0.0000000000000000e+00 +9.9999980251698595e-01
-6.1999999999999940e+00 +9.1139198342644274e+00 +0.0000000000000000e+00 -6.1999995783807806e+00 +6.3876633514503990e-04 +0.0000000000000000e+00 +9.9999979598876365e-01
-6.2999999999999936e+00 +9.1138554424722376e+00 +0.0000000000000000e+00 -6.2999995576488219e+00 +6.4906951562173211e-04 +0.0000000000000000e+00 +9.9999978935435963e-01
-6.3999999999999932e+00 +9.1137900203599020e+00 +0.0000000000000000e+00 -6.3999995362481137e+00 +6.5937273813565305e-04 +0.0000000000000000e+00 +9.9999978261377231e-01
-6.4999999999999929e+00 +9.1137235679232003e+00 +0.0000000000000000e+00 -6.4999995141680369e+00 +6.6967600296506528e-04 +0.0000000000000000e+00 +9.9999977576700028e-01
-6.5999999999999925e+00 +9.1136560851578956e+00 +0.0000000000000000e+00 -6.5999994913979743e+00 +6.7997931020502740e-04 +0.0000000000000000e+00 +9.9999976881404207e-01
-6.6999999999999922e+00 +9.1135875720597497e+00 +0.0000000000000000e+00 -6.6999994679273058e+00 +6.9028265976732591e-04 +0.0000000000000000e+00 +9.9999976175489635e-01
-6.7999999999999918e+00 +9.1135180286245419e+00 +0.0000000000000000e+00 -6.7999994437454134e+00 +7.0058605138040417e-04 +0.0000000000000000e+00 +9.9999975458956214e-01
-6.8999999999999915e+00 +9.1134474548480870e+00 +0.0000000000000000e+00 -6.8999994188416780e+00 +7.1088948458928897e-04 +0.0000000000000000e+00 +9.9999974731803842e-01
-6.9999999999999911e+00 +9.1133758507262588e+00 +0.0000000000000000e+00 -6.9999993932054814e+00 +7.2119295875551373e-04 +0.0000000000000000e+00 +9.9999973994032432e-01
-7.0999999999999908e+00 +9.1133032162549981e+00 +0.0000000000000000e+00 -7.0999993668262036e+00 +7.3149647305703939e-04 +0.0000000000000000e+00 +9.9999973245641915e-01
-7.1999999999999904e+00 +9.1132295514303419e+00 +0.0000000000000000e+00 -7.1999993396932256e+00 +7.4180002648817237e-04 +0.0000000000000000e+00 +9.9999972486632249e-01
-7.2999999999999901e+00 +9.1131548562484355e+00 +0.0000000000000000e+00 -7.2999993117959283e+00 +7.5210361785947935e-04 +0.0000000000000000e+00 +9.9999971717003400e-01
-7.3999999999999897e+00 +9.1130791307055503e+00 +0.0000000000000000e+00 -7.3999992831236927e+00 +7.6240724579770000e-04 +0.0000000000000000e+00 +9.9999970936755356e-01
-7.4999999999999893e+00 +9.1130023747981070e+00 +0.0000000000000000e+00 -7.4999992536658997e+00 +7.7271090874565622e-04 +0.0000000000000000e+00 +9.9999970145888117e-01
-7.5999999999999890e+00 +9.1129245885226915e+00 +0.0000000000000000e+00 -7.5999992234119293e+00 +7.8301460496976467e-04 +0.0000000000000000e+00 +9.9999969344401718e-01
-7.6999999999999886e+00 +9.1128457718760654e+00 +0.0000000000000000e+00 -7.6999991923511635e+00 +7.9331833264361122e-04 +0.0000000000000000e+00 +9.9999968532296202e-01
-7.7999999999999883e+00 +9.1127659248551751e+00 +0.0000000000000000e+00 -7.7999991604729821e+00 +8.0362208993156375e-04 +0.0000000000000000e+00 +9.9999967709571613e-01
-7.8999999999999879e+00 +9.1126850474571519e+00 +0.0000000000000000e+00 -7.8999991277667672e+00 +8.1392587499634682e-04 +0.0000000000000000e+00 +9.9999966876228008e-01
-7.9999999999999876e+00 +9.1126031396793099e+00 +0.0000000000000000e+00 -7.9999990942218986e+00 +8.2422968599901183e-04 +0.0000000000000000e+00 +9.9999966032265464e-01
-8.0999999999999872e+00 +9.1125202015191480e+00 +0.0000000000000000e+00 -8.0999990598277574e+00 +8.3453352109890593e-04 +0.0000000000000000e+00 +9.9999965177684047e-01
-8.1999999999999869e+00 +9.1124362329743480e+00 +0.0000000000000000e+00 -8.1999990245737262e+00 +8.4483737845364101e-04 +0.0000000000000000e+00 +9.9999964312483836e-01
-8.2999999999999865e+00 +9.1123512340427766e+00 +0.0000000000000000e+00 -8.2999989884491860e+00 +8.5514125621906194e-04 +0.0000000000000000e+00 +9.9999963436664918e-01
-8.3999999999999861e+00 +9.1122652047224850e+00 +0.0000000000000000e+00 -8.3999989514435178e+00 +8.6544515254921399e-04 +0.0000000000000000e+00 +9.9999962550227395e-01
-8.4999999999999858e+00 +9.1121781450117094e+00 +0.0000000000000000e+00 -8.4999989135461025e+00 +8.7574906559631039e-04 +0.0000000000000000e+00 +9.9999961653171365e-01
-8.5999999999999854e+00 +9.1120900549088706e+00 +0.0000000000000000e+00 -8.5999988747463210e+00 +8.8605299351069886e-04 +0.0000000000000000e+00 +9.9999960745496941e-01
-8.6999999999999851e+00 +9.1120009344125741e+00 +0.0000000000000000e+00 -8.6999988350335560e+00 +8.9635693444082784e-04 +0.0000000000000000e+00 +9.9999959827204243e-01
-8.7999999999999847e+00 +9.1119107835216102e+00 +0.0000000000000000e+00 -8.7999987943971902e+00 +9.0666088653321229e-04 +0.0000000000000000e+00 +9.9999958898293406e-01
-8.8999999999999844e+00 +9.1118196022349576e+00 +0.0000000000000000e+00 -8.8999987528266047e+00 +9.1696484793239870e-04 +0.0000000000000000e+00 +9.9999957958764552e-01
-8.9999999999999840e+00 +9.1117273905517759e+00 +0.0000000000000000e+00 -8.9999987103111803e+00 +9.2726881678092976e-04 +0.0000000000000000e+00 +9.9999957008617835e-01
-9.0999999999999837e+00 +9.1116341484714152e+00 +0.0000000000000000e+00 -9.0999986668403015e+00 +9.3757279121930862e-04 +0.0000000000000000e+00 +9.9999956047853400e-01
-9.1999999999999833e+00 +9.1115398759934081e+00 +0.0000000000000000e+00 -9.1999986224033492e+00 +9.4787676938596222e-04 +0.0000000000000000e+00 +9.9999955076471414e-01
-9.2999999999999829e+00 +9.1114445731174758e+00 +0.0000000000000000e+00 -9.2999985769897062e+00 +9.5818074941720493e-04 +0.0000000000000000e+00 +9.9999954094472032e-01
-9.3999999999999826e+00 +9.1113482398435242e+00 +0.0000000000000000e+00 -9.3999985305887552e+00 +9.6848472944720059e-04 +0.0000000000000000e+00 +9.9999953101855443e-01
-9.4999999999999822e+00 +9.1112508761716473e+00 +0.0000000000000000e+00 -9.4999984831898789e+00 +9.7878870760792491e-04 +0.0000000000000000e+00 +9.9999952098621825e-01
-9.5999999999999819e+00 +9.1111524821021259e+00 +0.0000000000000000e+00 -9.5999984347824601e+00 +9.8909268203773034e-04 +0.0000000000000000e+00 +9.9999951084771355e-01
-9.6999999999999815e+00 +9.1110530576354218e+00 +0.0000000000000000e+00 -9.6999983853558831e+00 +9.9939665097596654e-04 +0.0000000000000000e+00 +9.9999950060304232e-01
-9.7999999999999812e+00 +9.1109526027721657e+00 +0.0000000000000000e+00 -9.7999983348995308e+00 +1.0097006128576770e-03 +0.0000000000000000e+00 +9.9999949025220625e-01
-9.8999999999999808e+00 +9.1108511175131319e+00 +0.0000000000000000e+00 -9.8999982834027858e+00 +1.0200045663222989e-03 +0.0000000000000000e+00 +9.9999947979520698e-01
-9.9999999999999805e+00 +9.1107486018592212e+00 +0.0000000000000000e+00 -9.9999982308550326e+00 +1.0303085102137627e-03 +0.0000000000000000e+00 +9.9999946923204597e-01
-1.0099999999999980e+01 +9.1106450558114407e+00 +0.0000000000000000e+00 -1.0099998177245656e+01 +1.0406124435805957e-03 +0.0000000000000000e+00 +9.9999945856272454e-01
-1.0199999999999980e+01 +9.1105404793708811e+00 +0.0000000000000000e+00 -1.0199998122564038e+01 +1.0509163656760279e-03 +0.0000000000000000e+00 +9.9999944778724370e-01
-1.0299999999999979e+01 +9.1104348725386988e+00 +0.0000000000000000e+00 -1.0299998066799565e+01 +1.0612202759581009e-03 +0.0000000000000000e+00 +9.9999943690560444e-01
-1.0399999999999979e+01 +9.1103282353160946e+00 +0.0000000000000000e+00 -1.0399998009941621e+01 +1.0715241740897798e-03 +0.0000000000000000e+00 +9.9999942591780744e-01
-1.0499999999999979e+01 +9.1102205677042907e+00 +0.0000000000000000e+00 -1.0499997951979589e+01 +1.0818280599390682e-03 +0.0000000000000000e+00 +9.9999941482385324e-01
-1.0599999999999978e+01 +9.1101118697045145e+00 +0.0000000000000000e+00 -1.0599997892902854e+01 +1.0921319335791258e-03 +0.0000000000000000e+00 +9.9999940362374207e-01
-1.0699999999999978e+01 +9.1100021413179739e+00 +0.0000000000000000e+00 -1.0699997832700799e+01 +1.1024357952883891e-03 +0.0000000000000000e+00 +9.9999939231747403e-01
-1.0799999999999978e+01 +9.1098913825458396e+00 +0.0000000000000000e+00 -1.0799997771362809e+01 +1.1127396455506958e-03 +0.0000000000000000e+00 +9.9999938090504903e-01
-1.0899999999999977e+01 +9.1097795933892236e+00 +0.0000000000000000e+00 -1.0899997708878271e+01 +1.1230434850554103e-03 +0.0000000000000000e+00 +9.9999936938646661e-01
-1.0999999999999977e+01 +9.1096667738491579e+00 +0.0000000000000000e+00 -1.0999997645236565e+01 +1.1333473146975547e-03 +0.0000000000000000e+00 +9.9999935776172599e-01
-1.1099999999999977e+01 +9.1095529239265769e+00 +0.0000000000000000e+00 -1.1099997580427077e+01 +1.1436511355779400e-03 +0.0000000000000000e+00 +9.9999934603082630e-01
-1.1199999999999976e+01 +9.1094380436222924e+00 +0.0000000000000000e+00 -1.1199997514439191e+01 +1.1539549490033024e-03 +0.0000000000000000e+00 +9.9999933419376630e-01
-1.1299999999999976e+01 +9.1093221329369758e+00 +0.0000000000000000e+00 -1.1299997447262292e+01 +1.1642587564864417e-03 +0.0000000000000000e+00 +9.9999932225054444e-01
-1.1399999999999975e+01 +9.1092051918711370e+00 +0.0000000000000000e+00 -1.1399997378885763e+01 +1.1745625597463622e-03 +0.0000000000000000e+00 +9.9999931020115884e-01
-1.1499999999999975e+01 +9.1090872204251045e+00 +0.0000000000000000e+00 -1.1499997309298985e+01 +1.1848663607084177e-03 +0.0000000000000000e+00 +9.9999929804560739e-01
-1.1599999999999975e+01 +9.1089682185990029e+00 +0.0000000000000000e+00 -1.1599997238491344e+01 +1.1951701614907829e-03 +0.0000000000000000e+00 +9.9999928578388764e-01
-1.1699999999999974e+01 +9.1088481863927413e+00 +0.0000000000000000e+00 -1.1699997166452222e+01 +1.2054739642541386e-03 +0.0000000000000000e+00 +9.9999927341599693e-01
