# field on trajectory
# s[mm] rx[mm] ry[mm] rz[mm] bx[T] by[T] bz[T]
0.0000000000000000e+00 +9.1766000000000005e+00 +0.0000000000000000e+00 +0.0000000000000000e+00 +1.1376487667916487e-02 -1.0297387215142308e+00 -5.8481458462493988e-02
-1.0000000000000001e-01 +9.1765994854871735e+00 +0.0000000000000000e+00 -9.9999999998235195e-02 +1.1376727713057845e-02 -1.0297366117748250e+00 -5.8481573903433559e-02
-2.0000000000000001e-01 +9.1765979419500692e+00 +0.0000000000000000e+00 -1.9999999998588144e-01 +1.1376957672788396e-02 -1.0297346663491622e+00 -5.8481678594937962e-02
-3.0000000000000004e-01 +9.1765953693906326e+00 +0.0000000000000000e+00 -2.9999999995234994e-01 +1.1377178658796661e-02 -1.0297328872419975e+00 -5.8481772971789803e-02
-4.0000000000000002e-01 +9.1765917678106419e+00 +0.0000000000000000e+00 -3.9999999988705182e-01 +1.1377391782764425e-02 -1.0297312764566371e+00 -5.8481857468768328e-02
-5.0000000000000000e-01 +9.1765871372117065e+00 +0.0000000000000000e+00 -4.9999999977939841e-01 +1.1377598156354574e-02 -1.0297298359949387e+00 -5.8481932520647990e-02
-5.9999999999999998e-01 +9.1765814775952652e+00 +0.0000000000000000e+00 -5.9999999961880091e-01 +1.1377798891198802e-02 -1.0297285678573003e+00 -5.8481998562196665e-02
-6.9999999999999996e-01 +9.1765747889625882e+00 +0.0000000000000000e+00 -6.9999999939467072e-01 +1.1377995098885431e-02 -1.0297274740426590e+00 -5.8482056028174155e-02
-7.9999999999999993e-01 +9.1765670713147660e+00 +0.0000000000000000e+00 -7.9999999909641906e-01 +1.1378187890947182e-02 -1.0297265565484834e+00 -5.8482105353330545e-02
-8.9999999999999991e-01 +9.1765583246527189e+00 +0.0000000000000000e+00 -8.9999999871345737e-01 +1.1378378378848942e-02 -1.0297258173707713e+00 -5.8482146972404662e-02
-9.9999999999999989e-01 +9.1765485489771841e+00 +0.0000000000000000e+00 -9.9999999823519703e-01 +1.1378567673975548e-02 -1.0297252585040428e+00 -5.8482181320122346e-02
-1.0999999999999999e+00 +9.1765377442887228e+00 +0.0000000000000000e+00 -1.0999999976510493e+00 +1.1378756887619555e-02 -1.0297248819413354e+00 -5.8482208831195072e-02
-1.2000000000000000e+00 +9.1765259105877117e+00 +0.0000000000000000e+00 -1.1999999969504256e+00 +1.1378947130969022e-02 -1.0297246896741989e+00 -5.8482229940318056e-02
-1.3000000000000000e+00 +9.1765130478743444e+00 +0.0000000000000000e+00 -1.2999999961227373e+00 +1.1379139515095284e-02 -1.0297246836926908e+00 -5.8482245082168927e-02
-1.4000000000000001e+00 +9.1764991561486262e+00 +0.0000000000000000e+00 -1.3999999951573958e+00 +1.1379335150940721e-02 -1.0297248659853711e+00 -5.8482254691405965e-02
-1.5000000000000002e+00 +9.1764842354103777e+00 +0.0000000000000000e+00 -1.4999999940438125e+00 +1.1379535149306529e-02 -1.0297252385392972e+00 -5.8482259202666455e-02
-1.6000000000000003e+00 +9.1764682856592277e+00 +0.0000000000000000e+00 -1.5999999927713984e+00 +1.1379740408196368e-02 -1.0297258002218648e+00 -5.8482258905724331e-02
-1.7000000000000004e+00 +9.1764513068946183e+00 +0.0000000000000000e+00 -1.6999999913295649e+00 +1.1379950974936302e-02 -1.0297265374267832e+00 -5.8482253510975225e-02
-1.8000000000000005e+00 +9.1764332991158160e+00 +0.0000000000000000e+00 -1.7999999897077232e+00 +1.1380166684221656e-02 -1.0297274334293804e+00 -5.8482242583977814e-02
-1.9000000000000006e+00 +9.1764142623219289e+00 +0.0000000000000000e+00 -1.8999999878952845e+00 +1.1380387370793190e-02 -1.0297284715050503e+00 -5.8482225690300198e-02
-2.0000000000000004e+00 +9.1763941965119233e+00 +0.0000000000000000e+00 -1.9999999858816595e+00 +1.1380612869454281e-02 -1.0297296349294445e+00 -5.8482202395522681e-02
-2.1000000000000005e+00 +9.1763731016846393e+00 +0.0000000000000000e+00 -2.0999999836562595e+00 +1.1380843015088148e-02 -1.0297309069786673e+00 -5.8482172265240981e-02
-2.2000000000000006e+00 +9.1763509778388084e+00 +0.0000000000000000e+00 -2.1999999812084954e+00 +1.1381077642675078e-02 -1.0297322709294705e+00 -5.8482134865069098e-02
-2.3000000000000007e+00 +9.1763278249730735e+00 +0.0000000000000000e+00 -2.2999999785277780e+00 +1.1381316587309617e-02 -1.0297337100594430e+00 -5.8482089760642259e-02
-2.4000000000000008e+00 +9.1763036430859994e+00 +0.0000000000000000e+00 -2.3999999756035186e+00 +1.1381559684217784e-02 -1.0297352076472077e+00 -5.8482036517620004e-02
-2.5000000000000009e+00 +9.1762784321760922e+00 +0.0000000000000000e+00 -2.4999999724251274e+00 +1.1381806768774297e-02 -1.0297367469726126e+00 -5.8481974701689012e-02
-2.6000000000000010e+00 +9.1762521922418188e+00 +0.0000000000000000e+00 -2.5999999689820155e+00 +1.1382057676519796e-02 -1.0297383113169278e+00 -5.8481903878566346e-02
-2.7000000000000011e+00 +9.1762249232816213e+00 +0.0000000000000000e+00 -2.6999999652635931e+00 +1.1382312243178023e-02 -1.0297398839630334e+00 -5.8481823614002101e-02
-2.8000000000000012e+00 +9.1761966252939313e+00 +0.0000000000000000e+00 -2.7999999612592714e+00 +1.1382570304673083e-02 -1.0297414481956204e+00 -5.8481733473782688e-02
-2.9000000000000012e+00 +9.1761672982771891e+00 +0.0000000000000000e+00 -2.8999999569584607e+00 +1.1382831697146606e-02 -1.0297429873013773e+00 -5.8481633023733590e-02
-3.0000000000000013e+00 +9.1761369422298635e+00 +0.0000000000000000e+00 -2.9999999523505712e+00 +1.1383096256975022e-02 -1.0297444845691885e+00 -5.8481521829722508e-02
-3.1000000000000014e+00 +9.1761055571504606e+00 +0.0000000000000000e+00 -3.0999999474250139e+00 +1.1383363820786741e-02 -1.0297459232903261e+00 -5.8481399457662314e-02
-3.2000000000000015e+00 +9.1760731430375486e+00 +0.0000000000000000e+00 -3.1999999421711989e+00 +1.1383634225479378e-02 -1.0297472867586426e+00 -5.8481265473513899e-02
-3.3000000000000016e+00 +9.1760396998897686e+00 +0.0000000000000000e+00 -3.2999999365785371e+00 +1.1383907308236990e-02 -1.0297485582707675e+00 -5.8481119443289382e-02
-3.4000000000000017e+00 +9.1760052277058559e+00 +0.0000000000000000e+00 -3.3999999306364384e+00 +1.1384182906547267e-02 -1.0297497211262978e+00 -5.8480960933054937e-02
-3.5000000000000018e+00 +9.1759697264846540e+00 +0.0000000000000000e+00 -3.4999999243343134e+00 +1.1384460858218790e-02 -1.0297507586279937e+00 -5.8480789508933789e-02
-3.6000000000000019e+00 +9.1759331962251309e+00 +0.0000000000000000e+00 -3.5999999176615725e+00 +1.1384740877314206e-02 -1.0297516564657689e+00 -5.8480604869977429e-02
-3.7000000000000020e+00 +9.1758956369263931e+00 +0.0000000000000000e+00 -3.6999999106076262e+00 +1.1385022181735373e-02 -1.0297524098676492e+00 -5.8480407246745705e-02
-3.8000000000000020e+00 +9.1758570485876909e+00 +0.0000000000000000e+00 -3.7999999031618854e+00 +1.1385303865163399e-02 -1.0297530164473860e+00 -5.8480197002653327e-02
-3.9000000000000021e+00 +9.1758174312084240e+00 +0.0000000000000000e+00 -3.8999998953137602e+00 +1.1385585021080766e-02 -1.0297534738205536e+00 -5.8479974501091284e-02
-4.0000000000000018e+00 +9.1757767847881393e+00 +0.0000000000000000e+00 -3.9999998870526614e+00 +1.1385864742751788e-02 -1.0297537796046139e+00 -5.8479740105424449e-02
-4.1000000000000014e+00 +9.1757351093265367e+00 +0.0000000000000000e+00 -4.0999998783679992e+00 +1.1386142123203031e-02 -1.0297539314189754e+00 -5.8479494178988456e-02
-4.2000000000000011e+00 +9.1756924048234669e+00 +0.0000000000000000e+00 -4.1999998692491847e+00 +1.1386416255203773e-02 -1.0297539268850580e+00 -5.8479237085087121e-02
-4.3000000000000007e+00 +9.1756486712789407e+00 +0.0000000000000000e+00 -4.2999998596856281e+00 +1.1386686231246435e-02 -1.0297537636263507e+00 -5.8478969186989478e-02
-4.4000000000000004e+00 +9.1756039086931249e+00 +0.0000000000000000e+00 -4.3999998496667407e+00 +1.1386951143527026e-02 -1.0297534392684771e+00 -5.8478690847927089e-02
-4.5000000000000000e+00 +9.1755581170663501e+00 +0.0000000000000000e+00 -4.4999998391819336e+00 +1.1387210083925604e-02 -1.0297529514392552e+00 -5.8478402431091238e-02
-4.5999999999999996e+00 +9.1755112963991081e+00 +0.0000000000000000e+00 -4.5999998282206178e+00 +1.1387462143986683e-02 -1.0297522977687579e+00 -5.8478104299630060e-02
-4.6999999999999993e+00 +9.1754634466920582e+00 +0.0000000000000000e+00 -4.6999998167722037e+00 +1.1387706414899716e-02 -1.0297514758893784e+00 -5.8477796816645805e-02
-4.7999999999999989e+00 +9.1754145679460244e+00 +0.0000000000000000e+00 -4.7999998048261023e+00 +1.1387941987479496e-02 -1.0297504834358879e+00 -5.8477480345192075e-02
-4.8999999999999986e+00 +9.1753646601620069e+00 +0.0000000000000000e+00 -4.8999997923717258e+00 +1.1388167952146647e-02 -1.0297493180454997e+00 -5.8477155248270851e-02
-4.9999999999999982e+00 +9.1753137233411746e+00 +0.0000000000000000e+00 -4.9999997793984852e+00 +1.1388383398908020e-02 -1.0297479773579312e+00 -5.8476821888829980e-02
-5.0999999999999979e+00 +9.1752617574848720e+00 +0.0000000000000000e+00 -5.0999997658957916e+00 +1.1388587417337160e-02 -1.0297464590154626e+00 -5.8476480629760089e-02
-5.1999999999999975e+00 +9.1752087625946217e+00 +0.0000000000000000e+00 -5.1999997518530572e+00 +1.1388779096554750e-02 -1.0297447606630026e+00 -5.8476131833891970e-02
-5.2999999999999972e+00 +9.1751547386721288e+00 +0.0000000000000000e+00 -5.2999997372596939e+00 +1.1388957525209038e-02 -1.0297428799481481e+00 -5.8475775863993718e-02
-5.3999999999999968e+00 +9.1750996857192764e+00 +0.0000000000000000e+00 -5.3999997221051137e+00 +1.1389121791456290e-02 -1.0297408145212450e+00 -5.8475413082767914e-02
-5.4999999999999964e+00 +9.1750436037381355e+00 +0.0000000000000000e+00 -5.4999997063787278e+00 +1.1389270982941246e-02 -1.0297385620354529e+00 -5.8475043852848886e-02
-5.5999999999999961e+00 +9.1749864927309641e+00 +0.0000000000000000e+00 -5.5999996900699500e+00 +1.1389404614018529e-02 -1.0297361220312735e+00 -5.8474668559383394e-02
-5.6999999999999957e+00 +9.1749283527002046e+00 +0.0000000000000000e+00 -5.6999996731681914e+00 +1.1389523907782884e-02 -1.0297335015884703e+00 -5.8474287677815130e-02
-5.7999999999999954e+00 +9.1748691836484824e+00 +0.0000000000000000e+00 -5.7999996556628650e+00 +1.1389630514883040e-02 -1.0297307096697401e+00 -5.8473901706196055e-02
-5.8999999999999950e+00 +9.1748089855785917e+00 +0.0000000000000000e+00 -5.8999996375433845e+00 +1.1389726086370853e-02 -1.0297277552356636e+00 -5.8473511142613038e-02
-5.9999999999999947e+00 +9.1747477584934902e+00 +0.0000000000000000e+00 -5.9999996187991620e+00 +1.1389812273723094e-02 -1.0297246472445494e+00 -5.8473116485189859e-02
-6.0999999999999943e+00 +9.1746855023962901e+00 +0.0000000000000000e+00 -6.0999995994196103e+00 +1.1389890728863291e-02 -1.0297213946522796e+00 -5.8472718232089181e-02
-6.1999999999999940e+00 +9.1746222172902474e+00 +0.0000000000000000e+00 -6.1999995793941443e+00 +1.1389963104183514e-02 -1.0297180064121558e+00 -5.8472316881514531e-02
-6.2999999999999936e+00 +9.1745579031787550e+00 +0.0000000000000000e+00 -6.2999995587121767e+00 +1.1390031052566203e-02 -1.0297144914747456e+00 -5.8471912931712208e-02
-6.3999999999999932e+00 +9.1744925600653300e+00 +0.0000000000000000e+00 -6.3999995373631204e+00 +1.1390096227405956e-02 -1.0297108587877268e+00 -5.8471506880973280e-02
-6.4999999999999929e+00 +9.1744261879536104e+00 +0.0000000000000000e+00 -6.4999995153363912e+00 +1.1390160282631375e-02 -1.0297071172957344e+00 -5.8471099227635569e-02
-6.5999999999999925e+00 +9.1743587868473409e+00 +0.0000000000000000e+00 -6.5999994926214018e+00 +1.1390224872726829e-02 -1.0297032759402047e+00 -5.8470690470085525e-02
-6.6999999999999922e+00 +9.1742903567503653e+00 +0.0000000000000000e+00 -6.6999994692075671e+00 +1.1390291652754299e-02 -1.0296993436592217e+00 -5.8470281106760238e-02
-6.7999999999999918e+00 +9.1742208976666202e+00 +0.0000000000000000e+00 -6.7999994450843015e+00 +1.1390362278375169e-02 -1.0296953293873634e+00 -5.8469871636149424e-02
-6.8999999999999915e+00 +9.1741504096001236e+00 +0.0000000000000000e+00 -6.8999994202410200e+00 +1.1390438405872026e-02 -1.0296912420555453e+00 -5.8469462556797275e-02
-6.9999999999999911e+00 +9.1740788925549683e+00 +0.0000000000000000e+00 -6.9999993946671371e+00 +1.1390521692170495e-02 -1.0296870905908673e+00 -5.8469054367304520e-02
-7.0999999999999908e+00 +9.1740063465353074e+00 +0.0000000000000000e+00 -7.0999993683520675e+00 +1.1390613794860997e-02 -1.0296828839164591e+00 -5.8468647566330384e-02
-7.1999999999999904e+00 +9.1739327715453527e+00 +0.0000000000000000e+00 -7.1999993412852268e+00 +1.1390716372220600e-02 -1.0296786309513242e+00 -5.8468242652594322e-02
-7.2999999999999901e+00 +9.1738581675893620e+00 +0.0000000000000000e+00 -7.2999993134560306e+00 +1.1390831083234803e-02 -1.0296743406101874e+00 -5.8467840124878337e-02
-7.3999999999999897e+00 +9.1737825346716289e+00 +0.0000000000000000e+00 -7.3999992848538945e+00 +1.1390959587619331e-02 -1.0296700218033377e+00 -5.8467440482028607e-02
-7.4999999999999893e+00 +9.1737058727964769e+00 +0.0000000000000000e+00 -7.4999992554682331e+00 +1.1391103545841953e-02 -1.0296656834364755e+00 -5.8467044222957544e-02
-7.5999999999999890e+00 +9.1736281819682475e+00 +0.0000000000000000e+00 -7.5999992252884638e+00 +1.1391264047496701e-02 -1.0296613338614093e+00 -5.8466651658268726e-02
-7.6999999999999886e+00 +9.1735494621912963e+00 +0.0000000000000000e+00 -7.6999991943040014e+00 +1.1391439895876959e-02 -1.0296569792298600e+00 -5.8466262345057245e-02
-7.7999999999999883e+00 +9.1734697134699825e+00 +0.0000000000000000e+00 -7.7999991625042622e+00 +1.1391629322149490e-02 -1.0296526251433797e+00 -5.8465875651955247e-02
-7.8999999999999879e+00 +9.1733889358086653e+00 +0.0000000000000000e+00 -7.8999991298786627e+00 +1.1391830556893247e-02 -1.0296482772028659e+00 -5.8465490947501267e-02
-7.9999999999999876e+00 +9.1733071292116986e+00 +0.0000000000000000e+00 -7.9999990964166194e+00 +1.1392041830076619e-02 -1.0296439410085492e+00 -5.8465107600136790e-02
-8.0999999999999872e+00 +9.1732242936834218e+00 +0.0000000000000000e+00 -8.0999990621075479e+00 +1.1392261371034617e-02 -1.0296396221599846e+00 -5.8464724978203014e-02
-8.1999999999999869e+00 +9.1731404292281606e+00 +0.0000000000000000e+00 -8.1999990269408656e+00 +1.1392487408446119e-02 -1.0296353262560334e+00 -5.8464342449937645e-02
-8.2999999999999865e+00 +9.1730555358502155e+00 +0.0000000000000000e+00 -8.2999989909059906e+00 +1.1392718170311070e-02 -1.0296310588948594e+00 -5.8463959383471660e-02
-8.3999999999999861e+00 +9.1729696135538603e+00 +0.0000000000000000e+00 -8.3999989539923376e+00 +1.1392951883927721e-02 -1.0296268256739094e+00 -5.8463575146825916e-02
-8.4999999999999858e+00 +9.1728826623433335e+00 +0.0000000000000000e+00 -8.4999989161893250e+00 +1.1393186775869833e-02 -1.0296226321899076e+00 -5.8463189107908070e-02
-8.5999999999999854e+00 +9.1727946822228343e+00 +0.0000000000000000e+00 -8.5999988774863692e+00 +1.1393421071963892e-02 -1.0296184840388383e+00 -5.8462800634509204e-02
-8.6999999999999851e+00 +9.1727056731965160e+00 +0.0000000000000000e+00 -8.6999988378728865e+00 +1.1393652997266360e-02 -1.0296143868159389e+00 -5.8462409094300637e-02
-8.7999999999999847e+00 +9.1726156352684836e+00 +0.0000000000000000e+00 -8.7999987973382954e+00 +1.1393880776040853e-02 -1.0296103461156851e+00 -5.8462013854830616e-02
-8.8999999999999844e+00 +9.1725245684427819e+00 +0.0000000000000000e+00 -8.8999987558720122e+00 +1.1394102631735410e-02 -1.0296063675317799e+00 -5.8461614283521153e-02
-8.9999999999999840e+00 +9.1724324727233970e+00 +0.0000000000000000e+00 -8.9999987134634551e+00 +1.1394316786959674e-02 -1.0296024566571416e+00 -5.8461209747664715e-02
-9.0999999999999837e+00 +9.1723393481142477e+00 +0.0000000000000000e+00 -9.0999986701020408e+00 +1.1394521463462143e-02 -1.0295986190838933e+00 -5.8460799614421036e-02
-9.1999999999999833e+00 +9.1722451946191761e+00 +0.0000000000000000e+00 -9.1999986257771873e+00 +1.1394714882107384e-02 -1.0295948604033498e+00 -5.8460383250813819e-02
-9.2999999999999829e+00 +9.1721500122419499e+00 +0.0000000000000000e+00 -9.2999985804783112e+00 +1.1394895262853259e-02 -1.0295911862060056e+00 -5.8459960023727553e-02
-9.3999999999999826e+00 +9.1720538009862498e+00 +0.0000000000000000e+00 -9.3999985341948307e+00 +1.1395060824728137e-02 -1.0295876020815238e+00 -5.8459529299904181e-02
-9.4999999999999822e+00 +9.1719565608556657e+00 +0.0000000000000000e+00 -9.4999984869161640e+00 +1.1395209785808144e-02 -1.0295841136187254e+00 -5.8459090445940040e-02
-9.5999999999999819e+00 +9.1718582918536953e+00 +0.0000000000000000e+00 -9.5999984386317276e+00 +1.1395340958624140e-02 -1.0295807251947788e+00 -5.8458643151038193e-02
-9.6999999999999815e+00 +9.1717589939837332e+00 +0.0000000000000000e+00 -9.6999983893309398e+00 +1.1395455537033382e-02 -1.0295774363431582e+00 -5.8458188395461873e-02
-9.7999999999999812e+00 +9.1716586672490781e+00 +0.0000000000000000e+00 -9.7999983390032170e+00 +1.1395555310740586e-02 -1.0295742453871612e+00 -5.8457727482468309e-02
-9.8999999999999808e+00 +9.1715573116529292e+00 +0.0000000000000000e+00 -9.8999982876379793e+00 +1.1395642069952255e-02 -1.0295711506509924e+00 -5.8457261715562550e-02
-9.9999999999999805e+00 +9.1714549271983898e+00 +0.0000000000000000e+00 -9.9999982352246413e+00 +1.1395717605392533e-02 -1.0295681504597947e+00 -5.8456792398504605e-02
-1.0099999999999980e+01 +9.1713515138884691e+00 +0.0000000000000000e+00 -1.0099998181752623e+01 +1.1395783708318995e-02 -1.0295652431396833e+00 -5.8456320835316183e-02
-1.0199999999999980e+01 +9.1712470717260839e+00 +0.0000000000000000e+00 -1.0199998127211341e+01 +1.1395842170538474e-02 -1.0295624270177770e+00 -5.8455848330287587e-02
-1.0299999999999979e+01 +9.1711416007140603e+00 +0.0000000000000000e+00 -1.0299998071590213e+01 +1.1395894784422869e-02 -1.0295597004222319e+00 -5.8455376187984576e-02
-1.0399999999999979e+01 +9.1710351008551321e+00 +0.0000000000000000e+00 -1.0399998014878657e+01 +1.1395943342925001e-02 -1.0295570616822733e+00 -5.8454905713255338e-02
-1.0499999999999979e+01 +9.1709275721519496e+00 +0.0000000000000000e+00 -1.0499997957066089e+01 +1.1395989639594362e-02 -1.0295545091282279e+00 -5.8454438211237199e-02
-1.0599999999999978e+01 +9.1708190146070745e+00 +0.0000000000000000e+00 -1.0599997898141927e+01 +1.1396035468592981e-02 -1.0295520410915588e+00 -5.8453974987363669e-02
-1.0699999999999978e+01 +9.1707094282229846e+00 +0.0000000000000000e+00 -1.0699997838095591e+01 +1.1396082624711205e-02 -1.0295496559048956e+00 -5.8453517347371212e-02
-1.0799999999999978e+01 +9.1705988130020746e+00 +0.0000000000000000e+00 -1.0799997776916495e+01 +1.1396132903383521e-02 -1.0295473519020664e+00 -5.8453066597306078e-02
-1.0899999999999977e+01 +9.1704871689466589e+00 +0.0000000000000000e+00 -1.0899997714594059e+01 +1.1396188100704361e-02 -1.0295451274181335e+00 -5.8452624043531375e-02
-1.0999999999999977e+01 +9.1703744960589724e+00 +0.0000000000000000e+00 -1.0999997651117701e+01 +1.1396250013443892e-02 -1.0295429807894232e+00 -5.8452190992733633e-02
-1.1099999999999977e+01 +9.1702607943411731e+00 +0.0000000000000000e+00 -1.1099997586476835e+01 +1.1396320439063844e-02 -1.0295409103535587e+00 -5.8451768751929943e-02
-1.1199999999999976e+01 +9.1701460637953414e+00 +0.0000000000000000e+00 -1.1199997520660881e+01 +1.1396401175733281e-02 -1.0295389144494935e+00 -5.8451358628474663e-02
-1.1299999999999976e+01 +9.1700303044234843e+00 +0.0000000000000000e+00 -1.1299997453659257e+01 +1.1396494022344435e-02 -1.0295369914175441e+00 -5.8450961930066353e-02
-1.1399999999999975e+01 +9.1699135162275365e+00 +0.0000000000000000e+00 -1.1399997385461379e+01 +1.1396600778528467e-02 -1.0295351395994190e+00 -5.8450579964754563e-02
-1.1499999999999975e+01 +9.1697956992093612e+00 +0.0000000000000000e+00 -1.1499997316056666e+01 +1.1396723244671286e-02 -1.0295333573382572e+00 -5.8450214040946809e-02
-1.1599999999999975e+01 +9.1696768533707509e+00 +0.0000000000000000e+00 -1.1599997245434533e+01 +1.1396862610741191e-02 -1.0295316424607870e+00 -5.8449865046965033e-02
-1.1699999999999974e+01 +9.1695569787134321e+00 +0.0000000000000000e+00 -1.1699997173584400e+01 +1.1397017622149945e-02 -1.0295299907234083e+00 -5.8449532189347987e-02
