# field on trajectory
# s[mm] rx[mm] ry[mm] rz[mm] bx[T] by[T] bz[T]
0.0000000000000000e+00 +9.0949000000000009e+00 +0.0000000000000000e+00 +0.0000000000000000e+00 +1.0483215163117607e-02 -1.0325192932371645e+00 -5.8618409939208894e-02
-1.0000000000000001e-01 +9.0948994840975459e+00 +0.0000000000000000e+00 -9.9999999998225619e-02 +1.0483376767606826e-02 -1.0325189653220246e+00 -5.8618906034476961e-02
-2.0000000000000001e-01 +9.0948979363903995e+00 +0.0000000000000000e+00 -1.9999999998580503e-01 +1.0483527420309330e-02 -1.0325186515812594e+00 -5.8619411594608942e-02
-3.0000000000000004e-01 +9.0948953568788724e+00 +0.0000000000000000e+00 -2.9999999995209203e-01 +1.0483669157927597e-02 -1.0325183481246545e+00 -5.8619923978240722e-02
-4.0000000000000002e-01 +9.0948917455632721e+00 +0.0000000000000000e+00 -3.9999999988644042e-01 +1.0483804017150765e-02 -1.0325180510617533e+00 -5.8620440543831996e-02
-5.0000000000000000e-01 +9.0948871024438933e+00 +0.0000000000000000e+00 -4.9999999977820403e-01 +1.0483934034653020e-02 -1.0325177565018147e+00 -5.8620958649666800e-02
-5.9999999999999998e-01 +9.0948814275210328e+00 +0.0000000000000000e+00 -5.9999999961673667e-01 +1.0484061247091990e-02 -1.0325174605537615e+00 -5.8621475653853797e-02
-6.9999999999999996e-01 +9.0948747207949872e+00 +0.0000000000000000e+00 -6.9999999939139224e-01 +1.0484187691107160e-02 -1.0325171593261357e+00 -5.8621988914326816e-02
-7.9999999999999993e-01 +9.0948669822660566e+00 +0.0000000000000000e+00 -7.9999999909152453e-01 +1.0484315403318286e-02 -1.0325168489270513e+00 -5.8622495788845375e-02
-8.9999999999999991e-01 +9.0948582119345538e+00 +0.0000000000000000e+00 -8.9999999870648739e-01 +1.0484446420323774e-02 -1.0325165254641453e+00 -5.8622993634995089e-02
-9.9999999999999989e-01 +9.0948484098008038e+00 +0.0000000000000000e+00 -9.9999999822563468e-01 +1.0484582778699099e-02 -1.0325161850445326e+00 -5.8623479810188020e-02
-1.0999999999999999e+00 +9.0948375758651476e+00 +0.0000000000000000e+00 -1.0999999976383203e+00 +1.0484726514995185e-02 -1.0325158237747565e+00 -5.8623951671663288e-02
-1.2000000000000000e+00 +9.0948257101279477e+00 +0.0000000000000000e+00 -1.1999999969338981e+00 +1.0484879665736841e-02 -1.0325154377607431e+00 -5.8624406576487473e-02
-1.3000000000000000e+00 +9.0948128125895913e+00 +0.0000000000000000e+00 -1.2999999961017221e+00 +1.0485044267421126e-02 -1.0325150231077536e+00 -5.8624841881554993e-02
-1.4000000000000001e+00 +9.0947988832504940e+00 +0.0000000000000000e+00 -1.3999999951311461e+00 +1.0485222356515764e-02 -1.0325145759203360e+00 -5.8625254943588695e-02
-1.5000000000000002e+00 +9.0947839221111053e+00 +0.0000000000000000e+00 -1.4999999940115241e+00 +1.0485415969457547e-02 -1.0325140923022804e+00 -5.8625643119140286e-02
-1.6000000000000003e+00 +9.0947679291719101e+00 +0.0000000000000000e+00 -1.5999999927322099e+00 +1.0485626514171965e-02 -1.0325135687351534e+00 -5.8626004434160522e-02
-1.7000000000000004e+00 +9.0947509044334343e+00 +0.0000000000000000e+00 -1.6999999912825579e+00 +1.0485852884651675e-02 -1.0325130032142387e+00 -5.8626339592781157e-02
-1.8000000000000005e+00 +9.0947328478962444e+00 +0.0000000000000000e+00 -1.7999999896519217e+00 +1.0486093346424023e-02 -1.0325123941131713e+00 -5.8626649968744622e-02
-1.9000000000000006e+00 +9.0947137595609515e+00 +0.0000000000000000e+00 -1.8999999878296554e+00 +1.0486346165039843e-02 -1.0325117398054586e+00 -5.8626936935883042e-02
-2.0000000000000004e+00 +9.0946936394282112e+00 +0.0000000000000000e+00 -1.9999999858051130e+00 +1.0486609606079464e-02 -1.0325110386645380e+00 -5.8627201868151090e-02
-2.1000000000000005e+00 +9.0946724874987250e+00 +0.0000000000000000e+00 -2.0999999835676486e+00 +1.0486881935158669e-02 -1.0325102890638280e+00 -5.8627446139658812e-02
-2.2000000000000006e+00 +9.0946503037732462e+00 +0.0000000000000000e+00 -2.1999999811066164e+00 +1.0487161417934758e-02 -1.0325094893767888e+00 -5.8627671124704323e-02
-2.3000000000000007e+00 +9.0946270882525759e+00 +0.0000000000000000e+00 -2.2999999784113707e+00 +1.0487446320112497e-02 -1.0325086379769730e+00 -5.8627878197806960e-02
-2.4000000000000008e+00 +9.0946028409375685e+00 +0.0000000000000000e+00 -2.3999999754712658e+00 +1.0487734907450155e-02 -1.0325077332380852e+00 -5.8628068733739810e-02
-2.5000000000000009e+00 +9.0945775618291300e+00 +0.0000000000000000e+00 -2.4999999722756554e+00 +1.0488025445765487e-02 -1.0325067735340334e+00 -5.8628244107562719e-02
-2.6000000000000010e+00 +9.0945512509282214e+00 +0.0000000000000000e+00 -2.5999999688138944e+00 +1.0488316200941757e-02 -1.0325057572389882e+00 -5.8628405694655064e-02
-2.7000000000000011e+00 +9.0945239082358622e+00 +0.0000000000000000e+00 -2.6999999650753366e+00 +1.0488605438933729e-02 -1.0325046827274358e+00 -5.8628554870748639e-02
-2.8000000000000012e+00 +9.0944955337531290e+00 +0.0000000000000000e+00 -2.7999999610493367e+00 +1.0488891425773668e-02 -1.0325035483742326e+00 -5.8628693011960470e-02
-2.9000000000000012e+00 +9.0944661274811587e+00 +0.0000000000000000e+00 -2.8999999567252490e+00 +1.0489172427577364e-02 -1.0325023525546635e+00 -5.8628821494825553e-02
-3.0000000000000013e+00 +9.0944356894211484e+00 +0.0000000000000000e+00 -2.9999999520924279e+00 +1.0489446710550118e-02 -1.0325010936444967e+00 -5.8628941696329977e-02
-3.1000000000000014e+00 +9.0944042195743613e+00 +0.0000000000000000e+00 -3.0999999471402280e+00 +1.0489712540992777e-02 -1.0324997700200360e+00 -5.8629054993943379e-02
-3.2000000000000015e+00 +9.0943717179421224e+00 +0.0000000000000000e+00 -3.1999999418580036e+00 +1.0489968185307704e-02 -1.0324983800581802e+00 -5.8629162765652082e-02
-3.3000000000000016e+00 +9.0943381845258244e+00 +0.0000000000000000e+00 -3.2999999362351100e+00 +1.0490211910004831e-02 -1.0324969221364755e+00 -5.8629266389991760e-02
-3.4000000000000017e+00 +9.0943036193269293e+00 +0.0000000000000000e+00 -3.3999999302609014e+00 +1.0490441981707635e-02 -1.0324953946331732e+00 -5.8629367246080380e-02
-3.5000000000000018e+00 +9.0942680223469647e+00 +0.0000000000000000e+00 -3.4999999239247326e+00 +1.0490656667159169e-02 -1.0324937959272835e+00 -5.8629466713650949e-02
-3.6000000000000019e+00 +9.0942313935875347e+00 +0.0000000000000000e+00 -3.5999999172159587e+00 +1.0490854817620554e-02 -1.0324921256559147e+00 -5.8629566121245792e-02
-3.7000000000000020e+00 +9.0941937330503109e+00 +0.0000000000000000e+00 -3.6999999101239345e+00 +1.0491037621983565e-02 -1.0324903884859549e+00 -5.8629666590471530e-02
-3.8000000000000020e+00 +9.0941550407370322e+00 +0.0000000000000000e+00 -3.7999999026380151e+00 +1.0491206853456151e-02 -1.0324885903418339e+00 -5.8629769191066390e-02
-3.9000000000000021e+00 +9.0941153166494999e+00 +0.0000000000000000e+00 -3.8999998947475554e+00 +1.0491364285139337e-02 -1.0324867371481865e+00 -5.8629874992655366e-02
-4.0000000000000018e+00 +9.0940745607895686e+00 +0.0000000000000000e+00 -3.9999998864419108e+00 +1.0491511690017582e-02 -1.0324848348298585e+00 -5.8629985064729398e-02
-4.1000000000000014e+00 +9.0940327731591442e+00 +0.0000000000000000e+00 -4.0999998777104363e+00 +1.0491650840949140e-02 -1.0324828893119122e+00 -5.8630100476624425e-02
-4.2000000000000011e+00 +9.0939899537601754e+00 +0.0000000000000000e+00 -4.1999998685424877e+00 +1.0491783510656385e-02 -1.0324809065196345e+00 -5.8630222297500506e-02
-4.3000000000000007e+00 +9.0939461025946464e+00 +0.0000000000000000e+00 -4.2999998589274204e+00 +1.0491911471716147e-02 -1.0324788923785451e+00 -5.8630351596320879e-02
-4.4000000000000004e+00 +9.0939012196645752e+00 +0.0000000000000000e+00 -4.3999998488545895e+00 +1.0492036496550070e-02 -1.0324768528143995e+00 -5.8630489441831093e-02
-4.5000000000000000e+00 +9.0938553049720028e+00 +0.0000000000000000e+00 -4.4999998383133502e+00 +1.0492160357414954e-02 -1.0324747937531995e+00 -5.8630636902538051e-02
-4.5999999999999996e+00 +9.0938083585189915e+00 +0.0000000000000000e+00 -4.5999998272930585e+00 +1.0492284826393092e-02 -1.0324727211211997e+00 -5.8630795046689173e-02
-4.6999999999999993e+00 +9.0937603803076179e+00 +0.0000000000000000e+00 -4.6999998157830705e+00 +1.0492411675382599e-02 -1.0324706408449111e+00 -5.8630964942251333e-02
-4.7999999999999989e+00 +9.0937113703399657e+00 +0.0000000000000000e+00 -4.7999998037727414e+00 +1.0492542676087770e-02 -1.0324685588511122e+00 -5.8631147656890113e-02
-4.8999999999999986e+00 +9.0936613286181185e+00 +0.0000000000000000e+00 -4.8999997912514273e+00 +1.0492679600009394e-02 -1.0324664810668520e+00 -5.8631344257948720e-02
-4.9999999999999982e+00 +9.0936102551441582e+00 +0.0000000000000000e+00 -4.9999997782084842e+00 +1.0492824218435112e-02 -1.0324644134194607e+00 -5.8631555812427252e-02
-5.0999999999999979e+00 +9.0935581499201579e+00 +0.0000000000000000e+00 -5.0999997646332682e+00 +1.0492978302429729e-02 -1.0324623618365523e+00 -5.8631783386961504e-02
-5.1999999999999975e+00 +9.0935050129481709e+00 +0.0000000000000000e+00 -5.1999997505151345e+00 +1.0493143622825576e-02 -1.0324603322460357e+00 -5.8632028047802293e-02
-5.2999999999999972e+00 +9.0934508442302295e+00 +0.0000000000000000e+00 -5.2999997358434401e+00 +1.0493321950212795e-02 -1.0324583305761184e+00 -5.8632290860794314e-02
-5.3999999999999968e+00 +9.0933956437683410e+00 +0.0000000000000000e+00 -5.3999997206075401e+00 +1.0493515054929729e-02 -1.0324563627553143e+00 -5.8632572891355414e-02
-5.4999999999999964e+00 +9.0933394115644770e+00 +0.0000000000000000e+00 -5.4999997047967915e+00 +1.0493724707053200e-02 -1.0324544347124514e+00 -5.8632875204455433e-02
-5.5999999999999961e+00 +9.0932821476205703e+00 +0.0000000000000000e+00 -5.5999996884005503e+00 +1.0493952271030779e-02 -1.0324525536726947e+00 -5.8633198328149533e-02
-5.6999999999999957e+00 +9.0932238519385038e+00 +0.0000000000000000e+00 -5.6999996714081727e+00 +1.0494197489724237e-02 -1.0324507320470742e+00 -5.8633540644331544e-02
-5.7999999999999954e+00 +9.0931645245201036e+00 +0.0000000000000000e+00 -5.7999996538090146e+00 +1.0494459700738031e-02 -1.0324489835469899e+00 -5.8633899998297580e-02
-5.8999999999999950e+00 +9.0931041653671230e+00 +0.0000000000000000e+00 -5.8999996355924331e+00 +1.0494738241828217e-02 -1.0324473218887076e+00 -5.8634274235229551e-02
-5.9999999999999947e+00 +9.0930427744812281e+00 +0.0000000000000000e+00 -5.9999996167477834e+00 +1.0495032450911670e-02 -1.0324457607935600e+00 -5.8634661200191937e-02
-6.0999999999999943e+00 +9.0929803518639822e+00 +0.0000000000000000e+00 -6.0999995972644223e+00 +1.0495341666075252e-02 -1.0324443139881387e+00 -5.8635058738128007e-02
-6.1999999999999940e+00 +9.0929168975168384e+00 +0.0000000000000000e+00 -6.1999995771317060e+00 +1.0495665225584996e-02 -1.0324429952044909e+00 -5.8635464693856575e-02
-6.2999999999999936e+00 +9.0928524114411200e+00 +0.0000000000000000e+00 -6.2999995563389906e+00 +1.0496002467895281e-02 -1.0324418181803146e+00 -5.8635876912068306e-02
-6.3999999999999932e+00 +9.0927868936380083e+00 +0.0000000000000000e+00 -6.3999995348756320e+00 +1.0496352731658066e-02 -1.0324407966591542e+00 -5.8636293237322369e-02
-6.4999999999999929e+00 +9.0927203441085300e+00 +0.0000000000000000e+00 -6.4999995127309864e+00 +1.0496715355732015e-02 -1.0324399443905963e+00 -5.8636711514042809e-02
-6.5999999999999925e+00 +9.0926527628535432e+00 +0.0000000000000000e+00 -6.5999994898944099e+00 +1.0497089679191742e-02 -1.0324392751304625e+00 -5.8637129586515138e-02
-6.6999999999999922e+00 +9.0925841498737228e+00 +0.0000000000000000e+00 -6.6999994663552584e+00 +1.0497475041336992e-02 -1.0324388026410096e+00 -5.8637545298882814e-02
-6.7999999999999918e+00 +9.0925145051695466e+00 +0.0000000000000000e+00 -6.7999994421028882e+00 +1.0497870781701821e-02 -1.0324385406911198e+00 -5.8637956495143737e-02
-6.8999999999999915e+00 +9.0924438287412830e+00 +0.0000000000000000e+00 -6.8999994171266543e+00 +1.0498276240063832e-02 -1.0324385030565015e+00 -5.8638361019146844e-02
-6.9999999999999911e+00 +9.0923721205889763e+00 +0.0000000000000000e+00 -6.9999993914159120e+00 +1.0498690756453337e-02 -1.0324387035198797e+00 -5.8638756714588500e-02
-7.0999999999999908e+00 +9.0922993807124328e+00 +0.0000000000000000e+00 -7.0999993649600164e+00 +1.0499113671162595e-02 -1.0324391558711934e+00 -5.8639141425009082e-02
-7.1999999999999904e+00 +9.0922256091112068e+00 +0.0000000000000000e+00 -7.1999993377483236e+00 +1.0499544324754995e-02 -1.0324398739077925e+00 -5.8639512993789521e-02
-7.2999999999999901e+00 +9.0921508057845859e+00 +0.0000000000000000e+00 -7.2999993097701878e+00 +1.0499982058074283e-02 -1.0324408714346309e+00 -5.8639869264147770e-02
-7.3999999999999897e+00 +9.0920749707315824e+00 +0.0000000000000000e+00 -7.3999992810149635e+00 +1.0500426212253776e-02 -1.0324421622644639e+00 -5.8640208079135385e-02
-7.4999999999999893e+00 +9.0919981039509121e+00 +0.0000000000000000e+00 -7.4999992514720057e+00 +1.0500876128725556e-02 -1.0324437602180407e+00 -5.8640527281633936e-02
-7.5999999999999890e+00 +9.0919202054409851e+00 +0.0000000000000000e+00 -7.5999992211306679e+00 +1.0501330974467227e-02 -1.0324456736948393e+00 -5.8640825381069198e-02
-7.6999999999999886e+00 +9.0918412751998989e+00 +0.0000000000000000e+00 -7.6999991899803044e+00 +1.0501789217581093e-02 -1.0324478893794140e+00 -5.8641103553760530e-02
-7.7999999999999883e+00 +9.0917613132254509e+00 +0.0000000000000000e+00 -7.7999991580102686e+00 +1.0502249151370834e-02 -1.0324503885213050e+00 -5.8641363642987408e-02
-7.8999999999999879e+00 +9.0916803195151523e+00 +0.0000000000000000e+00 -7.8999991252099138e+00 +1.0502709069077491e-02 -1.0324531523632285e+00 -5.8641607492286585e-02
-7.9999999999999876e+00 +9.0915982940662516e+00 +0.0000000000000000e+00 -7.9999990915685935e+00 +1.0503167263876166e-02 -1.0324561621407906e+00 -5.8641836945462447e-02
-8.0999999999999872e+00 +9.0915152368757504e+00 +0.0000000000000000e+00 -8.0999990570756601e+00 +1.0503622028872790e-02 -1.0324593990821938e+00 -5.8642053846597209e-02
-8.1999999999999869e+00 +9.0914311479404262e+00 +0.0000000000000000e+00 -8.1999990217204655e+00 +1.0504071657100834e-02 -1.0324628444079422e+00 -5.8642260040061088e-02
-8.2999999999999865e+00 +9.0913460272568454e+00 +0.0000000000000000e+00 -8.2999989854923619e+00 +1.0504514441518063e-02 -1.0324664793305545e+00 -5.8642457370522635e-02
-8.3999999999999861e+00 +9.0912598748213860e+00 +0.0000000000000000e+00 -8.3999989483807003e+00 +1.0504948675003251e-02 -1.0324702850542677e+00 -5.8642647682958897e-02
-8.4999999999999858e+00 +9.0911726906302572e+00 +0.0000000000000000e+00 -8.4999989103748330e+00 +1.0505372650352916e-02 -1.0324742427747473e+00 -5.8642832822665608e-02
-8.5999999999999854e+00 +9.0910844746795139e+00 +0.0000000000000000e+00 -8.5999988714641127e+00 +1.0505784660278081e-02 -1.0324783336787955e+00 -5.8643014635267478e-02
-8.6999999999999851e+00 +9.0909952269650791e+00 +0.0000000000000000e+00 -8.6999988316378882e+00 +1.0506182997400961e-02 -1.0324825389440584e+00 -5.8643194966728422e-02
-8.7999999999999847e+00 +9.0909049474827608e+00 +0.0000000000000000e+00 -8.7999987908855122e+00 +1.0506565954251736e-02 -1.0324868397387348e+00 -5.8643375663361606e-02
-8.8999999999999844e+00 +9.0908136362282743e+00 +0.0000000000000000e+00 -8.8999987491963335e+00 +1.0506931823265262e-02 -1.0324912172212839e+00 -5.8643558571839907e-02
-8.9999999999999840e+00 +9.0907212931972552e+00 +0.0000000000000000e+00 -8.9999987065597047e+00 +1.0507278896777805e-02 -1.0324956525401336e+00 -5.8643745539205906e-02
-9.0999999999999837e+00 +9.0906279183852821e+00 +0.0000000000000000e+00 -9.0999986629649747e+00 +1.0507605467023770e-02 -1.0325001268333898e+00 -5.8643938412882173e-02
-9.1999999999999833e+00 +9.0905335117878963e+00 +0.0000000000000000e+00 -9.1999986184014926e+00 +1.0507909826132438e-02 -1.0325046212285407e+00 -5.8644139040681442e-02
-9.2999999999999829e+00 +9.0904380734006160e+00 +0.0000000000000000e+00 -9.2999985728586090e+00 +1.0508190266124694e-02 -1.0325091168421705e+00 -5.8644349270816833e-02
-9.3999999999999826e+00 +9.0903416032189632e+00 +0.0000000000000000e+00 -9.3999985263256747e+00 +1.0508445078909745e-02 -1.0325135947796629e+00 -5.8644570951911987e-02
-9.4999999999999822e+00 +9.0902441012384738e+00 +0.0000000000000000e+00 -9.4999984787920386e+00 +1.0508672556281871e-02 -1.0325180361349116e+00 -5.8644805933011281e-02
-9.5999999999999819e+00 +9.0901455674547211e+00 +0.0000000000000000e+00 -9.5999984302470498e+00 +1.0508871665952019e-02 -1.0325224228426038e+00 -5.8645055481389055e-02
-9.6999999999999815e+00 +9.0900460018633336e+00 +0.0000000000000000e+00 -9.6999983806800589e+00 +1.0509044079791091e-02 -1.0325267402380029e+00 -5.8645318535667630e-02
-9.7999999999999812e+00 +9.0899454044600088e+00 +0.0000000000000000e+00 -9.7999983300804150e+00 +1.0509192145693257e-02 -1.0325309745027615e+00 -5.8645593452157183e-02
-9.8999999999999808e+00 +9.0898437752405261e+00 +0.0000000000000000e+00 -9.8999982784374669e+00 +1.0509318211482056e-02 -1.0325351118126871e+00 -5.8645878587060815e-02
-9.9999999999999805e+00 +9.0897411142007645e+00 +0.0000000000000000e+00 -9.9999982257405637e+00 +1.0509424624908552e-02 -1.0325391383376199e+00 -5.8646172296470934e-02
-1.0099999999999980e+01 +9.0896374213367110e+00 +0.0000000000000000e+00 -1.0099998171979056e+01 +1.0509513733649454e-02 -1.0325430402413118e+00 -5.8646472936365296e-02
-1.0199999999999980e+01 +9.0895326966444792e+00 +0.0000000000000000e+00 -1.0199998117142291e+01 +1.0509587885305280e-02 -1.0325468036813068e+00 -5.8646778862603235e-02
-1.0299999999999979e+01 +9.0894269401203207e+00 +0.0000000000000000e+00 -1.0299998061219620e+01 +1.0509649427398496e-02 -1.0325504148088189e+00 -5.8647088430921958e-02
-1.0399999999999979e+01 +9.0893201517606403e+00 +0.0000000000000000e+00 -1.0399998004200391e+01 +1.0509700707371649e-02 -1.0325538597686115e+00 -5.8647399996932616e-02
-1.0499999999999979e+01 +9.0892123315620061e+00 +0.0000000000000000e+00 -1.0499997946073954e+01 +1.0509744072585503e-02 -1.0325571246988765e+00 -5.8647711916116695e-02
-1.0599999999999978e+01 +9.0891034795211691e+00 +0.0000000000000000e+00 -1.0599997886829659e+01 +1.0509781870317182e-02 -1.0325601957311141e+00 -5.8648022543822113e-02
-1.0699999999999978e+01 +9.0889935956350723e+00 +0.0000000000000000e+00 -1.0699997826456855e+01 +1.0509816447758303e-02 -1.0325630589900119e+00 -5.8648330235259609e-02
-1.0799999999999978e+01 +9.0888826799008680e+00 +0.0000000000000000e+00 -1.0799997764944891e+01 +1.0509850152013096e-02 -1.0325657005933233e+00 -5.8648633345498878e-02
-1.0899999999999977e+01 +9.0887707323159290e+00 +0.0000000000000000e+00 -1.0899997702283120e+01 +1.0509885330096560e-02 -1.0325681066517476e+00 -5.8648930229464907e-02
-1.0999999999999977e+01 +9.0886577528778645e+00 +0.0000000000000000e+00 -1.0999997638460888e+01 +1.0509924328932552e-02 -1.0325702632688103e+00 -5.8649219241934246e-02
-1.1099999999999977e+01 +9.0885437415845320e+00 +0.0000000000000000e+00 -1.1099997573467549e+01 +1.0509969495351957e-02 -1.0325721565407406e+00 -5.8649498737531329e-02
-1.1199999999999976e+01 +9.0884286984340541e+00 +0.0000000000000000e+00 -1.1199997507292451e+01 +1.0510023176090785e-02 -1.0325737725563533e+00 -5.8649767070724744e-02
-1.1299999999999976e+01 +9.0883126234248284e+00 +0.0000000000000000e+00 -1.1299997439924946e+01 +1.0510087717788290e-02 -1.0325750973969259e+00 -5.8650022595823539e-02
-1.1399999999999975e+01 +9.0881955165555439e+00 +0.0000000000000000e+00 -1.1399997371354385e+01 +1.0510165466985110e-02 -1.0325761171360786e+00 -5.8650263666973547e-02
-1.1499999999999975e+01 +9.0880773778251953e+00 +0.0000000000000000e+00 -1.1499997301570119e+01 +1.0510258770121367e-02 -1.0325768178396577e+00 -5.8650488638153787e-02
-1.1599999999999975e+01 +9.0879582072330969e+00 +0.0000000000000000e+00 -1.1599997230561499e+01 +1.0510369387255152e-02 -1.0325771917215256e+00 -5.8650696281568528e-02
-1.1699999999999974e+01 +9.0878380047788863e+00 +0.0000000000000000e+00 -1.1699997158317879e+01 +1.0510496733129166e-02 -1.0325772556199262e+00 -5.8650887043002115e-02
