# multipoles
# s[mm] polynom_b[n=0][T/m^n] polynom_b[n=1][T/m^n] polynom_b[n=2][T/m^n] polynom_b[n=3][T/m^n] polynom_b[n=4][T/m^n] polynom_b[n=5][T/m^n] polynom_b[n=6][T/m^n] 
+0.0000000000000000e+00 -5.1457829839608595e-02 +1.1570534595810739e-01 +9.6511362207311546e-01 +7.9721616715772814e-01 +4.0270172317444207e+02 +2.8977288525828135e+04 +5.2977563360813109e+05 
+1.0000000000000001e-01 -5.1457847979579037e-02 +1.1570634624855379e-01 +9.6522029914842311e-01 +7.9268395232826028e-01 +4.0050341224327695e+02 +2.8944952216621754e+04 +5.3822918427128065e+05 
+2.0000000000000001e-01 -5.1457868895046860e-02 +1.1570752818701929e-01 +9.6545288146844721e-01 +7.8772030264376214e-01 +3.9669483951803113e+02 +2.8902550670954886e+04 +5.5226678348704160e+05 
+3.0000000000000004e-01 -5.1457892513601361e-02 +1.1570885722954356e-01 +9.6580501647217631e-01 +7.8284230475345773e-01 +3.9137990804049923e+02 +2.8848501273570255e+04 +5.7146682632336754e+05 
+4.0000000000000002e-01 -5.1457918762832504e-02 +1.1571029883077061e-01 +9.6627035150794816e-01 +7.7856707596954788e-01 +3.8466252381563129e+02 +2.8781221278470788e+04 +5.9540769090228854e+05 
+5.0000000000000000e-01 -5.1457947570328615e-02 +1.1571181844471809e-01 +9.6684253359618977e-01 +7.7541174194630347e-01 +3.7664660002923722e+02 +2.8699127937545687e+04 +6.2366771891051251e+05 
+5.9999999999999998e-01 -5.1457978863675459e-02 +1.1571338152419028e-01 +9.6751520936607860e-01 +7.7389345351562822e-01 +3.6743605805162525e+02 +2.8600638401511787e+04 +6.5582521068298188e+05 
+6.9999999999999996e-01 -5.1458012570459517e-02 +1.1571495352144505e-01 +9.6828202542548547e-01 +7.7452936721435295e-01 +3.5713482046781974e+02 +2.8484169832279505e+04 +6.9145845811022480e+05 
+7.9999999999999993e-01 -5.1458048618264536e-02 +1.1571649988820273e-01 +9.6913662802420519e-01 +7.7783664560744314e-01 +3.4584681714275501e+02 +2.8348139397804833e+04 +7.3014571608575934e+05 
+8.9999999999999991e-01 -5.1458086934670598e-02 +1.1571798607523902e-01 +9.7007266289860816e-01 +7.8433246784258670e-01 +3.3367598813449308e+02 +2.8190964212939027e+04 +7.7146518856281892e+05 
+9.9999999999999989e-01 -5.1458127447257515e-02 +1.1571937753315709e-01 +9.7108377576280824e-01 +7.9453400867766211e-01 +3.2072627425724994e+02 +2.8011061455567382e+04 +8.1499507315470756e+05 
+1.0999999999999999e+00 -5.1458170083598237e-02 +1.1572063971190208e-01 +9.7216361149485886e-01 +8.0895845121480114e-01 +3.0710163222379254e+02 +2.7806848295530606e+04 +8.6031348977672344e+05 
+1.2000000000000000e+00 -5.1458214771265352e-02 +1.1572173806159533e-01 +9.7330581496390789e-01 +8.2812296314819422e-01 +2.9290601913502854e+02 +2.7576742029587211e+04 +9.0699855322492949e+05 
+1.3000000000000000e+00 -5.1458261437825920e-02 +1.1572263803146392e-01 +9.7450403042115807e-01 +8.5254472823697236e-01 +2.7824340349418799e+02 +2.7319159895437759e+04 +9.5462832227130490e+05 
+1.4000000000000001e+00 -5.1458310010839919e-02 +1.1572330507125751e-01 +9.7575190132338407e-01 +8.8274090396860339e-01 +2.6321776881881868e+02 +2.7032519321069336e+04 +1.0027807810595762e+06 
+1.5000000000000002e+00 -5.1458360417866181e-02 +1.1572370463028732e-01 +9.7704307110443467e-01 +9.1922865095146644e-01 +2.4793309849709809e+02 +2.6715237746812261e+04 +1.0510339122843505e+06 
+1.6000000000000003e+00 -5.1458412586455358e-02 +1.1572380215821157e-01 +9.7837118230761511e-01 +9.6252510899850552e-01 +2.3249339248605000e+02 +2.6365732766885314e+04 +1.0989656166561684e+06 
+1.7000000000000004e+00 -5.1458466444153875e-02 +1.1572356310470722e-01 +9.7972987712313730e-01 +1.0131474061565107e+00 +2.1700265653835675e+02 +2.5982422076978593e+04 +1.1461537654759288e+06 
+1.8000000000000005e+00 -5.1458521918499589e-02 +1.1572295291984212e-01 +9.8111279684069908e-01 +1.0716126495326996e+00 +2.0156491298318434e+02 +2.5563723520957443e+04 +1.1921761476985626e+06 
+1.9000000000000006e+00 -5.1458578937026177e-02 +1.1572193705385132e-01 +9.8251358246520715e-01 +1.1384379302822984e+00 +1.8628418832035169e+02 +2.5108055064771299e+04 +1.2366105306553533e+06 
+2.0000000000000004e+00 -5.1458637427257745e-02 +1.1572048095755162e-01 +9.8392587401285736e-01 +1.2141403120259648e+00 +1.7126452698941546e+02 +2.4613834860510564e+04 +1.2790345929786696e+06 
+2.1000000000000005e+00 -5.1458697312790347e-02 +1.1571856190903021e-01 +9.8534368811380568e-01 +1.2989888455011360e+00 +1.5659185785840560e+02 +2.4080590513890296e+04 +1.3191297854070615e+06 
+2.2000000000000006e+00 -5.1458758503553630e-02 +1.1571620372099493e-01 +9.8676254613289038e-01 +1.3922927714662221e+00 +1.4227984504028021e+02 +2.3512118542831195e+04 +1.3569946265959071e+06 
+2.3000000000000007e+00 -5.1458820906576538e-02 +1.1571344164992214e-01 +9.8817834730208898e-01 +1.4931294501639190e+00 +1.2832406617906548e+02 +2.2913239679831557e+04 +1.3928327558633564e+06 
+2.4000000000000008e+00 -5.1458884428893001e-02 +1.1571031095307495e-01 +9.8958699158040331e-01 +1.6005762305854456e+00 +1.1472008466269394e+02 +2.2288774669009013e+04 +1.4268478801637425e+06 
+2.5000000000000009e+00 -5.1458948977536320e-02 +1.1570684688952443e-01 +9.9098437892574198e-01 +1.7137104227394164e+00 +1.0146346374733437e+02 +2.1643544419335725e+04 +1.4592437064359370e+06 
+2.6000000000000010e+00 -5.1459014459541777e-02 +1.1570308471938065e-01 +9.9236640963333222e-01 +1.8316093216828868e+00 +8.8549759904967516e+01 +2.0982369857273941e+04 +1.4902239740030137e+06 
+2.7000000000000011e+00 -5.1459080781954158e-02 +1.1569905970455321e-01 +9.9372898528604336e-01 +1.9533501874373189e+00 +7.5974504736679776e+01 +2.0310072034915189e+04 +1.5199925408354574e+06 
+2.8000000000000012e+00 -5.1459147851815740e-02 +1.1569480710827558e-01 +9.9506800718581190e-01 +2.0780102617272163e+00 +6.3733235285536502e+01 +1.9631472022414167e+04 +1.5487532383153329e+06 
+2.9000000000000012e+00 -5.1459215576178462e-02 +1.1569036219628734e-01 +9.9637937799320031e-01 +2.2046667348159632e+00 +5.1821462040966594e+01 +1.8951391094256185e+04 +1.5767100257054095e+06 
+3.0000000000000013e+00 -5.1459283862097006e-02 +1.1568576023525262e-01 +9.9765900074276770e-01 +2.3323967947776039e+00 +4.0234688351146026e+01 +1.8274650430803158e+04 +1.6040668963322432e+06 
+3.1000000000000014e+00 -5.1459352616636041e-02 +1.1568103649475571e-01 +9.9890277982304321e-01 +2.4602775708338940e+00 +2.8968391528807064e+01 +1.7606071441536064e+04 +1.6310279681978719e+06 
+3.2000000000000015e+00 -5.1459421746863375e-02 +1.1567622624622405e-01 +1.0001066200777529e+00 +2.5873861663863957e+00 +1.8018039908653670e+01 +1.6950475565386736e+04 +1.6577974032924650e+06 
+3.3000000000000016e+00 -5.1459491159855722e-02 +1.1567136476334382e-01 +1.0012664275604350e+00 +2.7127996504982526e+00 +7.3790785525882798e+00 +1.6312684307613881e+04 +1.6845794754539437e+06 
+3.4000000000000017e+00 -5.1459560762698718e-02 +1.1566648732256353e-01 +1.0023781095197615e+00 +2.8355950438724435e+00 -2.9530705526473096e+00 +1.5697519316569922e+04 +1.7115785700548640e+06 
+3.5000000000000018e+00 -5.1459630462487457e-02 +1.1566162920248739e-01 +1.0034375744566417e+00 +2.9548493396613646e+00 -1.2983009405547833e+01 +1.5109802251634281e+04 +1.7389991878815093e+06 
+3.6000000000000019e+00 -5.1459700166323903e-02 +1.1565682568467955e-01 +1.0044407317999451e+00 +3.0696394823509023e+00 -2.2715357940007660e+01 +1.4554354896456682e+04 +1.7670459170213072e+06 
+3.7000000000000020e+00 -5.1459769781323494e-02 +1.1565211205350943e-01 +1.0053834927597201e+00 +3.1790423730654851e+00 -3.2154770248845146e+01 +1.4035999123622820e+04 +1.7959235100809326e+06 
+3.8000000000000020e+00 -5.1459839214609386e-02 +1.1564752359619085e-01 +1.0062617695690887e+00 +3.2821348724308930e+00 -4.1305920172880711e+01 +1.3559556863333626e+04 +1.8258368160016739e+06 
+3.9000000000000021e+00 -5.1459908373318944e-02 +1.1564309560322622e-01 +1.0070714763406381e+00 +3.3779937882223448e+00 -5.0173517688933742e+01 +1.3129850171957603e+04 +1.8569908584062648e+06 
+4.0000000000000018e+00 -5.1459977164599546e-02 +1.1563886336790220e-01 +1.0078085284653298e+00 +3.4656958973244048e+00 -5.8762296539225702e+01 +1.2751701086791818e+04 +1.8895907745557576e+06 
+4.1000000000000014e+00 -5.1460045515037918e-02 +1.1563485630891633e-01 +1.0084699790513718e+00 +3.5445440417879182e+00 -6.7075011619497829e+01 +1.2428517095648607e+04 +1.9237747202446095e+06 
+4.2000000000000011e+00 -5.1460113423876554e-02 +1.1563108215175856e-01 +1.0090569886846636e+00 +3.6146380180913247e+00 -7.5102378111176222e+01 +1.2158725823866564e+04 +1.9594062238155040e+06 
+4.3000000000000007e+00 -5.1460180907284041e-02 +1.1562754364572875e-01 +1.0095716334399263e+00 +3.6762508402835326e+00 -8.2830845151118552e+01 +1.1939673012325413e+04 +1.9962769274918069e+06 
+4.4000000000000004e+00 -5.1460247981428169e-02 +1.1562424353946220e-01 +1.0100159888789668e+00 +3.7296555357478089e+00 -9.0246848145890226e+01 +1.1768704357673158e+04 +2.0341783993255668e+06 
+4.5000000000000000e+00 -5.1460314662475831e-02 +1.1562118458146556e-01 +1.0103921300862206e+00 +3.7751251273106559e+00 -9.7336809814234599e+01 +1.1643165632986593e+04 +2.0729021386119206e+06 
+4.5999999999999996e+00 -5.1460380966594339e-02 +1.1561836951954037e-01 +1.0107021317988039e+00 +3.8129326507238996e+00 -1.0408714260308288e+02 +1.1560402586377813e+04 +2.1122395876628910e+06 
+4.6999999999999993e+00 -5.1460446909947742e-02 +1.1561580110100671e-01 +1.0109480678711824e+00 +3.8433511458182377e+00 -1.1048423773183639e+02 +1.1517761002283083e+04 +2.1519820774724111e+06 
+4.7999999999999989e+00 -5.1460512508702531e-02 +1.1561348207232532e-01 +1.0111320120519505e+00 +3.8666536671307163e+00 -1.1651448051990462e+02 +1.1512586642821932e+04 +2.1919209023856148e+06 
+4.8999999999999986e+00 -5.1460577779018891e-02 +1.1561141517924479e-01 +1.0112560367662240e+00 +3.8831132778076127e+00 -1.2216422628773410e+02 +1.1542225291787223e+04 +2.2318472030383600e+06 
+4.9999999999999982e+00 -5.1460642737060462e-02 +1.1560960316672661e-01 +1.0113222144041825e+00 +3.8930030507248414e+00 -1.2741982521686130e+02 +1.1604022753572408e+04 +2.2715520855637621e+06 
+5.0999999999999979e+00 -5.1460707398986075e-02 +1.1560804877849974e-01 +1.0113326162025487e+00 +3.8965960803097413e+00 -1.3226760056244467e+02 +1.1695324790311279e+04 +2.3108265168474130e+06 
+5.1999999999999975e+00 -5.1460771780953901e-02 +1.1560675475728108e-01 +1.0112893127528899e+00 +3.8941654755866506e+00 -1.3669385823414208e+02 +1.1813477166941282e+04 +2.3494613699469282e+06 
+5.2999999999999972e+00 -5.1460835899119178e-02 +1.1560572384474092e-01 +1.0111943736969387e+00 +3.8859843585845866e+00 -1.4068488066583146e+02 +1.1955825670302778e+04 +2.3872473940956695e+06 
+5.3999999999999968e+00 -5.1460899769636269e-02 +1.1560495878105533e-01 +1.0110498679674922e+00 +3.8723258772470834e+00 -1.4422693141732998e+02 +1.2119716037200486e+04 +2.4239752367963400e+06 
+5.4999999999999964e+00 -5.1460963408654387e-02 +1.1560446230508166e-01 +1.0108578632071856e+00 +3.8534631989577028e+00 -1.4730624366533041e+02 +1.2302493998606540e+04 +2.4594353880237187e+06 
+5.5999999999999961e+00 -5.1461026832324071e-02 +1.1560423715422163e-01 +1.0106204265827365e+00 +3.8296695130989034e+00 -1.4990903566259345e+02 +1.2501505272067203e+04 +2.4934182537113163e+06 
+5.6999999999999957e+00 -5.1461090056788915e-02 +1.1560428606418148e-01 +1.0103396236976370e+00 +3.8012180369826787e+00 -1.5202148978321077e+02 +1.2714095532180570e+04 +2.5257140555817490e+06 
+5.7999999999999954e+00 -5.1461153098191867e-02 +1.1560461176933584e-01 +1.0100175193657408e+00 +3.7683820040163014e+00 -1.5362976699989244e+02 +1.2937610486336131e+04 +2.5561128993846611e+06 
+5.8999999999999950e+00 -5.1461215972672156e-02 +1.1560521700186635e-01 +1.0096561772288515e+00 +3.7314346873484880e+00 -1.5471999953596341e+02 +1.3169395743673325e+04 +2.5844047399257002e+06 
+5.9999999999999947e+00 -5.1461278696364507e-02 +1.1560610449204486e-01 +1.0092576595393741e+00 +3.6906493820165838e+00 -1.5527828696097384e+02 +1.3406796975062458e+04 +2.6103793664743109e+06 
+6.0999999999999943e+00 -5.1461341276945884e-02 +1.1560727075701804e-01 +1.0088232838096327e+00 +3.6463439599226364e+00 -1.5528300836783725e+02 +1.3647388998978922e+04 +2.6338125632652296e+06 
+6.1999999999999940e+00 -5.1461403695933633e-02 +1.1560868694344929e-01 +1.0083529453848932e+00 +3.5990528829219635e+00 -1.5470745293873679e+02 +1.3889367662412387e+04 +2.6545194796265112e+06 
+6.2999999999999936e+00 -5.1461465930139727e-02 +1.1561031764454899e-01 +1.0078465646552910e+00 +3.5493743241508939e+00 -1.5353002436370585e+02 +1.4131022947456322e+04 +2.6723490263749133e+06 
+6.3999999999999932e+00 -5.1461527956373113e-02 +1.1561212745227407e-01 +1.0073040625422862e+00 +3.4979064803938211e+00 -1.5172914756478178e+02 +1.4370644776584753e+04 +2.6871502487996421e+06 
+6.4999999999999929e+00 -5.1461589751438455e-02 +1.1561408095794548e-01 +1.0067253603125605e+00 +3.4452475581107702e+00 -1.4928326561761068e+02 +1.4606523058455805e+04 +2.6987723159388504e+06 
+6.5999999999999925e+00 -5.1461651292142079e-02 +1.1561614275209729e-01 +1.0061103803721423e+00 +3.3919957774978795e+00 -1.4617085542379593e+02 +1.4836947665378155e+04 +2.7070645970568387e+06 
+6.6999999999999922e+00 -5.1461712555282077e-02 +1.1561827742413919e-01 +1.0054590450846377e+00 +3.3387493818367768e+00 -1.4237040580544385e+02 +1.5060208380763721e+04 +2.7118765590063771e+06 
+6.7999999999999918e+00 -5.1461773517658869e-02 +1.1562044956271939e-01 +1.0047712780980551e+00 +3.2861066269024022e+00 -1.3786044299184948e+02 +1.5274594961220726e+04 +2.7130578884352096e+06 
+6.8999999999999915e+00 -5.1461834156064326e-02 +1.1562262375535949e-01 +1.0040470030563953e+00 +3.2346657910203107e+00 -1.3261950709217561e+02 +1.5478397079742868e+04 +2.7104583828244577e+06 
+6.9999999999999911e+00 -5.1461894447291767e-02 +1.1562476458879142e-01 +1.0032861448924977e+00 +3.1850251646502477e+00 -1.2662617682468176e+02 +1.5669904388895884e+04 +2.7039280685119829e+06 
+7.0999999999999908e+00 -5.1461954368127311e-02 +1.1562683664860297e-01 +1.0024886287701789e+00 +3.1377830605076964e+00 -1.1985905009665865e+02 +1.5847406462458104e+04 +2.6933171105504371e+06 
+7.1999999999999904e+00 -5.1462013895356852e-02 +1.1562880451896329e-01 +1.0016543809877447e+00 +3.0935378220456298e+00 -1.1229676149062256e+02 +1.6009192744935948e+04 +2.6784758968327902e+06 
+7.2999999999999901e+00 -5.1462073005760105e-02 +1.1563063278346897e-01 +1.0007833283053496e+00 +3.0528877965259928e+00 -1.0391797019098992e+02 +1.6153552715694428e+04 +2.6592549828404407e+06 
+7.3999999999999897e+00 -5.1462131676113743e-02 +1.1563228602410811e-01 +9.9987539836571659e-01 +3.0164313667785274e+00 -9.4701368542438473e+01 +1.6278775699334103e+04 +2.6355051341315038e+06 
+7.4999999999999893e+00 -5.1462189883191532e-02 +1.1563372882174359e-01 +9.9893051974224145e-01 +2.9847669359455153e+00 -8.4625683259526880e+01 +1.6383150958626295e+04 +2.6070773329447247e+06 
+7.5999999999999890e+00 -5.1462247603760711e-02 +1.1563492575625205e-01 +9.9794862152839803e-01 +2.9584929227969332e+00 -7.3669668246942024e+01 +1.6464967723650007e+04 +2.5738227461115392e+06 
+7.6999999999999886e+00 -5.1462304814587877e-02 +1.1563584140582348e-01 +9.9692963412767066e-01 +2.9382077820713648e+00 -6.1812120139692560e+01 +1.6522515074222778e+04 +2.5355928004600527e+06 
+7.7999999999999883e+00 -5.1462361492431559e-02 +1.1563644034751006e-01 +9.9587348836618605e-01 +2.9245099886810877e+00 -4.9031862022605374e+01 +1.6554082031137117e+04 +2.4922391072947201e+06 
+7.8999999999999879e+00 -5.1462417614049266e-02 +1.1563668715697466e-01 +9.9478011640484421e-01 +2.9179980435319139e+00 -3.5307761218669718e+01 +1.6557957527583829e+04 +2.4436135483500576e+06 
+7.9999999999999876e+00 -5.1462473156194559e-02 +1.1563654641015615e-01 +9.9364945162984164e-01 +2.9192704258657716e+00 -2.0618729653733773e+01 +1.6532430578652893e+04 +2.3895682753186333e+06 
+8.0999999999999872e+00 -5.1462528115136900e-02 +1.1563599170740731e-01 +9.9248296693628724e-01 +2.9287713395719699e+00 -4.9779116894556070e+00 +1.6476172931028374e+04 +2.3301278774766251e+06 
+8.1999999999999869e+00 -5.1462582551386436e-02 +1.1563503078390679e-01 +9.9128546114372851e-01 +2.9464387116852087e+00 +1.1518301906719683e+01 +1.6388705058854957e+04 +2.2657800773466560e+06 
+8.2999999999999865e+00 -5.1462636538244400e-02 +1.1563367967116357e-01 +9.9006189192652960e-01 +2.9721077217983649e+00 +2.8764971885569125e+01 +1.6269586244787539e+04 +2.1970785242009358e+06 
+8.3999999999999861e+00 -5.1462690149001920e-02 +1.1563195439986285e-01 +9.8881721463984606e-01 +3.0056136082606622e+00 +4.6657214027247115e+01 +1.6118375195220005e+04 +2.1245765768439029e+06 
+8.4999999999999858e+00 -5.1462743456941872e-02 +1.1562987100002657e-01 +9.8755638263989332e-01 +3.0467916388042418e+00 +6.5090195282382822e+01 +1.5934630346570204e+04 +2.0488273068622635e+06 
+8.5999999999999854e+00 -5.1462796535341505e-02 +1.1562744550075604e-01 +9.8628434753095262e-01 +3.0954771167035751e+00 +8.3959130082644407e+01 +1.5717909830959294e+04 +1.9703835130720786e+06 
+8.6999999999999851e+00 -5.1462849457466514e-02 +1.1562469393061117e-01 +9.8500605841052247e-01 +3.1515053716753223e+00 +1.0315929494573840e+02 +1.5467771521676450e+04 +1.8897976510017698e+06 
+8.7999999999999847e+00 -5.1462902296577684e-02 +1.1562163231703096e-01 +9.8372646267883557e-01 +3.2147117761828534e+00 +1.2258601355821311e+02 +1.5183772937202515e+04 +1.8076219022678456e+06 
+8.8999999999999844e+00 -5.1462955125926614e-02 +1.1561827668673944e-01 +9.8245050543314227e-01 +3.2849317343997706e+00 +1.4213466881438123e+02 +1.4865471301141419e+04 +1.7244081157103148e+06 
+8.9999999999999840e+00 -5.1463008018756397e-02 +1.1561464306565893e-01 +9.8118312954516573e-01 +3.3620006847154960e+00 +1.6170070196002678e+02 +1.4512423525316515e+04 +1.6407078091766383e+06 
+9.0999999999999837e+00 -5.1463061048299355e-02 +1.1561074747869189e-01 +9.7992927532300356e-01 +3.4457541069086268e+00 +1.8117961935218801e+02 +1.4124186163668199e+04 +1.5570721364772569e+06 
+9.1999999999999833e+00 -5.1463114287781282e-02 +1.1560660595010887e-01 +9.7869388101899712e-01 +3.5360275104705763e+00 +2.0046698349824763e+02 +1.3700315478758717e+04 +1.4740519274923517e+06 
+9.2999999999999829e+00 -5.1463167810418452e-02 +1.1560223450301270e-01 +9.7748188242851974e-01 +3.6326564512685646e+00 +2.1945842077689306e+02 +1.3240367339324743e+04 +1.3921976511494324e+06 
+9.3999999999999826e+00 -5.1463221689416382e-02 +1.1559764915975841e-01 +9.7629821263910532e-01 +3.7354765194463071e+00 +2.3804962738590666e+02 +1.2743897288745013e+04 +1.3120593834266320e+06 
+9.4999999999999822e+00 -5.1463275997972957e-02 +1.1559286594170443e-01 +9.7514780248235622e-01 +3.8443233466184608e+00 +2.5613636057415027e+02 +1.2210460500341058e+04 +1.2341868492553786e+06 
+9.5999999999999819e+00 -5.1463330809274573e-02 +1.1558790086936602e-01 +9.7403557993152678e-01 +3.9590326022348923e+00 +2.7361445092285595e+02 +1.1639611794179489e+04 +1.1591293616475961e+06 
+9.6999999999999815e+00 -5.1463386196498553e-02 +1.1558276996208329e-01 +9.7296647038690320e-01 +4.0794400035348488e+00 +2.9037979761604242e+02 +1.1030905576086827e+04 +1.0874358417509000e+06 
+9.7999999999999812e+00 -5.1463442232811629e-02 +1.1557748923839740e-01 +9.7194539650135392e-01 +4.2053813044378581e+00 +3.0632837159059665e+02 +1.0383895900405230e+04 +1.0196548042580371e+06 
+9.8999999999999808e+00 -5.1463498991370135e-02 +1.1557207471588445e-01 +9.7097727809153156e-01 +4.3366923011054066e+00 +3.2135621854052425e+02 +9.6981364336552015e+03 +9.5633433900877391e+05 
+9.9999999999999805e+00 -5.1463556545318395e-02 +1.1556654240935189e-01 +9.7006703172661968e-01 +4.4732088909454939e+00 +3.3535946945243535e+02 +8.9731801844015681e+03 +8.9802206067944528e+05 
+1.0099999999999980e+01 -5.1463614936246335e-02 +1.1556090930445502e-01 +9.6921763675277117e-01 +4.6147101390157639e+00 +3.4827104041404914e+02 +8.2091198523089915e+03 +8.4508464537533338e+05 
