# field on trajectory
# s[mm] rx[mm] ry[mm] rz[mm] bx[T] by[T] bz[T]
0.0000000000000000e+00 +9.1476323485342608e+00 +0.0000000000000000e+00 +0.0000000000000000e+00 +1.1391861882201362e-02 -1.0329171821503564e+00 -5.9007190882583715e-02
1.0000000000000001e-01 +9.1476318316365202e+00 +0.0000000000000000e+00 +9.9999999998218805e-02 +1.1391595714199966e-02 -1.0329134004000726e+00 -5.9008100790753512e-02
2.0000000000000001e-01 +9.1476302809427192e+00 +0.0000000000000000e+00 +1.9999999998574999e-01 +1.1391321177511972e-02 -1.0329095913213471e+00 -5.9008992688623606e-02
2.9999999999999999e-01 +9.1476276964536503e+00 +0.0000000000000000e+00 +2.9999999995190701e-01 +1.1391037780422393e-02 -1.0329057526776779e+00 -5.9009865594579797e-02
4.0000000000000002e-01 +9.1476240781675404e+00 +0.0000000000000000e+00 +3.9999999988600199e-01 +1.1390745031251346e-02 -1.0329018822323091e+00 -5.9010718526983960e-02
5.0000000000000000e-01 +9.1476194260861501e+00 +0.0000000000000000e+00 +4.9999999977734699e-01 +1.1390442438360257e-02 -1.0328979777482399e+00 -5.9011550504174087e-02
5.9999999999999998e-01 +9.1476137402094899e+00 +0.0000000000000000e+00 +5.9999999961525596e-01 +1.1390129813257497e-02 -1.0328940376438038e+00 -5.9012360864123321e-02
6.9999999999999996e-01 +9.1476070205357907e+00 +0.0000000000000000e+00 +6.9999999938904001e-01 +1.1389808179890767e-02 -1.0328900629593387e+00 -5.9013150223415932e-02
8.0000000000000004e-01 +9.1475992670650292e+00 +0.0000000000000000e+00 +7.9999999908801400e-01 +1.1389478865332103e-02 -1.0328860553906343e+00 -5.9013919518282450e-02
9.0000000000000002e-01 +9.1475904798007797e+00 +0.0000000000000000e+00 +8.9999999870148795e-01 +1.1389143196670840e-02 -1.0328820166334511e+00 -5.9014669684947264e-02
1.0000000000000000e+00 +9.1475806587394892e+00 +0.0000000000000000e+00 +9.9999999821877705e-01 +1.1388802501007992e-02 -1.0328779483835941e+00 -5.9015401659634155e-02
1.1000000000000001e+00 +9.1475698038829201e+00 +0.0000000000000000e+00 +1.0999999976291901e+00 +1.1388458105449778e-02 -1.0328738523369401e+00 -5.9016116378569267e-02
1.2000000000000000e+00 +9.1475579152292994e+00 +0.0000000000000000e+00 +1.1999999969220501e+00 +1.1388111337101927e-02 -1.0328697301895082e+00 -5.9016814777986405e-02
1.3000000000000000e+00 +9.1475449927804107e+00 +0.0000000000000000e+00 +1.2999999960866500e+00 +1.1387763523063412e-02 -1.0328655836374987e+00 -5.9017497794130902e-02
1.3999999999999999e+00 +9.1475310365362503e+00 +0.0000000000000000e+00 +1.3999999951123201e+00 +1.1387415990420639e-02 -1.0328614143773578e+00 -5.9018166363264277e-02
1.5000000000000000e+00 +9.1475160464950402e+00 +0.0000000000000000e+00 +1.4999999939883699e+00 +1.1387070066241421e-02 -1.0328572241058294e+00 -5.9018821421668914e-02
1.6000000000000001e+00 +9.1475000226585603e+00 +0.0000000000000000e+00 +1.5999999927041100e+00 +1.1386727077568779e-02 -1.0328530145199966e+00 -5.9019463905651590e-02
1.7000000000000000e+00 +9.1474829650268106e+00 +0.0000000000000000e+00 +1.6999999912488499e+00 +1.1386388351415117e-02 -1.0328487873173486e+00 -5.9020094751548777e-02
1.8000000000000000e+00 +9.1474648735980093e+00 +0.0000000000000000e+00 +1.7999999896119101e+00 +1.1386055214756214e-02 -1.0328445441958298e+00 -5.9020714895730714e-02
1.8999999999999999e+00 +9.1474457483739400e+00 +0.0000000000000000e+00 +1.8999999877825899e+00 +1.1385728994525021e-02 -1.0328402868538855e+00 -5.9021325274605491e-02
2.0000000000000000e+00 +9.1474255893528191e+00 +0.0000000000000000e+00 +1.9999999857502100e+00 +1.1385411017605873e-02 -1.0328360169905257e+00 -5.9021926824623969e-02
2.1000000000000001e+00 +9.1474043965364302e+00 +0.0000000000000000e+00 +2.0999999835040901e+00 +1.1385102610828261e-02 -1.0328317363053667e+00 -5.9022520482283632e-02
2.2000000000000002e+00 +9.1473821699247697e+00 +0.0000000000000000e+00 +2.1999999810335300e+00 +1.1384805100960977e-02 -1.0328274464986926e+00 -5.9023107184133394e-02
2.2999999999999998e+00 +9.1473589095160595e+00 +0.0000000000000000e+00 +2.2999999783278602e+00 +1.1384519814706114e-02 -1.0328231492715116e+00 -5.9023687866778106e-02
2.3999999999999999e+00 +9.1473346153120794e+00 +0.0000000000000000e+00 +2.3999999753763701e+00 +1.1384248078692845e-02 -1.0328188463255938e+00 -5.9024263466882249e-02
2.5000000000000000e+00 +9.1473092873128206e+00 +0.0000000000000000e+00 +2.4999999721683901e+00 +1.1383991219471609e-02 -1.0328145393635377e+00 -5.9024834921175030e-02
2.6000000000000001e+00 +9.1472829255165191e+00 +0.0000000000000000e+00 +2.5999999686932198e+00 +1.1383750115149496e-02 -1.0328102296362334e+00 -5.9025402755451761e-02
2.7000000000000002e+00 +9.1472555299249496e+00 +0.0000000000000000e+00 +2.6999999649401798e+00 +1.1383523850348258e-02 -1.0328059165846726e+00 -5.9025965851559413e-02
2.7999999999999998e+00 +9.1472271005398795e+00 +0.0000000000000000e+00 +2.7999999608985902e+00 +1.1383311061352789e-02 -1.0328015991969177e+00 -5.9026522680396376e-02
2.8999999999999999e+00 +9.1471976373559905e+00 +0.0000000000000000e+00 +2.8999999565577501e+00 +1.1383110384486271e-02 -1.0327972764605302e+00 -5.9027071712917517e-02
3.0000000000000000e+00 +9.1471671403768209e+00 +0.0000000000000000e+00 +2.9999999519069700e+00 +1.1382920456115286e-02 -1.0327929473624518e+00 -5.9027611420134261e-02
3.1000000000000001e+00 +9.1471356096023904e+00 +0.0000000000000000e+00 +3.0999999469355801e+00 +1.1382739912655994e-02 -1.0327886108889597e+00 -5.9028140273118354e-02
3.2000000000000002e+00 +9.1471030450308994e+00 +0.0000000000000000e+00 +3.1999999416328699e+00 +1.1382567390579816e-02 -1.0327842660255837e+00 -5.9028656743003831e-02
3.2999999999999998e+00 +9.1470694466641493e+00 +0.0000000000000000e+00 +3.2999999359881800e+00 +1.1382401526418947e-02 -1.0327799117570187e+00 -5.9029159300988558e-02
3.3999999999999999e+00 +9.1470348145021205e+00 +0.0000000000000000e+00 +3.3999999299908001e+00 +1.1382240956772260e-02 -1.0327755470670599e+00 -5.9029646418336988e-02
3.5000000000000000e+00 +9.1469991485430509e+00 +0.0000000000000000e+00 +3.4999999236300501e+00 +1.1382084318311080e-02 -1.0327711709385250e+00 -5.9030116566382421e-02
3.6000000000000001e+00 +9.1469624487887007e+00 +0.0000000000000000e+00 +3.5999999168952499e+00 +1.1381930247784661e-02 -1.0327667823531654e+00 -5.9030568216528481e-02
3.7000000000000002e+00 +9.1469247152390807e+00 +0.0000000000000000e+00 +3.6999999097757001e+00 +1.1381777382026155e-02 -1.0327623802916055e+00 -5.9030999840252042e-02
3.7999999999999998e+00 +9.1468859478924092e+00 +0.0000000000000000e+00 +3.7999999022607200e+00 +1.1381624357958312e-02 -1.0327579637332600e+00 -5.9031409909105208e-02
3.8999999999999999e+00 +9.1468461467522495e+00 +0.0000000000000000e+00 +3.8999998943396199e+00 +1.1381469812598936e-02 -1.0327535316562442e+00 -5.9031796894716840e-02
4.0000000000000000e+00 +9.1468053118132708e+00 +0.0000000000000000e+00 +3.9999998860017101e+00 +1.1381312383067188e-02 -1.0327490830373303e+00 -5.9032159268796403e-02
4.0999999999999996e+00 +9.1467634430807898e+00 +0.0000000000000000e+00 +4.0999998772363098e+00 +1.1381150706588541e-02 -1.0327446168518255e+00 -5.9032495503133643e-02
4.2000000000000002e+00 +9.1467205405512608e+00 +0.0000000000000000e+00 +4.1999998680327302e+00 +1.1380983420501247e-02 -1.0327401320735383e+00 -5.9032804069603290e-02
4.2999999999999998e+00 +9.1466766042264602e+00 +0.0000000000000000e+00 +4.2999998583802803e+00 +1.1380809162261564e-02 -1.0327356276746713e+00 -5.9033083440165474e-02
4.4000000000000004e+00 +9.1466316341046099e+00 +0.0000000000000000e+00 +4.3999998482682798e+00 +1.1380626569449792e-02 -1.0327311026257646e+00 -5.9033332086868902e-02
4.5000000000000000e+00 +9.1465856301892607e+00 +0.0000000000000000e+00 +4.4999998376860297e+00 +1.1380434279775689e-02 -1.0327265558955983e+00 -5.9033548481852105e-02
4.5999999999999996e+00 +9.1465385924768707e+00 +0.0000000000000000e+00 +4.5999998266228497e+00 +1.1380231347079679e-02 -1.0327219874470002e+00 -5.9033731323260265e-02
4.7000000000000002e+00 +9.1464905209674292e+00 +0.0000000000000000e+00 +4.6999998150680504e+00 +1.1380018489242765e-02 -1.0327174012251350e+00 -5.9033880212943098e-02
4.7999999999999998e+00 +9.1464414156644995e+00 +0.0000000000000000e+00 +4.7999998030109499e+00 +1.1379796840041510e-02 -1.0327128021713046e+00 -5.9033994978628337e-02
4.9000000000000004e+00 +9.1463912765645095e+00 +0.0000000000000000e+00 +4.8999997904408596e+00 +1.1379567533119354e-02 -1.0327081952273522e+00 -5.9034075447990428e-02
5.0000000000000000e+00 +9.1463401036692602e+00 +0.0000000000000000e+00 +4.9999997773470897e+00 +1.1379331701977548e-02 -1.0327035853356865e+00 -5.9034121448643589e-02
5.0999999999999996e+00 +9.1462878969787305e+00 +0.0000000000000000e+00 +5.0999997637189498e+00 +1.1379090479966894e-02 -1.0326989774393500e+00 -5.9034132808137227e-02
5.2000000000000002e+00 +9.1462346564911599e+00 +0.0000000000000000e+00 +5.1999997495457499e+00 +1.1378845000279117e-02 -1.0326943764820704e+00 -5.9034109353950356e-02
5.2999999999999998e+00 +9.1461803822083105e+00 +0.0000000000000000e+00 +5.2999997348168204e+00 +1.1378596395938152e-02 -1.0326897874083019e+00 -5.9034050913485618e-02
5.4000000000000004e+00 +9.1461250741284204e+00 +0.0000000000000000e+00 +5.3999997195214604e+00 +1.1378345799791809e-02 -1.0326852151632933e+00 -5.9033957314064606e-02
5.5000000000000000e+00 +9.1460687322550296e+00 +0.0000000000000000e+00 +5.4999997036489701e+00 +1.1378094344502846e-02 -1.0326806646931184e+00 -5.9033828382921247e-02
5.5999999999999996e+00 +9.1460113565845909e+00 +0.0000000000000000e+00 +5.5999996871886903e+00 +1.1377843162540924e-02 -1.0326761409447589e+00 -5.9033663947197945e-02
5.7000000000000002e+00 +9.1459529471188894e+00 +0.0000000000000000e+00 +5.6999996701299196e+00 +1.1377593386173517e-02 -1.0326716488661272e+00 -5.9033463833938551e-02
5.7999999999999998e+00 +9.1458935038561293e+00 +0.0000000000000000e+00 +5.7999996524619597e+00 +1.1377346147457690e-02 -1.0326671934061382e+00 -5.9033227870083922e-02
5.9000000000000004e+00 +9.1458330267980994e+00 +0.0000000000000000e+00 +5.8999996341741401e+00 +1.1377102578231267e-02 -1.0326627795147452e+00 -5.9032955882465668e-02
6.0000000000000000e+00 +9.1457715159465796e+00 +0.0000000000000000e+00 +5.9999996152557697e+00 +1.1376863810104375e-02 -1.0326584121430005e+00 -5.9032647697801074e-02
6.0999999999999996e+00 +9.1457089712962301e+00 +0.0000000000000000e+00 +6.0999995956961603e+00 +1.1376630974451159e-02 -1.0326540962431261e+00 -5.9032303142688466e-02
6.2000000000000002e+00 +9.1456453928523906e+00 +0.0000000000000000e+00 +6.1999995754846200e+00 +1.1376405202400528e-02 -1.0326498367685200e+00 -5.9031922043599652e-02
6.2999999999999998e+00 +9.1455807806132707e+00 +0.0000000000000000e+00 +6.2999995546104604e+00 +1.1376187624828251e-02 -1.0326456386738536e+00 -5.9031504226876509e-02
6.4000000000000004e+00 +9.1455151345771100e+00 +0.0000000000000000e+00 +6.3999995330630002e+00 +1.1375979372348121e-02 -1.0326415069151056e+00 -5.9031049518724725e-02
6.5000000000000000e+00 +9.1454484547456794e+00 +0.0000000000000000e+00 +6.4999995108315600e+00 +1.1375781575303244e-02 -1.0326374464496051e+00 -5.9030557745207865e-02
6.5999999999999996e+00 +9.1453807411171901e+00 +0.0000000000000000e+00 +6.5999994879054302e+00 +1.1375594993041886e-02 -1.0326334601697706e+00 -5.9030028687402432e-02
6.7000000000000002e+00 +9.1453119936934399e+00 +0.0000000000000000e+00 +6.6999994642739402e+00 +1.1375418901905568e-02 -1.0326295427030787e+00 -5.9029461946902687e-02
6.7999999999999998e+00 +9.1452422124761892e+00 +0.0000000000000000e+00 +6.7999994399263999e+00 +1.1375252207678335e-02 -1.0326256866094765e+00 -5.9028857080401356e-02
6.9000000000000004e+00 +9.1451713974618905e+00 +0.0000000000000000e+00 +6.8999994148521200e+00 +1.1375093816364508e-02 -1.0326218844475037e+00 -5.9028213644538995e-02
7.0000000000000000e+00 +9.1450995486523308e+00 +0.0000000000000000e+00 +6.9999993890404202e+00 +1.1374942634198415e-02 -1.0326181287742084e+00 -5.9027531195901199e-02
7.0999999999999996e+00 +9.1450266660474906e+00 +0.0000000000000000e+00 +7.0999993624805997e+00 +1.1374797567654889e-02 -1.0326144121451160e+00 -5.9026809291017994e-02
7.2000000000000002e+00 +9.1449527496438208e+00 +0.0000000000000000e+00 +7.1999993351619702e+00 +1.1374657523459463e-02 -1.0326107271141709e+00 -5.9026047486362296e-02
7.2999999999999998e+00 +9.1448777994484391e+00 +0.0000000000000000e+00 +7.2999993070738700e+00 +1.1374521408598052e-02 -1.0326070662336551e+00 -5.9025245338346931e-02
7.4000000000000004e+00 +9.1448018154560096e+00 +0.0000000000000000e+00 +7.3999992782055797e+00 +1.1374388130327968e-02 -1.0326034220541844e+00 -5.9024402403325675e-02
7.5000000000000000e+00 +9.1447247976682995e+00 +0.0000000000000000e+00 +7.4999992485464304e+00 +1.1374256596187399e-02 -1.0325997871246084e+00 -5.9023518237589494e-02
7.5999999999999996e+00 +9.1446467460835503e+00 +0.0000000000000000e+00 +7.5999992180857303e+00 +1.1374125714005954e-02 -1.0325961539919828e+00 -5.9022592397366201e-02
7.7000000000000002e+00 +9.1445676607035296e+00 +0.0000000000000000e+00 +7.6999991868127999e+00 +1.1373994391914586e-02 -1.0325925152014952e+00 -5.9021624438818025e-02
7.7999999999999998e+00 +9.1444875415300100e+00 +0.0000000000000000e+00 +7.7999991547169403e+00 +1.1373861538355932e-02 -1.0325888632964226e+00 -5.9020613918040678e-02
7.9000000000000004e+00 +9.1444063885594495e+00 +0.0000000000000000e+00 +7.8999991217874603e+00 +1.1373726062094634e-02 -1.0325851908180856e+00 -5.9019560391062188e-02
8.0000000000000000e+00 +9.1443242017936104e+00 +0.0000000000000000e+00 +7.9999990880136904e+00 +1.1373586872227196e-02 -1.0325814903057713e+00 -5.9018463413840316e-02
8.0999999999999996e+00 +9.1442409812307197e+00 +0.0000000000000000e+00 +8.0999990533849306e+00 +1.1373442878192426e-02 -1.0325777542966994e+00 -5.9017322542261885e-02
8.1999999999999993e+00 +9.1441567268743391e+00 +0.0000000000000000e+00 +8.1999990178904891e+00 +1.1373292989781325e-02 -1.0325739753259464e+00 -5.9016137332140298e-02
8.3000000000000007e+00 +9.1440714387209105e+00 +0.0000000000000000e+00 +8.2999989815196997e+00 +1.1373136117147721e-02 -1.0325701459264203e+00 -5.9014907339215342e-02
8.4000000000000004e+00 +9.1439851167722104e+00 +0.0000000000000000e+00 +8.3999989442618492e+00 +1.1372971170817982e-02 -1.0325662586287758e+00 -5.9013632119150290e-02
8.5000000000000000e+00 +9.1438977610300203e+00 +0.0000000000000000e+00 +8.4999989061062706e+00 +1.1372797061701419e-02 -1.0325623059613760e+00 -5.9012311227530881e-02
8.5999999999999996e+00 +9.1438093714890005e+00 +0.0000000000000000e+00 +8.5999988670422596e+00 +1.1372613042843286e-02 -1.0325582832485924e+00 -5.9010944381785474e-02
8.6999999999999993e+00 +9.1437199481544802e+00 +0.0000000000000000e+00 +8.6999988270591402e+00 +1.1372419734511601e-02 -1.0325541970080077e+00 -5.9009531946992724e-02
8.8000000000000007e+00 +9.1436294910247007e+00 +0.0000000000000000e+00 +8.7999987861462294e+00 +1.1372218098608370e-02 -1.0325500565585921e+00 -5.9008074450158751e-02
8.9000000000000004e+00 +9.1435380000978608e+00 +0.0000000000000000e+00 +8.8999987442928301e+00 +1.1372009096849552e-02 -1.0325458712227398e+00 -5.9006572418292443e-02
9.0000000000000000e+00 +9.1434454753775292e+00 +0.0000000000000000e+00 +8.9999987014882503e+00 +1.1371793690758093e-02 -1.0325416503263647e+00 -5.9005026378405732e-02
9.0999999999999996e+00 +9.1433519168619295e+00 +0.0000000000000000e+00 +9.0999986577218195e+00 +1.1371572841657570e-02 -1.0325374031990366e+00 -5.9003436857515704e-02
9.1999999999999993e+00 +9.1432573245492801e+00 +0.0000000000000000e+00 +9.1999986129828297e+00 +1.1371347510665224e-02 -1.0325331391740808e+00 -5.9001804382644872e-02
9.3000000000000007e+00 +9.1431616984413608e+00 +0.0000000000000000e+00 +9.2999985672606194e+00 +1.1371118658685078e-02 -1.0325288675886757e+00 -5.9000129480821603e-02
9.4000000000000004e+00 +9.1430650385381700e+00 +0.0000000000000000e+00 +9.3999985205444805e+00 +1.1370887246401352e-02 -1.0325245977839814e+00 -5.8998412679081659e-02
9.5000000000000000e+00 +9.1429673448397004e+00 +0.0000000000000000e+00 +9.4999984728237195e+00 +1.1370654234271664e-02 -1.0325203391052393e+00 -5.8996654504468775e-02
9.5999999999999996e+00 +9.1428686173459699e+00 +0.0000000000000000e+00 +9.5999984240876799e+00 +1.1370420582520224e-02 -1.0325161009018886e+00 -5.8994855484035671e-02
9.6999999999999993e+00 +9.1427688560551807e+00 +0.0000000000000000e+00 +9.6999983743256504e+00 +1.1370187251131175e-02 -1.0325118925276759e+00 -5.8993016144844951e-02
9.8000000000000007e+00 +9.1426680609726798e+00 +0.0000000000000000e+00 +9.7999983235269408e+00 +1.1369955199841493e-02 -1.0325077233407478e+00 -5.8991137013969110e-02
9.9000000000000004e+00 +9.1425662320913492e+00 +0.0000000000000000e+00 +9.8999982716808805e+00 +1.1369725388134947e-02 -1.0325036027038068e+00 -5.8989218618493676e-02
1.0000000000000000e+01 +9.1424633694165305e+00 +0.0000000000000000e+00 +9.9999982187767706e+00 +1.1369498775234377e-02 -1.0324995399841603e+00 -5.8987261485514961e-02
1.0100000000000000e+01 +9.1423594729446602e+00 +0.0000000000000000e+00 +1.0099998164803900e+01 +1.1369276320095783e-02 -1.0324955445538837e+00 -5.8985266142143791e-02
1.0199999999999999e+01 +9.1422545426793000e+00 +0.0000000000000000e+00 +1.0199998109751700e+01 +1.1369058981400912e-02 -1.0324916257898931e+00 -5.8983233115504144e-02
1.0300000000000001e+01 +9.1421485786168795e+00 +0.0000000000000000e+00 +1.0299998053609301e+01 +1.1368847717551062e-02 -1.0324877930740881e+00 -5.8981162932735934e-02
1.0400000000000000e+01 +9.1420415807609707e+00 +0.0000000000000000e+00 +1.0399997996366100e+01 +1.1368643486659754e-02 -1.0324840557934276e+00 -5.8979056120994203e-02
1.0500000000000000e+01 +9.1419335491080194e+00 +0.0000000000000000e+00 +1.0499997938011500e+01 +1.1368447246546520e-02 -1.0324804233400768e+00 -5.8976913207451506e-02
1.0600000000000000e+01 +9.1418244836597893e+00 +0.0000000000000000e+00 +1.0599997878534600e+01 +1.1368259686639301e-02 -1.0324769052686558e+00 -5.8974734755337793e-02
1.0699999999999999e+01 +9.1417143844180693e+00 +0.0000000000000000e+00 +1.0699997817925000e+01 +1.1368080423776211e-02 -1.0324735117669408e+00 -5.8972521472109955e-02
1.0800000000000001e+01 +9.1416032513792906e+00 +0.0000000000000000e+00 +1.0799997756171701e+01 +1.1367908806762944e-02 -1.0324702531827166e+00 -5.8970274101396575e-02
1.0900000000000000e+01 +9.1414910845470292e+00 +0.0000000000000000e+00 +1.0899997693264300e+01 +1.1367744184535278e-02 -1.0324671398663512e+00 -5.8967993386964700e-02
1.1000000000000000e+01 +9.1413778839177091e+00 +0.0000000000000000e+00 +1.0999997629191901e+01 +1.1367585906163094e-02 -1.0324641821708744e+00 -5.8965680072725152e-02
1.1100000000000000e+01 +9.1412636494931299e+00 +0.0000000000000000e+00 +1.1099997563943900e+01 +1.1367433320853456e-02 -1.0324613904519879e+00 -5.8963334902734726e-02
1.1199999999999999e+01 +9.1411483812750394e+00 +0.0000000000000000e+00 +1.1199997497509599e+01 +1.1367285777954280e-02 -1.0324587750681160e+00 -5.8960958621200217e-02
1.1300000000000001e+01 +9.1410320792599205e+00 +0.0000000000000000e+00 +1.1299997429878401e+01 +1.1367142626958038e-02 -1.0324563463804590e+00 -5.8958551972482898e-02
1.1400000000000000e+01 +9.1409147434512903e+00 +0.0000000000000000e+00 +1.1399997361039500e+01 +1.1367003217504824e-02 -1.0324541147530071e+00 -5.8956115701100452e-02
1.1500000000000000e+01 +9.1407963738456193e+00 +0.0000000000000000e+00 +1.1499997290982201e+01 +1.1366866899386374e-02 -1.0324520905526082e+00 -5.8953650551732358e-02
1.1600000000000000e+01 +9.1406769704464494e+00 +0.0000000000000000e+00 +1.1599997219695799e+01 +1.1366733022549034e-02 -1.0324502841489787e+00 -5.8951157269221816e-02
1.1699999999999999e+01 +9.1405565332520098e+00 +0.0000000000000000e+00 +1.1699997147169800e+01 +1.1366600937097758e-02 -1.0324487059147718e+00 -5.8948636598580760e-02
1.1800000000000001e+01 +9.1404350622623003e+00 +0.0000000000000000e+00 +1.1799997073393300e+01 +1.1366469993299301e-02 -1.0324473662255989e+00 -5.8946089284992627e-02
