# field on trajectory
# s[mm] rx[mm] ry[mm] rz[mm] bx[T] by[T] bz[T]
0.0000000000000000e+00 +9.0449999999999999e+00 +0.0000000000000000e+00 +0.0000000000000000e+00 +1.1440467635534088e-02 -1.0337833832857504e+00 -5.8897888254136832e-02
1.0000000000000001e-01 +9.0449994834656930e+00 +0.0000000000000000e+00 +9.9999999998221276e-02 +1.1440335780723686e-02 -1.0337845077438022e+00 -5.8898861929774053e-02
2.0000000000000001e-01 +9.0449979338620317e+00 +0.0000000000000000e+00 +1.9999999998577023e-01 +1.1440202205424714e-02 -1.0337855788099808e+00 -5.8899843004382411e-02
3.0000000000000004e-01 +9.0449953511879464e+00 +0.0000000000000000e+00 +2.9999999995197452e-01 +1.1440066892281369e-02 -1.0337865969407074e+00 -5.8900831234124068e-02
4.0000000000000002e-01 +9.0449917354424194e+00 +0.0000000000000000e+00 +3.9999999988616175e-01 +1.1439929823972697e-02 -1.0337875625921720e+00 -5.8901826375178552e-02
5.0000000000000000e-01 +9.0449870866244861e+00 +0.0000000000000000e+00 +4.9999999977765952e-01 +1.1439790983218089e-02 -1.0337884762202787e+00 -5.8902828183748160e-02
5.9999999999999998e-01 +9.0449814047332335e+00 +0.0000000000000000e+00 +5.9999999961579542e-01 +1.1439650374221368e-02 -1.0337893389351716e+00 -5.8903836428298918e-02
6.9999999999999996e-01 +9.0449746897678001e+00 +0.0000000000000000e+00 +6.9999999938989699e-01 +1.1439508086980363e-02 -1.0337901544649861e+00 -5.8904850926266662e-02
7.9999999999999993e-01 +9.0449669417273721e+00 +0.0000000000000000e+00 +7.9999999908929165e-01 +1.1439364232950456e-02 -1.0337909271922416e+00 -5.8905871507344255e-02
8.9999999999999991e-01 +9.0449581606111771e+00 +0.0000000000000000e+00 +8.9999999870330694e-01 +1.1439218923595954e-02 -1.0337916614993155e+00 -5.8906898001244365e-02
9.9999999999999989e-01 +9.0449483464184812e+00 +0.0000000000000000e+00 +9.9999999822127039e-01 +1.1439072270382232e-02 -1.0337923617684788e+00 -5.8907930237698809e-02
1.0999999999999999e+00 +9.0449374991485865e+00 +0.0000000000000000e+00 +1.0999999976325094e+00 +1.1438924384767880e-02 -1.0337930323819324e+00 -5.8908968046457809e-02
1.2000000000000000e+00 +9.0449256188008231e+00 +0.0000000000000000e+00 +1.1999999969263515e+00 +1.1438775378196825e-02 -1.0337936777218424e+00 -5.8910011257289216e-02
1.3000000000000000e+00 +9.0449127053745482e+00 +0.0000000000000000e+00 +1.2999999960921240e+00 +1.1438625362090478e-02 -1.0337943021703759e+00 -5.8911059699977765e-02
1.4000000000000001e+00 +9.0448987588691363e+00 +0.0000000000000000e+00 +1.3999999951191542e+00 +1.1438474447839898e-02 -1.0337949101097366e+00 -5.8912113204324365e-02
1.5000000000000002e+00 +9.0448837792839836e+00 +0.0000000000000000e+00 +1.4999999939967696e+00 +1.1438322746797890e-02 -1.0337955059221999e+00 -5.8913171600145323e-02
1.6000000000000003e+00 +9.0448677666184931e+00 +0.0000000000000000e+00 +1.5999999927142976e+00 +1.1438170370271193e-02 -1.0337960939901498e+00 -5.8914234717271599e-02
1.7000000000000004e+00 +9.0448507208720805e+00 +0.0000000000000000e+00 +1.6999999912610655e+00 +1.1438017429512583e-02 -1.0337966786961137e+00 -5.8915302385548096e-02
1.8000000000000005e+00 +9.0448326420441632e+00 +0.0000000000000000e+00 +1.7999999896264007e+00 +1.1437864035713034e-02 -1.0337972644227977e+00 -5.8916374434832872e-02
1.9000000000000006e+00 +9.0448135301341566e+00 +0.0000000000000000e+00 +1.8999999877996305e+00 +1.1437710299993856e-02 -1.0337978555531238e+00 -5.8917450694996452e-02
2.0000000000000004e+00 +9.0447933851414710e+00 +0.0000000000000000e+00 +1.9999999857700821e+00 +1.1437556333398826e-02 -1.0337984564702640e+00 -5.8918530995921030e-02
2.1000000000000005e+00 +9.0447722070655097e+00 +0.0000000000000000e+00 +2.0999999835270828e+00 +1.1437402246886341e-02 -1.0337990715576761e+00 -5.8919615167499710e-02
2.2000000000000006e+00 +9.0447499959056579e+00 +0.0000000000000000e+00 +2.1999999810599600e+00 +1.1437248151321557e-02 -1.0337997051991417e+00 -5.8920703039635869e-02
2.3000000000000007e+00 +9.0447267516612850e+00 +0.0000000000000000e+00 +2.2999999783580409e+00 +1.1437094157468512e-02 -1.0338003617787968e+00 -5.8921794442242277e-02
2.4000000000000008e+00 +9.0447024743317375e+00 +0.0000000000000000e+00 +2.3999999754106525e+00 +1.1436940375982299e-02 -1.0338010456811730e+00 -5.8922889205240449e-02
2.5000000000000009e+00 +9.0446771639163348e+00 +0.0000000000000000e+00 +2.4999999722071222e+00 +1.1436786917401182e-02 -1.0338017612912307e+00 -5.8923987158559864e-02
2.6000000000000010e+00 +9.0446508204143630e+00 +0.0000000000000000e+00 +2.5999999687367770e+00 +1.1436633877621286e-02 -1.0338025107460318e+00 -5.8925087968500052e-02
2.7000000000000011e+00 +9.0446234438250759e+00 +0.0000000000000000e+00 +2.6999999649889439e+00 +1.1436481294394361e-02 -1.0338032871894429e+00 -5.8926190646815202e-02
2.8000000000000012e+00 +9.0445950341477026e+00 +0.0000000000000000e+00 +2.7999999609529502e+00 +1.1436329190981162e-02 -1.0338040815168039e+00 -5.8927294041619886e-02
2.9000000000000012e+00 +9.0445655913814527e+00 +0.0000000000000000e+00 +2.8999999566181232e+00 +1.1436177590691182e-02 -1.0338048846232071e+00 -5.8928397001024431e-02
3.0000000000000013e+00 +9.0445351155255285e+00 +0.0000000000000000e+00 +2.9999999519737894e+00 +1.1436026516891169e-02 -1.0338056874034642e+00 -5.8929498373133327e-02
3.1000000000000014e+00 +9.0445036065791307e+00 +0.0000000000000000e+00 +3.0999999470092763e+00 +1.1435875993013720e-02 -1.0338064807520697e+00 -5.8930597006043674e-02
3.2000000000000015e+00 +9.0444710645414705e+00 +0.0000000000000000e+00 +3.1999999417139104e+00 +1.1435726042565793e-02 -1.0338072555631741e+00 -5.8931691747843760e-02
3.3000000000000016e+00 +9.0444374894117789e+00 +0.0000000000000000e+00 +3.2999999360770191e+00 +1.1435576689137320e-02 -1.0338080027305467e+00 -5.8932781446611515e-02
3.4000000000000017e+00 +9.0444028811893133e+00 +0.0000000000000000e+00 +3.3999999300879291e+00 +1.1435427956409696e-02 -1.0338087131475449e+00 -5.8933864950412938e-02
3.5000000000000018e+00 +9.0443672398733668e+00 +0.0000000000000000e+00 +3.4999999237359671e+00 +1.1435279868164396e-02 -1.0338093777070811e+00 -5.8934941107300638e-02
3.6000000000000019e+00 +9.0443305654632820e+00 +0.0000000000000000e+00 +3.5999999170104604e+00 +1.1435132448291471e-02 -1.0338099873015900e+00 -5.8936008765312256e-02
3.7000000000000020e+00 +9.0442928579584532e+00 +0.0000000000000000e+00 +3.6999999099007357e+00 +1.1434985720798147e-02 -1.0338105328229956e+00 -5.8937066772469016e-02
3.8000000000000020e+00 +9.0442541173583404e+00 +0.0000000000000000e+00 +3.7999999023961202e+00 +1.1434839709817356e-02 -1.0338110051626792e+00 -5.8938113976774155e-02
3.9000000000000021e+00 +9.0442143436624765e+00 +0.0000000000000000e+00 +3.8999998944859406e+00 +1.1434694439616306e-02 -1.0338113952114458e+00 -5.8939149226211449e-02
4.0000000000000018e+00 +9.0441735368704759e+00 +0.0000000000000000e+00 +3.9999998861595243e+00 +1.1434549934605012e-02 -1.0338116938594932e+00 -5.8940171368743660e-02
4.1000000000000014e+00 +9.0441316969820456e+00 +0.0000000000000000e+00 +4.0999998774061979e+00 +1.1434406219344865e-02 -1.0338118919963772e+00 -5.8941179252311036e-02
4.2000000000000011e+00 +9.0440888239969937e+00 +0.0000000000000000e+00 +4.1999998682152881e+00 +1.1434263318557195e-02 -1.0338119805109807e+00 -5.8942171724829795e-02
4.3000000000000007e+00 +9.0440449179152367e+00 +0.0000000000000000e+00 +4.2999998585761228e+00 +1.1434121257131806e-02 -1.0338119502914793e+00 -5.8943147634190597e-02
4.4000000000000004e+00 +9.0439999787368102e+00 +0.0000000000000000e+00 +4.3999998484780285e+00 +1.1433980060135527e-02 -1.0338117922253116e+00 -5.8944105828257036e-02
4.5000000000000000e+00 +9.0439540064618775e+00 +0.0000000000000000e+00 +4.4999998379103330e+00 +1.1433839752820786e-02 -1.0338114971991419e+00 -5.8945045154864179e-02
4.5999999999999996e+00 +9.0439070010907390e+00 +0.0000000000000000e+00 +4.5999998268623630e+00 +1.1433700326831499e-02 -1.0338110580797011e+00 -5.8945964763074413e-02
4.6999999999999993e+00 +9.0438589626238386e+00 +0.0000000000000000e+00 +4.6999998153234461e+00 +1.1433561638706626e-02 -1.0338104756567441e+00 -5.8946865006953536e-02
4.7999999999999989e+00 +9.0438098910617626e+00 +0.0000000000000000e+00 +4.7999998032829101e+00 +1.1433423511121307e-02 -1.0338097527010399e+00 -5.8947746541792315e-02
4.8999999999999986e+00 +9.0437597864052393e+00 +0.0000000000000000e+00 +4.8999997907300816e+00 +1.1433285766659503e-02 -1.0338088919835926e+00 -5.8948610022844239e-02
4.9999999999999982e+00 +9.0437086486551319e+00 +0.0000000000000000e+00 +4.9999997776542884e+00 +1.1433148227807036e-02 -1.0338078962756689e+00 -5.8949456105323816e-02
5.0999999999999979e+00 +9.0436564778124424e+00 +0.0000000000000000e+00 +5.0999997640448589e+00 +1.1433010716944563e-02 -1.0338067683488184e+00 -5.8950285444404865e-02
5.1999999999999975e+00 +9.0436032738783041e+00 +0.0000000000000000e+00 +5.1999997498911199e+00 +1.1432873056340616e-02 -1.0338055109749009e+00 -5.8951098695219063e-02
5.2999999999999972e+00 +9.0435490368539782e+00 +0.0000000000000000e+00 +5.2999997351824000e+00 +1.1432735068144616e-02 -1.0338041269261091e+00 -5.8951896512854075e-02
5.3999999999999968e+00 +9.0434937667408537e+00 +0.0000000000000000e+00 +5.3999997199080267e+00 +1.1432596574379852e-02 -1.0338026189749920e+00 -5.8952679552352012e-02
5.4999999999999964e+00 +9.0434374635404424e+00 +0.0000000000000000e+00 +5.4999997040573287e+00 +1.1432457396936565e-02 -1.0338009898944815e+00 -5.8953448468707717e-02
5.5999999999999961e+00 +9.0433801272543786e+00 +0.0000000000000000e+00 +5.5999996876196345e+00 +1.1432317357564873e-02 -1.0337992424579161e+00 -5.8954203916867169e-02
5.6999999999999957e+00 +9.0433217578844136e+00 +0.0000000000000000e+00 +5.6999996705842717e+00 +1.1432176277867858e-02 -1.0337973794390614e+00 -5.8954946551725729e-02
5.7999999999999954e+00 +9.0432623554324145e+00 +0.0000000000000000e+00 +5.7999996529405689e+00 +1.1432033979294565e-02 -1.0337954036121404e+00 -5.8955677028126638e-02
5.8999999999999950e+00 +9.0432019199003637e+00 +0.0000000000000000e+00 +5.8999996346778545e+00 +1.1431890283132986e-02 -1.0337933177518521e+00 -5.8956396000859140e-02
5.9999999999999947e+00 +9.0431404512903519e+00 +0.0000000000000000e+00 +5.9999996157854580e+00 +1.1431745010503131e-02 -1.0337911246333988e+00 -5.8957104124656975e-02
6.0999999999999943e+00 +9.0430779496045748e+00 +0.0000000000000000e+00 +6.0999995962527080e+00 +1.1431597982350028e-02 -1.0337888270325115e+00 -5.8957802054196734e-02
6.1999999999999940e+00 +9.0430144148453362e+00 +0.0000000000000000e+00 +6.1999995760689330e+00 +1.1431449019436704e-02 -1.0337864277254678e+00 -5.8958490444096005e-02
6.2999999999999936e+00 +9.0429498470150413e+00 +0.0000000000000000e+00 +6.2999995552234624e+00 +1.1431297942337285e-02 -1.0337839294891249e+00 -5.8959169948911996e-02
6.3999999999999932e+00 +9.0428842461161931e+00 +0.0000000000000000e+00 +6.3999995337056257e+00 +1.1431144571429937e-02 -1.0337813351009359e+00 -5.8959841223139547e-02
6.4999999999999929e+00 +9.0428176121513886e+00 +0.0000000000000000e+00 +6.4999995115047522e+00 +1.1430988726889956e-02 -1.0337786473389781e+00 -5.8960504921209737e-02
6.5999999999999925e+00 +9.0427499451233224e+00 +0.0000000000000000e+00 +6.5999994886101714e+00 +1.1430830311159546e-02 -1.0337758695297035e+00 -5.8961161489650055e-02
6.6999999999999922e+00 +9.0426812450347782e+00 +0.0000000000000000e+00 +6.6999994650112127e+00 +1.1430669556486575e-02 -1.0337730071909754e+00 -5.8961810543614872e-02
6.7999999999999918e+00 +9.0426115118886212e+00 +0.0000000000000000e+00 +6.7999994406972064e+00 +1.1430506777683752e-02 -1.0337700663885523e+00 -5.8962451490508820e-02
6.8999999999999915e+00 +9.0425407456877984e+00 +0.0000000000000000e+00 +6.8999994156574829e+00 +1.1430342289681849e-02 -1.0337670531882954e+00 -5.8963083737850065e-02
6.9999999999999911e+00 +9.0424689464353261e+00 +0.0000000000000000e+00 +6.9999993898813715e+00 +1.1430176407535178e-02 -1.0337639736561730e+00 -5.8963706693275275e-02
7.0999999999999908e+00 +9.0423961141342915e+00 +0.0000000000000000e+00 +7.0999993633582026e+00 +1.1430009446427036e-02 -1.0337608338582644e+00 -5.8964319764544512e-02
7.1999999999999904e+00 +9.0423222487878370e+00 +0.0000000000000000e+00 +7.1999993360773074e+00 +1.1429841721675157e-02 -1.0337576398607593e+00 -5.8964922359546139e-02
7.2999999999999901e+00 +9.0422473503991636e+00 +0.0000000000000000e+00 +7.2999993080280152e+00 +1.1429673548737184e-02 -1.0337543977299604e+00 -5.8965513886301828e-02
7.3999999999999897e+00 +9.0421714189715185e+00 +0.0000000000000000e+00 +7.3999992791996583e+00 +1.1429505243216086e-02 -1.0337511135322870e+00 -5.8966093752971419e-02
7.4999999999999893e+00 +9.0420944545081898e+00 +0.0000000000000000e+00 +7.4999992495815659e+00 +1.1429337120865654e-02 -1.0337477933342785e+00 -5.8966661367857914e-02
7.5999999999999890e+00 +9.0420164570125046e+00 +0.0000000000000000e+00 +7.5999992191630703e+00 +1.1429169497595900e-02 -1.0337444432025913e+00 -5.8967216139412339e-02
7.6999999999999886e+00 +9.0419374264878165e+00 +0.0000000000000000e+00 +7.6999991879335017e+00 +1.1429002689478523e-02 -1.0337410692040081e+00 -5.8967757476238766e-02
7.7999999999999883e+00 +9.0418573629375079e+00 +0.0000000000000000e+00 +7.7999991558821913e+00 +1.1428837012752376e-02 -1.0337376774054337e+00 -5.8968284787099194e-02
7.8999999999999879e+00 +9.0417762663649750e+00 +0.0000000000000000e+00 +7.8999991229984712e+00 +1.1428672783828865e-02 -1.0337342738739019e+00 -5.8968797480918489e-02
7.9999999999999876e+00 +9.0416941367736268e+00 +0.0000000000000000e+00 +7.9999990892716717e+00 +1.1428510319297426e-02 -1.0337308646765755e+00 -5.8969294966789355e-02
8.0999999999999872e+00 +9.0416109741668791e+00 +0.0000000000000000e+00 +8.0999990546911249e+00 +1.1428349935930933e-02 -1.0337274558807485e+00 -5.8969776653977256e-02
8.1999999999999869e+00 +9.0415267785481461e+00 +0.0000000000000000e+00 +8.1999990192461638e+00 +1.1428191950691157e-02 -1.0337240535538490e+00 -5.8970241951925378e-02
8.2999999999999865e+00 +9.0414415499208349e+00 +0.0000000000000000e+00 +8.2999989829261178e+00 +1.1428036680734185e-02 -1.0337206637634422e+00 -5.8970690270259536e-02
8.3999999999999861e+00 +9.0413552882883437e+00 +0.0000000000000000e+00 +8.3999989457203199e+00 +1.1427884443415857e-02 -1.0337172925772296e+00 -5.8971121018793149e-02
8.4999999999999858e+00 +9.0412679936540492e+00 +0.0000000000000000e+00 +8.4999989076181013e+00 +1.1427735556297202e-02 -1.0337139460630558e+00 -5.8971533607532191e-02
8.5999999999999854e+00 +9.0411796660213053e+00 +0.0000000000000000e+00 +8.5999988686087949e+00 +1.1427590252835986e-02 -1.0337106295055010e+00 -5.8971927581364471e-02
8.6999999999999851e+00 +9.0410903053934337e+00 +0.0000000000000000e+00 +8.6999988286817338e+00 +1.1427448429324529e-02 -1.0337073450557122e+00 -5.8972303024011387e-02
8.7999999999999847e+00 +9.0409999117737279e+00 +0.0000000000000000e+00 +8.7999987878262491e+00 +1.1427309897636663e-02 -1.0337040940819353e+00 -5.8972660153748920e-02
8.8999999999999844e+00 +9.0409084851654455e+00 +0.0000000000000000e+00 +8.8999987460316721e+00 +1.1427174469514405e-02 -1.0337008779530201e+00 -5.8972999188678335e-02
8.9999999999999840e+00 +9.0408160255718091e+00 +0.0000000000000000e+00 +8.9999987032873356e+00 +1.1427041956563444e-02 -1.0336976980384402e+00 -5.8973320346720329e-02
9.0999999999999837e+00 +9.0407225329960070e+00 +0.0000000000000000e+00 +9.0999986595825728e+00 +1.1426912170248665e-02 -1.0336945557083017e+00 -5.8973623845609030e-02
9.1999999999999833e+00 +9.0406280074411907e+00 +0.0000000000000000e+00 +9.1999986149067148e+00 +1.1426784921889661e-02 -1.0336914523333625e+00 -5.8973909902886382e-02
9.2999999999999829e+00 +9.0405324489104686e+00 +0.0000000000000000e+00 +9.2999985692490963e+00 +1.1426660022656236e-02 -1.0336883892850441e+00 -5.8974178735896179e-02
9.3999999999999826e+00 +9.0404358574069139e+00 +0.0000000000000000e+00 +9.3999985225990486e+00 +1.1426537283563925e-02 -1.0336853679354490e+00 -5.8974430561778216e-02
9.4999999999999822e+00 +9.0403382329335553e+00 +0.0000000000000000e+00 +9.4999984749459028e+00 +1.1426416515469518e-02 -1.0336823896573730e+00 -5.8974665597462575e-02
9.5999999999999819e+00 +9.0402395754933789e+00 +0.0000000000000000e+00 +9.5999984262789937e+00 +1.1426297529066555e-02 -1.0336794558243212e+00 -5.8974884059663647e-02
9.6999999999999815e+00 +9.0401398850893280e+00 +0.0000000000000000e+00 +9.6999983765876543e+00 +1.1426180134880866e-02 -1.0336765678105220e+00 -5.8975086164874367e-02
9.7999999999999812e+00 +9.0400391617242981e+00 +0.0000000000000000e+00 +9.7999983258612158e+00 +1.1426064143266074e-02 -1.0336737269909417e+00 -5.8975272129360400e-02
9.8999999999999808e+00 +9.0399374054011385e+00 +0.0000000000000000e+00 +9.8999982740890111e+00 +1.1425949364399127e-02 -1.0336709347413011e+00 -5.8975442169154201e-02
9.9999999999999805e+00 +9.0398346161226506e+00 +0.0000000000000000e+00 +9.9999982212603733e+00 +1.1425835608275826e-02 -1.0336681924380866e+00 -5.8975596500049306e-02
1.0099999999999980e+01 +9.0397307938915858e+00 +0.0000000000000000e+00 +1.0099998167364635e+01 +1.1425722684706322e-02 -1.0336655014585687e+00 -5.8975735337594405e-02
1.0199999999999980e+01 +9.0396259387106443e+00 +0.0000000000000000e+00 +1.0199998112391130e+01 +1.1425610403310688e-02 -1.0336628631808131e+00 -5.8975858897087535e-02
1.0299999999999979e+01 +9.0395200505824729e+00 +0.0000000000000000e+00 +1.0299998056329191e+01 +1.1425498573514388e-02 -1.0336602789836984e+00 -5.8975967393570194e-02
1.0399999999999979e+01 +9.0394131295096667e+00 +0.0000000000000000e+00 +1.0399997999168150e+01 +1.1425387004543857e-02 -1.0336577502469275e+00 -5.8976061041821515e-02
1.0499999999999979e+01 +9.0393051754947624e+00 +0.0000000000000000e+00 +1.0499997940897341e+01 +1.1425275505422012e-02 -1.0336552783510455e+00 -5.8976140056352537e-02
1.0599999999999978e+01 +9.0391961885402416e+00 +0.0000000000000000e+00 +1.0599997881506097e+01 +1.1425163927795218e-02 -1.0336528636281728e+00 -5.8976204630213393e-02
1.0699999999999978e+01 +9.0390861686485309e+00 +0.0000000000000000e+00 +1.0699997820983750e+01 +1.1425052294540564e-02 -1.0336505022130817e+00 -5.8976254871575984e-02
1.0799999999999978e+01 +9.0389751158220015e+00 +0.0000000000000000e+00 +1.0799997759319636e+01 +1.1424940671452078e-02 -1.0336481891896754e+00 -5.8976290867564583e-02
1.0899999999999977e+01 +9.0388630300629771e+00 +0.0000000000000000e+00 +1.0899997696503085e+01 +1.1424829124433350e-02 -1.0336459196401477e+00 -5.8976312705487956e-02
1.0999999999999977e+01 +9.0387499113737366e+00 +0.0000000000000000e+00 +1.0999997632523431e+01 +1.1424717719500566e-02 -1.0336436886449363e+00 -5.8976320472844471e-02
1.1099999999999977e+01 +9.0386357597565237e+00 +0.0000000000000000e+00 +1.1099997567370007e+01 +1.1424606522785555e-02 -1.0336414912826777e+00 -5.8976314257327050e-02
1.1199999999999976e+01 +9.0385205752135462e+00 +0.0000000000000000e+00 +1.1199997501032145e+01 +1.1424495600538785e-02 -1.0336393226301668e+00 -5.8976294146828048e-02
1.1299999999999976e+01 +9.0384043577469839e+00 +0.0000000000000000e+00 +1.1299997433499181e+01 +1.1424385019132415e-02 -1.0336371777623095e+00 -5.8976260229444320e-02
1.1399999999999975e+01 +9.0382871073589932e+00 +0.0000000000000000e+00 +1.1399997364760445e+01 +1.1424274845063347e-02 -1.0336350517520778e+00 -5.8976212593482201e-02
1.1499999999999975e+01 +9.0381688240517128e+00 +0.0000000000000000e+00 +1.1499997294805272e+01 +1.1424165144956198e-02 -1.0336329396704684e+00 -5.8976151327462388e-02
1.1599999999999975e+01 +9.0380495078272638e+00 +0.0000000000000000e+00 +1.1599997223622996e+01 +1.1424055985566397e-02 -1.0336308365864570e+00 -5.8976076520125029e-02
1.1699999999999974e+01 +9.0379291586877635e+00 +0.0000000000000000e+00 +1.1699997151202949e+01 +1.1423947433783157e-02 -1.0336287375669531e+00 -5.8975988260434549e-02
1.1799999999999974e+01 +9.0378077766353204e+00 +0.0000000000000000e+00 +1.1799997077534464e+01 +1.1423839556632556e-02 -1.0336266376767573e+00 -5.8975886637584810e-02
