# multipoles
# s[mm] polynom_b[n=0][T/m^n] polynom_b[n=1][T/m^n] polynom_b[n=2][T/m^n] polynom_b[n=3][T/m^n] polynom_b[n=4][T/m^n] polynom_b[n=5][T/m^n] polynom_b[n=6][T/m^n] 
+0.0000000000000000e+00 -1.0319782867105789e+00 +2.2712356945310108e+00 +1.8808434550604822e+01 +3.5856462795568171e+02 +2.9941879261638118e+04 -5.6247089291178097e+05 -1.7829444740376878e+08 
+1.0000000000000001e-01 -1.0319812258222569e+00 +2.2709768086248823e+00 +1.8902437770157270e+01 +3.6242515472755963e+02 +2.8243849262082280e+04 -5.8110515940366918e+05 -1.7022914457244229e+08 
+2.0000000000000001e-01 -1.0319842316574155e+00 +2.2707339870140175e+00 +1.9001755965756836e+01 +3.6580820074469187e+02 +2.6452591761769367e+04 -5.9728422440600977e+05 -1.6173364151948941e+08 
+3.0000000000000004e-01 -1.0319873045388970e+00 +2.2705085476705191e+00 +1.9106622406910716e+01 +3.6867254022377142e+02 +2.4564697876543949e+04 -6.1077997272255959e+05 -1.5279475895598093e+08 
+4.0000000000000002e-01 -1.0319904447896511e+00 +2.2703018085068876e+00 +1.9217270371444432e+01 +3.7097694938413321e+02 +2.2576758681944262e+04 -6.2136430263075489e+05 -1.4339931787790817e+08 
+5.0000000000000000e-01 -1.0319936527328077e+00 +2.2701150873643692e+00 +1.9333933155506813e+01 +3.7268020680233025e+02 +2.0485365033797669e+04 -6.2880912802417751e+05 -1.3353413876833992e+08 
+5.9999999999999998e-01 -1.0319969274159952e+00 +2.2699494208806308e+00 +1.9456699740823097e+01 +3.7375072370405820e+02 +1.8289465239249399e+04 -6.3293985349434614e+05 -1.2319629993566999e+08 
+6.9999999999999996e-01 -1.0320002627939169e+00 +2.2698047298534676e+00 +1.9585084888804836e+01 +3.7419531149670541e+02 +1.5997351076490351e+04 -6.3379523440321418e+05 -1.1242344605493003e+08 
+7.9999999999999993e-01 -1.0320036515502584e+00 +2.2696806582592859e+00 +1.9718460545524469e+01 +3.7403035290856394e+02 +1.3619629168711639e+04 -6.3146723541241593e+05 -1.0126325064344671e+08 
+8.9999999999999991e-01 -1.0320070863688018e+00 +2.2695768500435878e+00 +1.9856198662961937e+01 +3.7327223173680926e+02 +1.1166906144504321e+04 -6.2604782842701231e+05 -8.9763387707312375e+07 
+9.9999999999999989e-01 -1.0320105599334211e+00 +2.2694929491395035e+00 +1.9997671199934018e+01 +3.7193733227798197e+02 +8.6497886040267913e+03 -6.1762898906082637e+05 -7.7971531526582107e+07 
+1.0999999999999999e+00 -1.0320140649281246e+00 +2.2694285994663801e+00 +2.0142250126609380e+01 +3.7004203935813007e+02 +6.0788830351553024e+03 -6.0630269664723612e+05 -6.5935356252220958e+07 
+1.2000000000000000e+00 -1.0320175940370373e+00 +2.2693834449534211e+00 +2.0289307421853831e+01 +3.6760273759263958e+02 +3.4647958606748871e+03 -5.9216092963687214e+05 -5.3702536113810472e+07 
+1.3000000000000000e+00 -1.0320211399442905e+00 +2.2693571295373332e+00 +2.0438215060140429e+01 +3.6463581145746741e+02 +8.1813367738591103e+02 -5.7529566589183325e+05 -4.1320746519961782e+07 
+1.4000000000000001e+00 -1.0320246953342049e+00 +2.2693492971831777e+00 +2.0588345034211816e+01 +3.6115764461707710e+02 -1.8504971806640726e+03 -5.5579887844164297e+05 -2.8837661953436591e+07 
+1.5000000000000002e+00 -1.0320282528911131e+00 +2.2693595918859595e+00 +2.0739069332665480e+01 +3.5718461988668497e+02 -4.5304902157633796e+03 -5.3376253516115376e+05 -1.6300957994170234e+07 
+1.6000000000000003e+00 -1.0320318052994910e+00 +2.2693876576852205e+00 +2.0889759956562102e+01 +3.5273311875500076e+02 -7.2112390929066396e+03 -5.0927859569491621e+05 -3.7583097254450498e+06 
+1.7000000000000004e+00 -1.0320353452438336e+00 +2.2694331386722499e+00 +2.1039788903278531e+01 +3.4781952114383876e+02 -9.8821373285457685e+03 -4.8243900984274090e+05 +8.7426067780494168e+06 
+1.8000000000000005e+00 -1.0320388654087740e+00 +2.2694956790086502e+00 +2.1188528182321576e+01 +3.4246020487112446e+02 -1.2532578609296983e+04 -4.5333571430109255e+05 +2.1154116033238817e+07 
+1.9000000000000006e+00 -1.0320423584789664e+00 +2.2695749229237125e+00 +2.1335349800008387e+01 +3.3667154565826701e+02 -1.5151956497502029e+04 -4.2206063237426494e+05 +3.3428541741582997e+07 
+2.0000000000000004e+00 -1.0320458171391662e+00 +2.2696705147324514e+00 +2.1479625769426349e+01 +3.3046991660907736e+02 -1.7729664625549194e+04 -3.8870567081367009e+05 +4.5518207740139425e+07 
+2.1000000000000005e+00 -1.0320492340741612e+00 +2.2697820988459694e+00 +2.1620728102192494e+01 +3.2387168785917544e+02 -2.0255096546905010e+04 -3.5336271750104392e+05 +5.7375437320382066e+07 
+2.2000000000000006e+00 -1.0320526019688541e+00 +2.2699093197801563e+00 +2.1758028818193957e+01 +3.1689322631370982e+02 -2.2717645925636123e+04 -3.1612363976046932e+05 +6.8952554155265778e+07 
+2.3000000000000007e+00 -1.0320559135081628e+00 +2.2700518221628276e+00 +2.1890899933352081e+01 +3.0955089538325143e+02 -2.5106706305238025e+04 -2.7708028251908021e+05 +8.0201881206953153e+07 
+2.4000000000000008e+00 -1.0320591613770542e+00 +2.2702092507466620e+00 +2.2018713464475550e+01 +3.0186105461389565e+02 -2.7411671214821497e+04 -2.3632446604379543e+05 +9.1075741284729734e+07 
+2.5000000000000009e+00 -1.0320623382605936e+00 +2.2703812504230627e+00 +2.2140841433868925e+01 +2.9384005922234161e+02 -2.9621934251600363e+04 -1.9394798288614661e+05 +1.0152645743347867e+08 
+2.6000000000000010e+00 -1.0320654385761105e+00 +2.2705674178196853e+00 +2.2256793375427339e+01 +2.8550443800101755e+02 -3.1729192523604055e+04 -1.5004131150814524e+05 +1.1151691954132573e+08 
+2.7000000000000011e+00 -1.0320684636604722e+00 +2.2707671233419791e+00 +2.2366629161618068e+01 +2.7687242112170640e+02 -3.3734339660283702e+04 -1.0469659892803834e+05 +1.2105213895258720e+08 
+2.8000000000000012e+00 -1.0320714165789135e+00 +2.2709796727275342e+00 +2.2470546506748484e+01 +2.6796290685162450e+02 -3.5640568427057136e+04 -5.8008082506199935e+04 +1.3014764642697901e+08 
+2.9000000000000012e+00 -1.0320743003967161e+00 +2.2712043717743504e+00 +2.2568743130881710e+01 +2.5879479124784405e+02 -3.7451071751113617e+04 -1.0069985221526218e+04 +1.3881897375584942e+08 
+3.0000000000000013e+00 -1.0320771181792632e+00 +2.2714405263301747e+00 +2.2661416769752936e+01 +2.4938696841856881e+02 -3.9169042934304685e+04 +3.9023482972439386e+04 +1.4708165485215920e+08 
+3.1000000000000014e+00 -1.0320798729919469e+00 +2.2716874422942608e+00 +2.2748765161955536e+01 +2.3975833045692573e+02 -4.0797675410574964e+04 +8.9178125553315360e+04 +1.5495122461663026e+08 
+3.2000000000000015e+00 -1.0320825679001846e+00 +2.2719444256262671e+00 +2.2830986052555527e+01 +2.2992776711658894e+02 -4.2340162830649839e+04 +1.4029976148201901e+05 +1.6244321939619625e+08 
+3.3000000000000016e+00 -1.0320852059694412e+00 +2.2722107823351667e+00 +2.2908277195422528e+01 +2.1991416614307548e+02 -4.3799699112844995e+04 +1.9229422322105672e+05 +1.6957317726042372e+08 
+3.4000000000000017e+00 -1.0320877902652468e+00 +2.2724858184867651e+00 +2.2980836357286893e+01 +2.0973641297750339e+02 -4.5179478535765695e+04 +2.4506735866384863e+05 +1.7635663850008515e+08 
+3.5000000000000018e+00 -1.0320903238531187e+00 +2.2727688401995279e+00 +2.3048861307439410e+01 +1.9941339087589336e+02 -4.6482695551034449e+04 +2.9852503041568882e+05 +1.8280914477448425e+08 
+3.6000000000000019e+00 -1.0320928097986266e+00 +2.2730591536500393e+00 +2.3112549826937091e+01 +1.8896398069847518e+02 -4.7712544967806287e+04 +3.5257311715181591e+05 +1.8894624003007448e+08 
+3.7000000000000020e+00 -1.0320952511673624e+00 +2.2733560650620346e+00 +2.3172099705257242e+01 +1.7840706120087191e+02 -4.8872221902226658e+04 +4.0711751197131560e+05 +1.9478347031155893e+08 
+3.8000000000000020e+00 -1.0320976510249575e+00 +2.2736588807218725e+00 +2.3227708743766417e+01 +1.6776150855171181e+02 -4.9964921858026304e+04 +4.6206412527770002e+05 +2.0033638419930139e+08 
+3.9000000000000021e+00 -1.0321000124370441e+00 +2.2739669069666131e+00 +2.3279574749904757e+01 +1.5704619663908187e+02 -5.0993840616556059e+04 +5.1731888308489864e+05 +2.0562053230416360e+08 
+4.0000000000000018e+00 -1.0321023384692654e+00 +2.2742794501872594e+00 +2.3327895540356128e+01 +1.4627999695126400e+02 -5.1962174317333367e+04 +5.7278772776135651e+05 +2.1065146772114745e+08 
+4.1000000000000014e+00 -1.0321046321873286e+00 +2.2745958168265701e+00 +2.3372868947793219e+01 +1.3548177860364331e+02 -5.2873119594627868e+04 +6.2837661795067857e+05 +2.1544474671549281e+08 
+4.2000000000000011e+00 -1.0321068966568865e+00 +2.2749153133891098e+00 +2.3414692806593219e+01 +1.2467040799483703e+02 -5.3729873313997756e+04 +6.8399153070222738e+05 +2.2001592750834143e+08 
+4.3000000000000007e+00 -1.0321091349436744e+00 +2.2752372464293282e+00 +2.3453564970667539e+01 +1.1386474915579416e+02 -5.4535632927600614e+04 +7.3953845939804427e+05 +2.2438057202678373e+08 
+4.4000000000000004e+00 -1.0321113501133712e+00 +2.2755609225564193e+00 +2.3489683296016871e+01 +1.0308366353470829e+02 -5.5293596144328752e+04 +7.9492341520829638e+05 +2.2855424435252208e+08 
+4.5000000000000000e+00 -1.0321135452317474e+00 +2.2758856484440315e+00 +2.3523245662747815e+01 +9.2346009747836661e+01 -5.6006961381404602e+04 +8.5005242780841689e+05 +2.3255251292256099e+08 
+4.5999999999999996e+00 -1.0321157230120745e+00 +2.2762109657321625e+00 +2.3554463167715110e+01 +8.1665863389903038e+01 -5.6679386060304823e+04 +9.0484798897702713e+05 +2.3639315822151789e+08 
+4.6999999999999993e+00 -1.0321178846075625e+00 +2.2765373083673883e+00 +2.3583565723298122e+01 +7.1039312287961835e+01 -5.7315673133024335e+04 +9.5929474814686493e+05 +2.4009977458333042e+08 
+4.7999999999999989e+00 -1.0321200307466969e+00 +2.2768653236264265e+00 +2.3610779968461777e+01 +6.0458185152654352e+01 -5.7920750705873987e+04 +1.0133920854050213e+06 +2.4369670186251983e+08 
+4.8999999999999986e+00 -1.0321221621578027e+00 +2.2771956587591506e+00 +2.3636332495392473e+01 +4.9914312230924899e+01 -5.8499545672920394e+04 +1.0671393677193264e+06 +2.4720827310349044e+08 
+4.9999999999999982e+00 -1.0321242795691905e+00 +2.2775289609892502e+00 +2.3660449867096847e+01 +3.9399525310512708e+01 -5.9056984030926164e+04 +1.1205359488875163e+06 +2.5065881595397794e+08 
+5.0999999999999979e+00 -1.0321263837090071e+00 +2.2778658775047802e+00 +2.3683358597524268e+01 +2.8905658085417734e+01 -5.9597990488526106e+04 +1.1735811670463469e+06 +2.5407265075904745e+08 
+5.1999999999999975e+00 -1.0321284753053246e+00 +2.2782070554527074e+00 +2.3705285161572593e+01 +1.8424546333299560e+01 -6.0127488632508379e+04 +1.2262743434766692e+06 +2.5747409126702356e+08 
+5.2999999999999972e+00 -1.0321305550861064e+00 +2.2785531419419485e+00 +2.3726455988743847e+01 +7.9480279138507193e+00 -6.0650400788342529e+04 +1.2786147822643672e+06 +2.6088744390473482e+08 
+5.3999999999999968e+00 -1.0321326237791486e+00 +2.2789047840344736e+00 +2.3747097455098739e+01 -2.5320569225486036e+00 -6.1171647851874652e+04 +1.3306017682469690e+06 +2.6433700691839388e+08 
+5.4999999999999964e+00 -1.0321346821121591e+00 +2.2792626287393856e+00 +2.3767435891589002e+01 -1.3023865294773088e+01 -6.1696149424156822e+04 +1.3822345653298441e+06 +2.6784707093564960e+08 
+5.5999999999999961e+00 -1.0321367308126987e+00 +2.2796273230140622e+00 +2.3787697575193690e+01 -2.3535551685640119e+01 -6.2228823625443874e+04 +1.4335124162247395e+06 +2.7144191801923317e+08 
+5.6999999999999957e+00 -1.0321387706081757e+00 +2.2799995137562461e+00 +2.3808108727210826e+01 -3.4075267631982342e+01 -6.2774587047327521e+04 +1.4844345403195419e+06 +2.7514582138276750e+08 
+5.7999999999999954e+00 -1.0321408022258425e+00 +2.2803798478024757e+00 +2.3828895511144655e+01 -4.4651161622138133e+01 -6.3338354687694002e+04 +1.5350001328156439e+06 +2.7898304499745512e+08 
+5.8999999999999950e+00 -1.0321428263928385e+00 +2.2807689719234836e+00 +2.3850284036911926e+01 -5.5271378924261526e+01 -6.3925040015748637e+04 +1.5852083635170809e+06 +2.8297784384840006e+08 
+5.9999999999999947e+00 -1.0321448438360892e+00 +2.2811675328166201e+00 +2.3872500346754283e+01 -6.5944061272677303e+01 -6.4539554683644426e+04 +1.6350583746195959e+06 +2.8715446248958176e+08 
+6.0999999999999943e+00 -1.0321468552823487e+00 +2.2815761771099305e+00 +2.3895770419205686e+01 -7.6677346956643802e+01 -6.5186808583220976e+04 +1.6845492810528474e+06 +2.9153713525007212e+08 
+6.1999999999999940e+00 -1.0321488614582406e+00 +2.2819955513516539e+00 +2.3920320173024308e+01 -8.7479370450267766e+01 -6.5871709901077091e+04 +1.7336801680292885e+06 +2.9615008642686731e+08 
+6.2999999999999936e+00 -1.0321508630901617e+00 +2.2824263020031568e+00 +2.3946375453726876e+01 -9.8358262130276543e+01 -6.6599164845908716e+04 +1.7824500890762166e+06 +3.0101752892760068e+08 
+6.3999999999999932e+00 -1.0321528609043389e+00 +2.2828690754455518e+00 +2.3974162038724689e+01 -1.0932214842912616e+02 -6.7374077721541878e+04 +1.8308580667109045e+06 +3.0616366453663123e+08 
+6.4999999999999929e+00 -1.0321548556266902e+00 +2.2833245179310344e+00 +2.4003905614017651e+01 -1.2037915051933302e+02 -6.8201350443804491e+04 +1.8789030862879665e+06 +3.1161268162316561e+08 
+6.5999999999999925e+00 -1.0321568473681859e+00 +2.2837928816479121e+00 +2.4035721045066932e+01 -1.3153117982120230e+02 -6.9083726681843400e+04 +1.9265698480705658e+06 +3.1737843371661335e+08 
+6.6999999999999922e+00 -1.0321588341721513e+00 +2.2842729987832642e+00 +2.4069365702851460e+01 -1.4275956685694632e+02 -7.0016902811697553e+04 +1.9738114414878963e+06 +3.2343992394347888e+08 
+6.7999999999999918e+00 -1.0321608136547644e+00 +2.2847633797183287e+00 +2.4104527153139014e+01 -1.5404149103926011e+02 -7.0995166051202948e+04 +2.0205797366987073e+06 +3.2976882088064426e+08 
+6.8999999999999915e+00 -1.0321627834321445e+00 +2.2852625349641960e+00 +2.4140892995788022e+01 -1.6535413632115981e+02 -7.2012804771581854e+04 +2.0668266383894896e+06 +3.3633679995697451e+08 
+6.9999999999999911e+00 -1.0321647411203236e+00 +2.2857689751455643e+00 +2.4178150863863749e+01 -1.7667469023149843e+02 -7.3064108558402440e+04 +2.1125040764073748e+06 +3.4311554423948312e+08 
+7.0999999999999908e+00 -1.0321666843352677e+00 +2.2862812110119171e+00 +2.4215988427767751e+01 -1.8798034424791109e+02 -7.4143368312844905e+04 +2.1575640082263621e+06 +3.5007674498815644e+08 
+7.1999999999999904e+00 -1.0321686106929182e+00 +2.2867977534401542e+00 +2.4254093403107639e+01 -1.9924829387543599e+02 -7.5244876430993871e+04 +2.2019584195618089e+06 +3.5719210260300279e+08 
+7.2999999999999901e+00 -1.0321705178090932e+00 +2.2873171134358361e+00 +2.4292153539229297e+01 -2.1045573869986538e+02 -7.6362926603604821e+04 +2.2456393248936590e+06 +3.6443332572800058e+08 
+7.3999999999999897e+00 -1.0321724032995654e+00 +2.2878378021417829e+00 +2.4329856632635433e+01 -2.2157988267774473e+02 -7.7491814108570485e+04 +2.2885587694213050e+06 +3.7177213275881118e+08 
+7.4999999999999893e+00 -1.0321742647800505e+00 +2.2883583308393578e+00 +2.4366890525985461e+01 -2.3259793415315315e+02 -7.8625835807800860e+04 +2.3306688292583944e+06 +3.7918025188288325e+08 
+7.5999999999999890e+00 -1.0321760998661618e+00 +2.2888772109499973e+00 +2.4402943105267813e+01 -2.4348710595763086e+02 -7.9759290123182145e+04 +2.3719216123303743e+06 +3.8662942105399531e+08 
+7.6999999999999886e+00 -1.0321779061734662e+00 +2.2893929540447462e+00 +2.4437702308533304e+01 -2.5422461568191292e+02 -8.0886477228128031e+04 +2.4122692600995847e+06 +3.9409138898852587e+08 
+7.7999999999999883e+00 -1.0321796813174331e+00 +2.2899040718407320e+00 +2.4470856122052535e+01 -2.6478768560210733e+02 -8.2001699001909452e+04 +2.4516639473674935e+06 +4.0153791503109014e+08 
+7.8999999999999879e+00 -1.0321814229134776e+00 +2.2904090762170890e+00 +2.4502092587200245e+01 -2.7515354316185403e+02 -8.3099259184374634e+04 +2.4900578853006130e+06 +4.0894076996894932e+08 
+7.9999999999999876e+00 -1.0321831285769256e+00 +2.2909064791995966e+00 +2.4531099798250967e+01 -2.8529942053276261e+02 -8.4173463361413669e+04 +2.5274033190378658e+06 +4.1627173604921556e+08 
+8.0999999999999872e+00 -1.0321847959230424e+00 +2.2913947929877523e+00 +2.4557565908128147e+01 -2.9520255543101166e+02 -8.5218619098817828e+04 +2.5636525326910764e+06 +4.2350260769259596e+08 
+8.1999999999999869e+00 -1.0321864225669950e+00 +2.2918725299400018e+00 +2.4581179125379663e+01 -3.0484019070199651e+02 -8.6229035909693383e+04 +2.5987578471244359e+06 +4.3060519141803479e+08 
+8.2999999999999865e+00 -1.0321880061238717e+00 +2.2923382025842396e+00 +2.4601627719571947e+01 -3.1418957463518257e+02 -8.7199025389047587e+04 +2.6326716219638102e+06 +4.3755130658231795e+08 
+8.3999999999999861e+00 -1.0321895442086948e+00 +2.2927903236272833e+00 +2.4618600023831704e+01 -3.2322796127864217e+02 -8.8122901280471619e+04 +2.6653462576969503e+06 +4.4431278575871593e+08 
+8.4999999999999858e+00 -1.0321910344365701e+00 +2.2932274060141653e+00 +2.4631784465923477e+01 -3.3193261187758162e+02 -8.8994980133652323e+04 +2.6967342033439381e+06 +4.5086147802607143e+08 
+8.5999999999999854e+00 -1.0321924749806421e+00 +2.2936483744018008e+00 +2.4640951695663308e+01 -3.4028796267371388e+02 -8.9810969422474343e+04 +2.7268124330778229e+06 +4.5717567961575371e+08 
+8.6999999999999851e+00 -1.0321938657753749e+00 +2.2940537064406739e+00 +2.4646092330905667e+01 -3.4830541514172859e+02 -9.0570051464442498e+04 +2.7556414856565339e+06 +4.6325036064393169e+08 
+8.7999999999999847e+00 -1.0321952070833764e+00 +2.2944442563447955e+00 +2.4647226020883362e+01 -3.5600289793286481e+02 -9.1271780308746485e+04 +2.7832995433432576e+06 +4.6908255222303647e+08 
+8.8999999999999844e+00 -1.0321964991672938e+00 +2.2948208782909156e+00 +2.4644372395699229e+01 -3.6339833789206176e+02 -9.1915709413608187e+04 +2.8098647666390408e+06 +4.7466928241518569e+08 
+8.9999999999999840e+00 -1.0321977422899551e+00 +2.2951844263875048e+00 +2.4637551089808820e+01 -3.7050965975123091e+02 -9.2501392081323604e+04 +2.8354153005100642e+06 +4.8000757763915956e+08 
+9.0999999999999837e+00 -1.0321989367142936e+00 +2.2955357546709667e+00 +2.4626781730996811e+01 -3.7735478603274373e+02 -9.3028381232660933e+04 +2.8600292737621646e+06 +4.8509446154326028e+08 
+9.1999999999999833e+00 -1.0322000827034070e+00 +2.2958757171036992e+00 +2.4612083947923399e+01 -3.8395163698050601e+02 -9.3496229546896095e+04 +2.8837847984990911e+06 +4.8992695565253091e+08 
+9.2999999999999829e+00 -1.0322011805205489e+00 +2.2962051675764434e+00 +2.4593477367351362e+01 -3.9031813062728736e+02 -9.3904489392788120e+04 +2.9067599704193776e+06 +4.9450207898912513e+08 
+9.3999999999999826e+00 -1.0322022304291436e+00 +2.2965249598902222e+00 +2.4570981615696429e+01 -3.9647218227035432e+02 -9.4252712851323100e+04 +2.9290328656554269e+06 +4.9881684815421855e+08 
+9.4999999999999822e+00 -1.0322032326927597e+00 +2.2968359477677853e+00 +2.4544616314936071e+01 -4.0243170479883145e+02 -9.4540451623975649e+04 +2.9506815425701798e+06 +5.0286827683981234e+08 
+9.5999999999999819e+00 -1.0322041875751673e+00 +2.2971389848431509e+00 +2.4514401089053891e+01 -4.0821460838219053e+02 -9.4767257150275182e+04 +2.9717840398152410e+06 +5.0665337637251049e+08 
+9.6999999999999815e+00 -1.0322050953402744e+00 +2.2974349246598003e+00 +2.4480355555441992e+01 -4.1383880043030729e+02 -9.4932680429072949e+04 +2.9924183760390566e+06 +5.1016915480667830e+08 
+9.7999999999999812e+00 -1.0322059562521895e+00 +2.2977246206686646e+00 +2.4442499331479389e+01 -4.1932218551934028e+02 -9.5036272138085784e+04 +3.0126625493052998e+06 +5.1341261747526002e+08 
+9.8999999999999808e+00 -1.0322067705752287e+00 +2.2980089262194969e+00 +2.4400852035320003e+01 -4.2468266514531882e+02 -9.5077582632948252e+04 +3.0325945355729721e+06 +5.1638076692744118e+08 
+9.9999999999999805e+00 -1.0322075385738472e+00 +2.2982886945680390e+00 +2.4355433275618299e+01 -4.2993813792565533e+02 -9.5056161742841126e+04 +3.0522922897500591e+06 +5.1907060192646235e+08 
+1.0099999999999980e+01 -1.0322082605127483e+00 +2.2985647788618842e+00 +2.4306262666117668e+01 -4.3510649918696652e+02 -9.4971559046846727e+04 +3.0718337431859677e+06 +5.2147911875258863e+08 
