# field on trajectory
# s[mm] rx[mm] ry[mm] rz[mm] bx[T] by[T] bz[T]
0.0000000000000000e+00 +9.1210000000000004e+00 +0.0000000000000000e+00 +0.0000000000000000e+00 +1.1214702373822995e-02 -1.0331743461349989e+00 -5.8761398558291468e-02
-1.0000000000000001e-01 +9.1209994837706265e+00 +0.0000000000000000e+00 -9.9999999998223371e-02 +1.1214887575014222e-02 -1.0331717250577974e+00 -5.8761738446927177e-02
-2.0000000000000001e-01 +9.1209979350842545e+00 +0.0000000000000000e+00 -1.9999999998578705e-01 +1.1215073973646598e-02 -1.0331690651495442e+00 -5.8762078874283356e-02
-3.0000000000000004e-01 +9.1209953539435435e+00 +0.0000000000000000e+00 -2.9999999995203147e-01 +1.1215261626460551e-02 -1.0331663724619125e+00 -5.8762420364235839e-02
-4.0000000000000002e-01 +9.1209917403511849e+00 +0.0000000000000000e+00 -3.9999999988629709e-01 +1.1215450590175357e-02 -1.0331636530464703e+00 -5.8762763440640638e-02
-5.0000000000000000e-01 +9.1209870943098945e+00 +0.0000000000000000e+00 -4.9999999977792442e-01 +1.1215640921485685e-02 -1.0331609129547199e+00 -5.8763108627340618e-02
-5.9999999999999998e-01 +9.1209814158224116e+00 +0.0000000000000000e+00 -5.9999999961625416e-01 +1.1215832677058215e-02 -1.0331581582381344e+00 -5.8763456448172026e-02
-6.9999999999999996e-01 +9.1209747048914895e+00 +0.0000000000000000e+00 -6.9999999939062707e-01 +1.1216025913528183e-02 -1.0331553949481997e+00 -5.8763807426971244e-02
-7.9999999999999993e-01 +9.1209669615198887e+00 +0.0000000000000000e+00 -7.9999999909038388e-01 +1.1216220687495983e-02 -1.0331526291364515e+00 -5.8764162087581194e-02
-8.9999999999999991e-01 +9.1209581857103750e+00 +0.0000000000000000e+00 -8.9999999870486558e-01 +1.1216417055523726e-02 -1.0331498668545138e+00 -5.8764520953858208e-02
-9.9999999999999989e-01 +9.1209483774657070e+00 +0.0000000000000000e+00 -9.9999999822341312e-01 +1.1216615074131823e-02 -1.0331471141541388e+00 -5.8764884549678424e-02
-1.0999999999999999e+00 +9.1209375367886381e+00 +0.0000000000000000e+00 -1.0999999976353676e+00 +1.1216814799795579e-02 -1.0331443770872468e+00 -5.8765253398944582e-02
-1.2000000000000000e+00 +9.1209256636819021e+00 +0.0000000000000000e+00 -1.1999999969300701e+00 +1.1217016288941747e-02 -1.0331416617059630e+00 -5.8765628025592535e-02
-1.3000000000000000e+00 +9.1209127581482150e+00 +0.0000000000000000e+00 -1.2999999960968620e+00 +1.1217219597945118e-02 -1.0331389740626582e+00 -5.8766008953597910e-02
-1.4000000000000001e+00 +9.1208988201902628e+00 +0.0000000000000000e+00 -1.3999999951250846e+00 +1.1217424783125091e-02 -1.0331363202099859e+00 -5.8766396706982707e-02
-1.5000000000000002e+00 +9.1208838498106992e+00 +0.0000000000000000e+00 -1.4999999940040791e+00 +1.1217631900742278e-02 -1.0331337062009232e+00 -5.8766791809821889e-02
-1.6000000000000003e+00 +9.1208678470121356e+00 +0.0000000000000000e+00 -1.5999999927231872e+00 +1.1217840958144296e-02 -1.0331311362023545e+00 -5.8767194568798073e-02
-1.7000000000000004e+00 +9.1208508117971441e+00 +0.0000000000000000e+00 -1.6999999912717503e+00 +1.1218051767234833e-02 -1.0331286068356269e+00 -5.8767604420816806e-02
-1.8000000000000005e+00 +9.1208327441682542e+00 +0.0000000000000000e+00 -1.7999999896391101e+00 +1.1218264091070785e-02 -1.0331261128357268e+00 -5.8768020585300770e-02
-1.9000000000000006e+00 +9.1208136441279599e+00 +0.0000000000000000e+00 -1.8999999878146083e+00 +1.1218477692726353e-02 -1.0331236489376914e+00 -5.8768442281624617e-02
-2.0000000000000004e+00 +9.1207935116787269e+00 +0.0000000000000000e+00 -1.9999999857875865e+00 +1.1218692335300935e-02 -1.0331212098765976e+00 -5.8768868729105569e-02
-2.1000000000000005e+00 +9.1207723468229940e+00 +0.0000000000000000e+00 -2.0999999835473870e+00 +1.1218907781926876e-02 -1.0331187903875454e+00 -5.8769299146994240e-02
-2.2000000000000006e+00 +9.1207501495631824e+00 +0.0000000000000000e+00 -2.1999999810833510e+00 +1.1219123795777320e-02 -1.0331163852056442e+00 -5.8769732754465162e-02
-2.3000000000000007e+00 +9.1207269199016991e+00 +0.0000000000000000e+00 -2.2999999783848208e+00 +1.1219340140073983e-02 -1.0331139890659979e+00 -5.8770168770607499e-02
-2.4000000000000008e+00 +9.1207026578409405e+00 +0.0000000000000000e+00 -2.3999999754411387e+00 +1.1219556578094980e-02 -1.0331115967036923e+00 -5.8770606414415810e-02
-2.5000000000000009e+00 +9.1206773633833009e+00 +0.0000000000000000e+00 -2.4999999722416466e+00 +1.1219772873182656e-02 -1.0331092028537789e+00 -5.8771044904780627e-02
-2.6000000000000010e+00 +9.1206510365311750e+00 +0.0000000000000000e+00 -2.5999999687756867e+00 +1.1219988788751349e-02 -1.0331068022512606e+00 -5.8771483460479203e-02
-2.7000000000000011e+00 +9.1206236772869644e+00 +0.0000000000000000e+00 -2.6999999650326014e+00 +1.1220204088295245e-02 -1.0331043896310796e+00 -5.8771921300166119e-02
-2.8000000000000012e+00 +9.1205952856530850e+00 +0.0000000000000000e+00 -2.7999999610017330e+00 +1.1220418535396161e-02 -1.0331019597280997e+00 -5.8772357642364048e-02
-2.9000000000000012e+00 +9.1205658616319685e+00 +0.0000000000000000e+00 -2.8999999566724237e+00 +1.1220631893731381e-02 -1.0330995072770961e+00 -5.8772791705454387e-02
-3.0000000000000013e+00 +9.1205354052260681e+00 +0.0000000000000000e+00 -2.9999999520340164e+00 +1.1220843927081442e-02 -1.0330970270127358e+00 -5.8773222707667931e-02
-3.1000000000000014e+00 +9.1205039164378654e+00 +0.0000000000000000e+00 -3.0999999470758532e+00 +1.1221054399337963e-02 -1.0330945136695686e+00 -5.8773649867075582e-02
-3.2000000000000015e+00 +9.1204713952698775e+00 +0.0000000000000000e+00 -3.1999999417872771e+00 +1.1221263074511463e-02 -1.0330919619820091e+00 -5.8774072401579017e-02
-3.3000000000000016e+00 +9.1204378417246570e+00 +0.0000000000000000e+00 -3.2999999361576307e+00 +1.1221469716739150e-02 -1.0330893666843248e+00 -5.8774489528901373e-02
-3.4000000000000017e+00 +9.1204032558048027e+00 +0.0000000000000000e+00 -3.3999999301762571e+00 +1.1221674090292771e-02 -1.0330867225106195e+00 -5.8774900466577955e-02
-3.5000000000000018e+00 +9.1203676375129596e+00 +0.0000000000000000e+00 -3.4999999238324992e+00 +1.1221875959586385e-02 -1.0330840241948200e+00 -5.8775304431946798e-02
-3.6000000000000019e+00 +9.1203309868518296e+00 +0.0000000000000000e+00 -3.5999999171157002e+00 +1.1222075073492583e-02 -1.0330812674743903e+00 -5.8775700731289598e-02
-3.7000000000000020e+00 +9.1202933038241714e+00 +0.0000000000000000e+00 -3.6999999100152032e+00 +1.1222271118214824e-02 -1.0330784521012280e+00 -5.8776089027429132e-02
-3.8000000000000020e+00 +9.1202545884328021e+00 +0.0000000000000000e+00 -3.7999999025203510e+00 +1.1222463764259148e-02 -1.0330755788299668e+00 -5.8776469072557562e-02
-3.9000000000000021e+00 +9.1202148406805961e+00 +0.0000000000000000e+00 -3.8999998946204877e+00 +1.1222652682106834e-02 -1.0330726484141097e+00 -5.8776840619146342e-02
-4.0000000000000018e+00 +9.1201740605704860e+00 +0.0000000000000000e+00 -3.9999998863049564e+00 +1.1222837542209832e-02 -1.0330696616059583e+00 -5.8777203419968983e-02
-4.1000000000000014e+00 +9.1201322481054614e+00 +0.0000000000000000e+00 -4.0999998775631008e+00 +1.1223018014986159e-02 -1.0330666191565412e+00 -5.8777557228123764e-02
-4.2000000000000011e+00 +9.1200894032885671e+00 +0.0000000000000000e+00 -4.1999998683842650e+00 +1.1223193770815329e-02 -1.0330635218155468e+00 -5.8777901797056685e-02
-4.3000000000000007e+00 +9.1200455261229028e+00 +0.0000000000000000e+00 -4.2999998587577917e+00 +1.1223364480033780e-02 -1.0330603703312500e+00 -5.8778236880584117e-02
-4.4000000000000004e+00 +9.1200006166116232e+00 +0.0000000000000000e+00 -4.3999998486730263e+00 +1.1223529812930245e-02 -1.0330571654504423e+00 -5.8778562232915610e-02
-4.5000000000000000e+00 +9.1199546747579348e+00 +0.0000000000000000e+00 -4.4999998381193125e+00 +1.1223689439741216e-02 -1.0330539079183620e+00 -5.8778877608676755e-02
-4.5999999999999996e+00 +9.1199077005650988e+00 +0.0000000000000000e+00 -4.5999998270859939e+00 +1.1223843030646356e-02 -1.0330505984786256e+00 -5.8779182762932022e-02
-4.6999999999999993e+00 +9.1198596940364265e+00 +0.0000000000000000e+00 -4.6999998155624150e+00 +1.1223990255763887e-02 -1.0330472378731537e+00 -5.8779477451207394e-02
-4.7999999999999989e+00 +9.1198106551752804e+00 +0.0000000000000000e+00 -4.7999998035379203e+00 +1.1224130785146022e-02 -1.0330438268421032e+00 -5.8779761429513279e-02
-4.8999999999999986e+00 +9.1197605839850748e+00 +0.0000000000000000e+00 -4.8999997910018553e+00 +1.1224264288774393e-02 -1.0330403661237979e+00 -5.8780034454367358e-02
-4.9999999999999982e+00 +9.1197094804692735e+00 +0.0000000000000000e+00 -4.9999997779435637e+00 +1.1224390436555438e-02 -1.0330368564546530e+00 -5.8780296282817168e-02
-5.0999999999999979e+00 +9.1196573446313884e+00 +0.0000000000000000e+00 -5.0999997643523907e+00 +1.1224508898315846e-02 -1.0330332985691131e+00 -5.8780546672463178e-02
-5.1999999999999975e+00 +9.1196041764749811e+00 +0.0000000000000000e+00 -5.1999997502176818e+00 +1.1224619343797974e-02 -1.0330296931995742e+00 -5.8780785381481446e-02
-5.2999999999999972e+00 +9.1195499760036611e+00 +0.0000000000000000e+00 -5.2999997355287816e+00 +1.1224721442655220e-02 -1.0330260410763175e+00 -5.8781012168646368e-02
-5.3999999999999968e+00 +9.1194947432210824e+00 +0.0000000000000000e+00 -5.3999997202750354e+00 +1.1224814864447492e-02 -1.0330223429274370e+00 -5.8781226793353625e-02
-5.4999999999999964e+00 +9.1194384781309470e+00 +0.0000000000000000e+00 -5.4999997044457887e+00 +1.1224899278636593e-02 -1.0330185994787704e+00 -5.8781429015642830e-02
-5.5999999999999961e+00 +9.1193811807370011e+00 +0.0000000000000000e+00 -5.5999996880303868e+00 +1.1224974541491191e-02 -1.0330148121134213e+00 -5.8781619093780699e-02
-5.6999999999999957e+00 +9.1193228510430355e+00 +0.0000000000000000e+00 -5.6999996710181753e+00 +1.1225041256888217e-02 -1.0330109848518714e+00 -5.8781799276636952e-02
-5.7999999999999954e+00 +9.1192634890528819e+00 +0.0000000000000000e+00 -5.7999996533985003e+00 +1.1225100215704239e-02 -1.0330071223756399e+00 -5.8781972310393449e-02
-5.8999999999999950e+00 +9.1192030947704037e+00 +0.0000000000000000e+00 -5.8999996351607082e+00 +1.1225152208924637e-02 -1.0330032293681317e+00 -5.8782140940868095e-02
-5.9999999999999947e+00 +9.1191416681994983e+00 +0.0000000000000000e+00 -5.9999996162941445e+00 +1.1225198027648400e-02 -1.0329993105147524e+00 -5.8782307913491892e-02
-6.0999999999999943e+00 +9.1190792093440880e+00 +0.0000000000000000e+00 -6.0999995967881553e+00 +1.1225238463092910e-02 -1.0329953705030215e+00 -5.8782475973285939e-02
-6.1999999999999940e+00 +9.1190157182081162e+00 +0.0000000000000000e+00 -6.1999995766320879e+00 +1.1225274306598736e-02 -1.0329914140226855e+00 -5.8782647864838201e-02
-6.2999999999999936e+00 +9.1189511947955442e+00 +0.0000000000000000e+00 -6.2999995558152877e+00 +1.1225306349634456e-02 -1.0329874457658335e+00 -5.8782826332280651e-02
-6.3999999999999932e+00 +9.1188856391103421e+00 +0.0000000000000000e+00 -6.3999995343271019e+00 +1.1225335383801409e-02 -1.0329834704270089e+00 -5.8783014119266140e-02
-6.4999999999999929e+00 +9.1188190511564908e+00 +0.0000000000000000e+00 -6.4999995121568777e+00 +1.1225362200838531e-02 -1.0329794927033278e+00 -5.8783213968945335e-02
-6.5999999999999925e+00 +9.1187514309379711e+00 +0.0000000000000000e+00 -6.5999994892939613e+00 +1.1225387592627135e-02 -1.0329755172945883e+00 -5.8783428623943701e-02
-6.6999999999999922e+00 +9.1186827784587621e+00 +0.0000000000000000e+00 -6.6999994657277000e+00 +1.1225412351195702e-02 -1.0329715489033866e+00 -5.8783660826338423e-02
-6.7999999999999918e+00 +9.1186130937228373e+00 +0.0000000000000000e+00 -6.7999994414474410e+00 +1.1225437268724662e-02 -1.0329675922352313e+00 -5.8783913317635293e-02
-6.8999999999999915e+00 +9.1185423767341565e+00 +0.0000000000000000e+00 -6.8999994164425313e+00 +1.1225463137551224e-02 -1.0329636519986560e+00 -5.8784188838745692e-02
-6.9999999999999911e+00 +9.1184706274966647e+00 +0.0000000000000000e+00 -6.9999993907023184e+00 +1.1225490750174131e-02 -1.0329597329053348e+00 -5.8784490129963486e-02
-7.0999999999999908e+00 +9.1183978460142860e+00 +0.0000000000000000e+00 -7.0999993642161501e+00 +1.1225520899258466e-02 -1.0329558396701948e+00 -5.8784819930941958e-02
-7.1999999999999904e+00 +9.1183240322909196e+00 +0.0000000000000000e+00 -7.1999993369733737e+00 +1.1225554377640442e-02 -1.0329519770115316e+00 -5.8785180980670690e-02
-7.2999999999999901e+00 +9.1182491863304307e+00 +0.0000000000000000e+00 -7.2999993089633364e+00 +1.1225591978332209e-02 -1.0329481496511230e+00 -5.8785576017452511e-02
-7.3999999999999897e+00 +9.1181733081366527e+00 +0.0000000000000000e+00 -7.3999992801753871e+00 +1.1225634494526611e-02 -1.0329443623143417e+00 -5.8786007778880413e-02
-7.4999999999999893e+00 +9.1180963977133782e+00 +0.0000000000000000e+00 -7.4999992505988731e+00 +1.1225682719601992e-02 -1.0329406197302706e+00 -5.8786479001814308e-02
-7.5999999999999890e+00 +9.1180184550643535e+00 +0.0000000000000000e+00 -7.5999992202231414e+00 +1.1225737238992348e-02 -1.0329369254272387e+00 -5.8786991385037686e-02
-7.6999999999999886e+00 +9.1179394801932805e+00 +0.0000000000000000e+00 -7.6999991890375412e+00 +1.1225797805606091e-02 -1.0329332781172349e+00 -5.8787542477489678e-02
-7.7999999999999883e+00 +9.1178594731038114e+00 +0.0000000000000000e+00 -7.7999991570314204e+00 +1.1225863963951210e-02 -1.0329296753064721e+00 -5.8788128790806631e-02
-7.8999999999999879e+00 +9.1177784337995558e+00 +0.0000000000000000e+00 -7.8999991241941272e+00 +1.1225935258228037e-02 -1.0329261144994970e+00 -5.8788746836772522e-02
-7.9999999999999876e+00 +9.1176963622840805e+00 +0.0000000000000000e+00 -7.9999990905150096e+00 +1.1226011232318032e-02 -1.0329225931991182e+00 -5.8789393127326478e-02
-8.0999999999999872e+00 +9.1176132585609153e+00 +0.0000000000000000e+00 -8.0999990559834156e+00 +1.1226091429772557e-02 -1.0329191089063392e+00 -5.8790064174570188e-02
-8.1999999999999869e+00 +9.1175291226335489e+00 +0.0000000000000000e+00 -8.1999990205886935e+00 +1.1226175393801673e-02 -1.0329156591202904e+00 -5.8790756490775191e-02
-8.2999999999999865e+00 +9.1174439545054380e+00 +0.0000000000000000e+00 -8.2999989843201920e+00 +1.1226262667262931e-02 -1.0329122413381602e+00 -5.8791466588390559e-02
-8.3999999999999861e+00 +9.1173577541800075e+00 +0.0000000000000000e+00 -8.3999989471672603e+00 +1.1226352792650144e-02 -1.0329088530551254e+00 -5.8792190980050146e-02
-8.4999999999999858e+00 +9.1172705216606538e+00 +0.0000000000000000e+00 -8.4999989091192472e+00 +1.1226445312082186e-02 -1.0329054917642839e+00 -5.8792926178580125e-02
-8.5999999999999854e+00 +9.1171822569507448e+00 +0.0000000000000000e+00 -8.5999988701654999e+00 +1.1226539767291772e-02 -1.0329021549565864e+00 -5.8793668697006425e-02
-8.6999999999999851e+00 +9.1170929600536237e+00 +0.0000000000000000e+00 -8.6999988302953692e+00 +1.1226635699614237e-02 -1.0328988401207657e+00 -5.8794415048562171e-02
-8.7999999999999847e+00 +9.1170026309726140e+00 +0.0000000000000000e+00 -8.7999987894982024e+00 +1.1226732649976333e-02 -1.0328955447432704e+00 -5.8795161746695183e-02
-8.8999999999999844e+00 +9.1169112697110180e+00 +0.0000000000000000e+00 -8.8999987477633500e+00 +1.1226830158885013e-02 -1.0328922663081943e+00 -5.8795905305075433e-02
-8.9999999999999840e+00 +9.1168188762721218e+00 +0.0000000000000000e+00 -8.9999987050801593e+00 +1.1226927766416215e-02 -1.0328890022972101e+00 -5.8796642237602503e-02
-9.0999999999999837e+00 +9.1167254506591977e+00 +0.0000000000000000e+00 -9.0999986614379793e+00 +1.1227025012203639e-02 -1.0328857501894975e+00 -5.8797369058413131e-02
-9.1999999999999833e+00 +9.1166309928755052e+00 +0.0000000000000000e+00 -9.1999986168261607e+00 +1.1227121435427553e-02 -1.0328825074616785e+00 -5.8798082281888639e-02
-9.2999999999999829e+00 +9.1165355029242949e+00 +0.0000000000000000e+00 -9.2999985712340525e+00 +1.1227216574803562e-02 -1.0328792715877435e+00 -5.8798778422662484e-02
-9.3999999999999826e+00 +9.1164389808088124e+00 +0.0000000000000000e+00 -9.3999985246510036e+00 +1.1227309968571401e-02 -1.0328760400389885e+00 -5.8799453995627686e-02
-9.4999999999999822e+00 +9.1163414265322960e+00 +0.0000000000000000e+00 -9.4999984770663648e+00 +1.1227401154483724e-02 -1.0328728102839413e+00 -5.8800105515944438e-02
-9.5999999999999819e+00 +9.1162428400979838e+00 +0.0000000000000000e+00 -9.5999984284694833e+00 +1.1227489833798713e-02 -1.0328695817011786e+00 -5.8800730363137162e-02
-9.6999999999999815e+00 +9.1161432215091125e+00 +0.0000000000000000e+00 -9.6999983788497115e+00 +1.1227576363603789e-02 -1.0328663613198621e+00 -5.8801329373522664e-02
-9.7999999999999812e+00 +9.1160425707689097e+00 +0.0000000000000000e+00 -9.7999983281963967e+00 +1.1227661265301690e-02 -1.0328631580837100e+00 -5.8801904247859013e-02
-9.8999999999999808e+00 +9.1159408878805870e+00 +0.0000000000000000e+00 -9.8999982764988914e+00 +1.1227745060675439e-02 -1.0328599809383894e+00 -5.8802456687182175e-02
-9.9999999999999805e+00 +9.1158381728473277e+00 +0.0000000000000000e+00 -9.9999982237465428e+00 +1.1227828271899951e-02 -1.0328568388315773e+00 -5.8802988392813040e-02
-1.0099999999999980e+01 +9.1157344256722830e+00 +0.0000000000000000e+00 -1.0099998169928703e+01 +1.1227911421553582e-02 -1.0328537407130127e+00 -5.8803501066364415e-02
-1.0199999999999980e+01 +9.1156296463585598e+00 +0.0000000000000000e+00 -1.0199998115034722e+01 +1.1227995032629726e-02 -1.0328506955345542e+00 -5.8803996409747684e-02
-1.0299999999999979e+01 +9.1155238349092116e+00 +0.0000000000000000e+00 -1.0299998059053948e+01 +1.1228079628548380e-02 -1.0328477122502351e+00 -5.8804476125180000e-02
-1.0399999999999979e+01 +9.1154169913272298e+00 +0.0000000000000000e+00 -1.0399998001975733e+01 +1.1228165733167730e-02 -1.0328447998163215e+00 -5.8804941915190936e-02
-1.0499999999999979e+01 +9.1153091156155348e+00 +0.0000000000000000e+00 -1.0499997943789428e+01 +1.1228253870795724e-02 -1.0328419671913676e+00 -5.8805395482629585e-02
-1.0599999999999978e+01 +9.1152002077769687e+00 +0.0000000000000000e+00 -1.0599997884484379e+01 +1.1228344566201639e-02 -1.0328392233362724e+00 -5.8805838530671353e-02
-1.0699999999999978e+01 +9.1150902678142849e+00 +0.0000000000000000e+00 -1.0699997824049941e+01 +1.1228438344627670e-02 -1.0328365772143333e+00 -5.8806272762824824e-02
-1.0799999999999978e+01 +9.1149792957301372e+00 +0.0000000000000000e+00 -1.0799997762475460e+01 +1.1228535731800488e-02 -1.0328340377913068e+00 -5.8806699882938761e-02
-1.0899999999999977e+01 +9.1148672915270748e+00 +0.0000000000000000e+00 -1.0899997699750289e+01 +1.1228637253942816e-02 -1.0328316140354621e+00 -5.8807121595208935e-02
-1.0999999999999977e+01 +9.1147542552075311e+00 +0.0000000000000000e+00 -1.0999997635863776e+01 +1.1228743437784993e-02 -1.0328293149176349e+00 -5.8807539604184972e-02
-1.1099999999999977e+01 +9.1146401867738156e+00 +0.0000000000000000e+00 -1.1099997570805273e+01 +1.1228854810576581e-02 -1.0328271494112895e+00 -5.8807955614777342e-02
-1.1199999999999976e+01 +9.1145250862281024e+00 +0.0000000000000000e+00 -1.1199997504564129e+01 +1.1228971900097874e-02 -1.0328251264925705e+00 -5.8808371332264173e-02
-1.1299999999999976e+01 +9.1144089535724255e+00 +0.0000000000000000e+00 -1.1299997437129694e+01 +1.1229095234671523e-02 -1.0328232551403598e+00 -5.8808788462298138e-02
-1.1399999999999975e+01 +9.1142917888086661e+00 +0.0000000000000000e+00 -1.1399997368491317e+01 +1.1229225343174061e-02 -1.0328215443363331e+00 -5.8809208710913344e-02
-1.1499999999999975e+01 +9.1141735919385471e+00 +0.0000000000000000e+00 -1.1499997298638348e+01 +1.1229362755047495e-02 -1.0328200030650168e+00 -5.8809633784532217e-02
-1.1599999999999975e+01 +9.1140543629636195e+00 +0.0000000000000000e+00 -1.1599997227560136e+01 +1.1229507779320662e-02 -1.0328186360157317e+00 -5.8810065169475879e-02
-1.1699999999999974e+01 +9.1139341018852633e+00 +0.0000000000000000e+00 -1.1699997155246031e+01 +1.1229659841248761e-02 -1.0328174306836766e+00 -5.8810503470046537e-02
