# trajectory
# s[mm] rx[mm] ry[mm] rz[mm] px[rad] py[rad] pz[rad]
0.0000000000000000e+00 +9.1463000000000001e+00 +0.0000000000000000e+00 +0.0000000000000000e+00 +0.0000000000000000e+00 +0.0000000000000000e+00 +1.0000000000000000e+00
-1.0000000000000001e-01 +9.1462994839472547e+00 +0.0000000000000000e+00 -9.9999999998224592e-02 +1.0321059188481532e-05 +0.0000000000000000e+00 +9.9999999994673783e-01
-2.0000000000000001e-01 +9.1462979357873113e+00 +0.0000000000000000e+00 -1.9999999998579673e-01 +2.0642143906078294e-05 +0.0000000000000000e+00 +9.9999999978695087e-01
-3.0000000000000004e-01 +9.1462953555176298e+00 +0.0000000000000000e+00 -2.9999999995206389e-01 +3.0963253912149676e-05 +0.0000000000000000e+00 +9.9999999952063834e-01
-4.0000000000000002e-01 +9.1462917431356967e+00 +0.0000000000000000e+00 -3.9999999988637347e-01 +4.1284388896582533e-05 +0.0000000000000000e+00 +9.9999999914779947e-01
-5.0000000000000000e-01 +9.1462870986390303e+00 +0.0000000000000000e+00 -4.9999999977807286e-01 +5.1605548479797968e-05 +0.0000000000000000e+00 +9.9999999866843359e-01
-5.9999999999999998e-01 +9.1462814220251953e+00 +0.0000000000000000e+00 -5.9999999961650929e-01 +6.1926732212756169e-05 +0.0000000000000000e+00 +9.9999999808253981e-01
-6.9999999999999996e-01 +9.1462747132918008e+00 +0.0000000000000000e+00 -6.9999999939102986e-01 +7.2247939576959125e-05 +0.0000000000000000e+00 +9.9999999739011747e-01
-7.9999999999999993e-01 +9.1462669724365124e+00 +0.0000000000000000e+00 -7.9999999909098174e-01 +8.2569169984451430e-05 +0.0000000000000000e+00 +9.9999999659116590e-01
-8.9999999999999991e-01 +9.1462581994570584e+00 +0.0000000000000000e+00 -8.9999999870571201e-01 +9.2890422777818952e-05 +0.0000000000000000e+00 +9.9999999568568454e-01
-9.9999999999999989e-01 +9.1462483943512360e+00 +0.0000000000000000e+00 -9.9999999822456764e-01 +1.0321169723018553e-04 +0.0000000000000000e+00 +9.9999999467367262e-01
-1.0999999999999999e+00 +9.1462375571169172e+00 +0.0000000000000000e+00 -1.0999999976368955e+00 +1.1353299254520764e-04 +0.0000000000000000e+00 +9.9999999355512958e-01
-1.2000000000000000e+00 +9.1462256877520591e+00 +0.0000000000000000e+00 -1.1999999969320425e+00 +1.2385430785706703e-04 +0.0000000000000000e+00 +9.9999999233005499e-01
-1.3000000000000000e+00 +9.1462127862547096e+00 +0.0000000000000000e+00 -1.2999999960993553e+00 +1.3417564223046130e-04 +0.0000000000000000e+00 +9.9999999099844827e-01
-1.4000000000000001e+00 +9.1461988526230105e+00 +0.0000000000000000e+00 -1.3999999951281810e+00 +1.4449699466059253e-04 +0.0000000000000000e+00 +9.9999998956030900e-01
-1.5000000000000002e+00 +9.1461838868552103e+00 +0.0000000000000000e+00 -1.4999999940078661e+00 +1.5481836407315382e-04 +0.0000000000000000e+00 +9.9999998801563683e-01
-1.6000000000000003e+00 +9.1461678889496678e+00 +0.0000000000000000e+00 -1.5999999927277573e+00 +1.6513974932909001e-04 +0.0000000000000000e+00 +9.9999998636443133e-01
-1.7000000000000004e+00 +9.1461508589048552e+00 +0.0000000000000000e+00 -1.6999999912772013e+00 +1.7546114927712036e-04 +0.0000000000000000e+00 +9.9999998460669226e-01
-1.8000000000000005e+00 +9.1461327967193604e+00 +0.0000000000000000e+00 -1.7999999896455445e+00 +1.8578256280626769e-04 +0.0000000000000000e+00 +9.9999998274241941e-01
-1.9000000000000006e+00 +9.1461137023918777e+00 +0.0000000000000000e+00 -1.8999999878221339e+00 +1.9610398885062914e-04 +0.0000000000000000e+00 +9.9999998077161245e-01
-2.0000000000000004e+00 +9.1460935759212081e+00 +0.0000000000000000e+00 -1.9999999857963158e+00 +2.0642542638937136e-04 +0.0000000000000000e+00 +9.9999997869427126e-01
-2.1000000000000005e+00 +9.1460724173062502e+00 +0.0000000000000000e+00 -2.0999999835574368e+00 +2.1674687444672570e-04 +0.0000000000000000e+00 +9.9999997651039574e-01
-2.2000000000000006e+00 +9.1460502265459986e+00 +0.0000000000000000e+00 -2.1999999810948436e+00 +2.2706833209198355e-04 +0.0000000000000000e+00 +9.9999997421998577e-01
-2.3000000000000007e+00 +9.1460270036395404e+00 +0.0000000000000000e+00 -2.2999999783978828e+00 +2.3738979843949205e-04 +0.0000000000000000e+00 +9.9999997182304123e-01
-2.4000000000000008e+00 +9.1460027485860476e+00 +0.0000000000000000e+00 -2.3999999754559007e+00 +2.4771127264864971e-04 +0.0000000000000000e+00 +9.9999996931956203e-01
-2.5000000000000009e+00 +9.1459774613847742e+00 +0.0000000000000000e+00 -2.4999999722582440e+00 +2.5803275392390242e-04 +0.0000000000000000e+00 +9.9999996670954816e-01
-2.6000000000000010e+00 +9.1459511420350523e+00 +0.0000000000000000e+00 -2.5999999687942590e+00 +2.6835424151473936e-04 +0.0000000000000000e+00 +9.9999996399299962e-01
-2.7000000000000011e+00 +9.1459237905362851e+00 +0.0000000000000000e+00 -2.6999999650532924e+00 +2.7867573471568942e-04 +0.0000000000000000e+00 +9.9999996116991641e-01
-2.8000000000000012e+00 +9.1458954068879450e+00 +0.0000000000000000e+00 -2.7999999610246911e+00 +2.8899723286631758e-04 +0.0000000000000000e+00 +9.9999995824029853e-01
-2.9000000000000012e+00 +9.1458659910895683e+00 +0.0000000000000000e+00 -2.8999999566978012e+00 +2.9931873535122140e-04 +0.0000000000000000e+00 +9.9999995520414608e-01
-3.0000000000000013e+00 +9.1458355431407501e+00 +0.0000000000000000e+00 -2.9999999520619691e+00 +3.0964024160002777e-04 +0.0000000000000000e+00 +9.9999995206145897e-01
-3.1000000000000014e+00 +9.1458040630411404e+00 +0.0000000000000000e+00 -3.0999999471065416e+00 +3.1996175108738994e-04 +0.0000000000000000e+00 +9.9999994881223730e-01
-3.2000000000000015e+00 +9.1457715507904407e+00 +0.0000000000000000e+00 -3.1999999418208653e+00 +3.3028326333298450e-04 +0.0000000000000000e+00 +9.9999994545648119e-01
-3.3000000000000016e+00 +9.1457380063883971e+00 +0.0000000000000000e+00 -3.2999999361942867e+00 +3.4060477790150861e-04 +0.0000000000000000e+00 +9.9999994199419062e-01
-3.4000000000000017e+00 +9.1457034298347963e+00 +0.0000000000000000e+00 -3.3999999302161523e+00 +3.5092629440267747e-04 +0.0000000000000000e+00 +9.9999993842536572e-01
-3.5000000000000018e+00 +9.1456678211294644e+00 +0.0000000000000000e+00 -3.4999999238758086e+00 +3.6124781249122190e-04 +0.0000000000000000e+00 +9.9999993475000648e-01
-3.6000000000000019e+00 +9.1456311802722556e+00 +0.0000000000000000e+00 -3.5999999171626023e+00 +3.7156933186579508e-04 +0.0000000000000000e+00 +9.9999993096811302e-01
-3.7000000000000020e+00 +9.1455935072630563e+00 +0.0000000000000000e+00 -3.6999999100658800e+00 +3.8189085225697004e-04 +0.0000000000000000e+00 +9.9999992707968544e-01
-3.8000000000000020e+00 +9.1455548021017776e+00 +0.0000000000000000e+00 -3.7999999025749882e+00 +3.9221237341523696e-04 +0.0000000000000000e+00 +9.9999992308472374e-01
-3.9000000000000021e+00 +9.1455150647883556e+00 +0.0000000000000000e+00 -3.8999998946792735e+00 +4.0253389510991019e-04 +0.0000000000000000e+00 +9.9999991898322804e-01
-4.0000000000000018e+00 +9.1454742953227459e+00 +0.0000000000000000e+00 -3.9999998863680828e+00 +4.1285541712912606e-04 +0.0000000000000000e+00 +9.9999991477519834e-01
-4.1000000000000014e+00 +9.1454324937049254e+00 +0.0000000000000000e+00 -4.0999998776307622e+00 +4.2317693927984107e-04 +0.0000000000000000e+00 +9.9999991046063474e-01
-4.2000000000000011e+00 +9.1453896599348905e+00 +0.0000000000000000e+00 -4.1999998684566586e+00 +4.3349846138783017e-04 +0.0000000000000000e+00 +9.9999990603953726e-01
-4.3000000000000007e+00 +9.1453457940126537e+00 +0.0000000000000000e+00 -4.2999998588351183e+00 +4.4381998329768511e-04 +0.0000000000000000e+00 +9.9999990151190610e-01
-4.4000000000000004e+00 +9.1453008959382416e+00 +0.0000000000000000e+00 -4.3999998487554883e+00 +4.5414150487281302e-04 +0.0000000000000000e+00 +9.9999989687774116e-01
-4.5000000000000000e+00 +9.1452549657116933e+00 +0.0000000000000000e+00 -4.4999998382071151e+00 +4.6446302599543505e-04 +0.0000000000000000e+00 +9.9999989213704266e-01
-4.5999999999999996e+00 +9.1452080033330603e+00 +0.0000000000000000e+00 -4.5999998271793459e+00 +4.7478454656658519e-04 +0.0000000000000000e+00 +9.9999988728981060e-01
-4.6999999999999993e+00 +9.1451600088024012e+00 +0.0000000000000000e+00 -4.6999998156615268e+00 +4.8510606650610928e-04 +0.0000000000000000e+00 +9.9999988233604498e-01
-4.7999999999999989e+00 +9.1451109821197818e+00 +0.0000000000000000e+00 -4.7999998036430043e+00 +4.9542758575266404e-04 +0.0000000000000000e+00 +9.9999987727574591e-01
-4.8999999999999986e+00 +9.1450609232852749e+00 +0.0000000000000000e+00 -4.8999997911131246e+00 +5.0574910426371637e-04 +0.0000000000000000e+00 +9.9999987210891339e-01
-4.9999999999999982e+00 +9.1450098322989550e+00 +0.0000000000000000e+00 -4.9999997780612357e+00 +5.1607062201554257e-04 +0.0000000000000000e+00 +9.9999986683554754e-01
-5.0999999999999979e+00 +9.1449577091608969e+00 +0.0000000000000000e+00 -5.0999997644766832e+00 +5.2639213900322818e-04 +0.0000000000000000e+00 +9.9999986145564823e-01
-5.1999999999999975e+00 +9.1449045538711786e+00 +0.0000000000000000e+00 -5.1999997503488142e+00 +5.3671365524066725e-04 +0.0000000000000000e+00 +9.9999985596921559e-01
-5.2999999999999972e+00 +9.1448503664298730e+00 +0.0000000000000000e+00 -5.2999997356669750e+00 +5.4703517076056245e-04 +0.0000000000000000e+00 +9.9999985037624961e-01
-5.3999999999999968e+00 +9.1447951468370494e+00 +0.0000000000000000e+00 -5.3999997204205128e+00 +5.5735668561442489e-04 +0.0000000000000000e+00 +9.9999984467675029e-01
-5.4999999999999964e+00 +9.1447388950927699e+00 +0.0000000000000000e+00 -5.4999997045987739e+00 +5.6767819987257417e-04 +0.0000000000000000e+00 +9.9999983887071753e-01
-5.5999999999999961e+00 +9.1446816111970914e+00 +0.0000000000000000e+00 -5.5999996881911054e+00 +5.7799971362411200e-04 +0.0000000000000000e+00 +9.9999983295815142e-01
-5.6999999999999957e+00 +9.1446232951500583e+00 +0.0000000000000000e+00 -5.6999996711868537e+00 +5.8832122697662938e-04 +0.0000000000000000e+00 +9.9999982693905187e-01
-5.7999999999999954e+00 +9.1445639469517044e+00 +0.0000000000000000e+00 -5.7999996535753651e+00 +5.9864274005591903e-04 +0.0000000000000000e+00 +9.9999982081341876e-01
-5.8999999999999950e+00 +9.1445035666020509e+00 +0.0000000000000000e+00 -5.8999996353459867e+00 +6.0896425300595845e-04 +0.0000000000000000e+00 +9.9999981458125198e-01
-5.9999999999999947e+00 +9.1444421541011014e+00 +0.0000000000000000e+00 -5.9999996164880649e+00 +6.1928576598891988e-04 +0.0000000000000000e+00 +9.9999980824255152e-01
-6.0999999999999943e+00 +9.1443797094488453e+00 +0.0000000000000000e+00 -6.0999995969909460e+00 +6.2960727918518118e-04 +0.0000000000000000e+00 +9.9999980179731729e-01
-6.1999999999999940e+00 +9.1443162326452505e+00 +0.0000000000000000e+00 -6.1999995768439771e+00 +6.3992879279333727e-04 +0.0000000000000000e+00 +9.9999979524554905e-01
-6.2999999999999936e+00 +9.1442517236902656e+00 +0.0000000000000000e+00 -6.2999995560365045e+00 +6.5025030703021170e-04 +0.0000000000000000e+00 +9.9999978858724670e-01
-6.3999999999999932e+00 +9.1441861825838160e+00 +0.0000000000000000e+00 -6.3999995345578755e+00 +6.6057182213086923e-04 +0.0000000000000000e+00 +9.9999978182241001e-01
-6.4999999999999929e+00 +9.1441196093258021e+00 +0.0000000000000000e+00 -6.4999995123974355e+00 +6.7089333834862862e-04 +0.0000000000000000e+00 +9.9999977495103887e-01
-6.5999999999999925e+00 +9.1440520039160997e+00 +0.0000000000000000e+00 -6.5999994895445315e+00 +6.8121485595507600e-04 +0.0000000000000000e+00 +9.9999976797313306e-01
-6.6999999999999922e+00 +9.1439833663545560e+00 +0.0000000000000000e+00 -6.6999994659885109e+00 +6.9153637524007889e-04 +0.0000000000000000e+00 +9.9999976088869225e-01
-6.7999999999999918e+00 +9.1439136966409862e+00 +0.0000000000000000e+00 -6.7999994417187191e+00 +7.0185789651180052e-04 +0.0000000000000000e+00 +9.9999975369771621e-01
-6.8999999999999915e+00 +9.1438429947751771e+00 +0.0000000000000000e+00 -6.8999994167245031e+00 +7.1217942009671497e-04 +0.0000000000000000e+00 +9.9999974640020461e-01
-6.9999999999999911e+00 +9.1437712607568784e+00 +0.0000000000000000e+00 -6.9999993909952094e+00 +7.2250094633962249e-04 +0.0000000000000000e+00 +9.9999973899615713e-01
-7.0999999999999908e+00 +9.1436984945858075e+00 +0.0000000000000000e+00 -7.0999993645201833e+00 +7.3282247560366588e-04 +0.0000000000000000e+00 +9.9999973148557353e-01
-7.1999999999999904e+00 +9.1436246962616430e+00 +0.0000000000000000e+00 -7.1999993372887721e+00 +7.4314400827034659e-04 +0.0000000000000000e+00 +9.9999972386845326e-01
-7.2999999999999901e+00 +9.1435498657840260e+00 +0.0000000000000000e+00 -7.2999993092903219e+00 +7.5346554473954225e-04 +0.0000000000000000e+00 +9.9999971614479610e-01
-7.3999999999999897e+00 +9.1434740031525550e+00 +0.0000000000000000e+00 -7.3999992805141792e+00 +7.6378708542952395e-04 +0.0000000000000000e+00 +9.9999970831460150e-01
-7.4999999999999893e+00 +9.1433971083667860e+00 +0.0000000000000000e+00 -7.4999992509496902e+00 +7.7410863077697462e-04 +0.0000000000000000e+00 +9.9999970037786901e-01
-7.5999999999999890e+00 +9.1433191814262305e+00 +0.0000000000000000e+00 -7.5999992205862013e+00 +7.8443018123692165e-04 +0.0000000000000000e+00 +9.9999969233459807e-01
-7.6999999999999886e+00 +9.1432402223303537e+00 +0.0000000000000000e+00 -7.6999991894130586e+00 +7.9475173728181265e-04 +0.0000000000000000e+00 +9.9999968418478824e-01
-7.7999999999999883e+00 +9.1431602310785731e+00 +0.0000000000000000e+00 -7.7999991574196077e+00 +8.0507329940059352e-04 +0.0000000000000000e+00 +9.9999967592843886e-01
-7.8999999999999879e+00 +9.1430792076702545e+00 +0.0000000000000000e+00 -7.8999991245951948e+00 +8.1539486809864743e-04 +0.0000000000000000e+00 +9.9999966756554937e-01
-7.9999999999999876e+00 +9.1429971521047158e+00 +0.0000000000000000e+00 -7.9999990909291663e+00 +8.2571644389781965e-04 +0.0000000000000000e+00 +9.9999965909611910e-01
-8.0999999999999872e+00 +9.1429140643812197e+00 +0.0000000000000000e+00 -8.0999990564108675e+00 +8.3603802733644376e-04 +0.0000000000000000e+00 +9.9999965052014739e-01
-8.1999999999999869e+00 +9.1428299444989758e+00 +0.0000000000000000e+00 -8.1999990210296438e+00 +8.4635961896936814e-04 +0.0000000000000000e+00 +9.9999964183763357e-01
-8.2999999999999865e+00 +9.1427447924571350e+00 +0.0000000000000000e+00 -8.2999989847748417e+00 +8.5668121936798285e-04 +0.0000000000000000e+00 +9.9999963304857686e-01
-8.3999999999999861e+00 +9.1426586082547914e+00 +0.0000000000000000e+00 -8.3999989476358063e+00 +8.6700282912024801e-04 +0.0000000000000000e+00 +9.9999962415297650e-01
-8.4999999999999858e+00 +9.1425713918909786e+00 +0.0000000000000000e+00 -8.4999989096018851e+00 +8.7732444883072179e-04 +0.0000000000000000e+00 +9.9999961515083169e-01
-8.5999999999999854e+00 +9.1424831433646716e+00 +0.0000000000000000e+00 -8.5999988706624215e+00 +8.8764607912059025e-04 +0.0000000000000000e+00 +9.9999960604214155e-01
-8.6999999999999851e+00 +9.1423938626747798e+00 +0.0000000000000000e+00 -8.6999988308067611e+00 +8.9796772062769657e-04 +0.0000000000000000e+00 +9.9999959682690509e-01
-8.7999999999999847e+00 +9.1423035498201504e+00 +0.0000000000000000e+00 -8.7999987900242509e+00 +9.0828937400657208e-04 +0.0000000000000000e+00 +9.9999958750512141e-01
-8.8999999999999844e+00 +9.1422122047995611e+00 +0.0000000000000000e+00 -8.8999987483042347e+00 +9.1861103992846706e-04 +0.0000000000000000e+00 +9.9999957807678963e-01
-8.9999999999999840e+00 +9.1421198276117241e+00 +0.0000000000000000e+00 -8.9999987056360577e+00 +9.2893271908138291e-04 +0.0000000000000000e+00 +9.9999956854190863e-01
-9.0999999999999837e+00 +9.1420264182552806e+00 +0.0000000000000000e+00 -9.0999986620090656e+00 +9.3925441217010451e-04 +0.0000000000000000e+00 +9.9999955890047731e-01
-9.1999999999999833e+00 +9.1419319767288023e+00 +0.0000000000000000e+00 -9.1999986174126018e+00 +9.4957611991623335e-04 +0.0000000000000000e+00 +9.9999954915249456e-01
-9.2999999999999829e+00 +9.1418365030307847e+00 +0.0000000000000000e+00 -9.2999985718360119e+00 +9.5989784305822168e-04 +0.0000000000000000e+00 +9.9999953929795926e-01
-9.3999999999999826e+00 +9.1417399971596520e+00 +0.0000000000000000e+00 -9.3999985252686411e+00 +9.7021958235140671e-04 +0.0000000000000000e+00 +9.9999952933687020e-01
-9.4999999999999822e+00 +9.1416424591137506e+00 +0.0000000000000000e+00 -9.4999984776998332e+00 +9.8054133856804592e-04 +0.0000000000000000e+00 +9.9999951926922603e-01
-9.5999999999999819e+00 +9.1415438888913485e+00 +0.0000000000000000e+00 -9.5999984291189335e+00 +9.9086311249890193e-04 +0.0000000000000000e+00 +9.9999950909502555e-01
-9.6999999999999815e+00 +9.1414442864906338e+00 +0.0000000000000000e+00 -9.6999983795152858e+00 +1.0011849049703159e-03 +0.0000000000000000e+00 +9.9999949881426731e-01
-9.7999999999999812e+00 +9.1413436519097075e+00 +0.0000000000000000e+00 -9.7999983288782353e+00 +1.0115067168612693e-03 +0.0000000000000000e+00 +9.9999948842694986e-01
-9.8999999999999808e+00 +9.1412419851465820e+00 +0.0000000000000000e+00 -9.8999982771971240e+00 +1.0218285491049469e-03 +0.0000000000000000e+00 +9.9999947793307165e-01
-9.9999999999999805e+00 +9.1411392861991736e+00 +0.0000000000000000e+00 -9.9999982244612973e+00 +1.0321504026887512e-03 +0.0000000000000000e+00 +9.9999946733263101e-01
-1.0099999999999980e+01 +9.1410355550652973e+00 +0.0000000000000000e+00 -1.0099998170660099e+01 +1.0424722786543162e-03 +0.0000000000000000e+00 +9.9999945662562628e-01
-1.0199999999999980e+01 +9.1409307917426599e+00 +0.0000000000000000e+00 -1.0199998115782870e+01 +1.0527941780975219e-03 +0.0000000000000000e+00 +9.9999944581205547e-01
-1.0299999999999979e+01 +9.1408249962288561e+00 +0.0000000000000000e+00 -1.0299998059818957e+01 +1.0631161021685072e-03 +0.0000000000000000e+00 +9.9999943489191667e-01
-1.0399999999999979e+01 +9.1407181685213654e+00 +0.0000000000000000e+00 -1.0399998002757702e+01 +1.0734380520716854e-03 +0.0000000000000000e+00 +9.9999942386520790e-01
-1.0499999999999979e+01 +9.1406103086175392e+00 +0.0000000000000000e+00 -1.0499997944588447e+01 +1.0837600290657574e-03 +0.0000000000000000e+00 +9.9999941273192694e-01
-1.0599999999999978e+01 +9.1405014165146046e+00 +0.0000000000000000e+00 -1.0599997885300535e+01 +1.0940820344637265e-03 +0.0000000000000000e+00 +9.9999940149207156e-01
-1.0699999999999978e+01 +9.1403914922096536e+00 +0.0000000000000000e+00 -1.0699997824883308e+01 +1.1044040696329123e-03 +0.0000000000000000e+00 +9.9999939014563921e-01
-1.0799999999999978e+01 +9.1402805356996382e+00 +0.0000000000000000e+00 -1.0799997763326109e+01 +1.1147261359949654e-03 +0.0000000000000000e+00 +9.9999937869262756e-01
-1.0899999999999977e+01 +9.1401685469813660e+00 +0.0000000000000000e+00 -1.0899997700618281e+01 +1.1250482350258816e-03 +0.0000000000000000e+00 +9.9999936713303383e-01
-1.0999999999999977e+01 +9.1400555260514942e+00 +0.0000000000000000e+00 -1.0999997636749164e+01 +1.1353703682560163e-03 +0.0000000000000000e+00 +9.9999935546685537e-01
-1.1099999999999977e+01 +9.1399414729065231e+00 +0.0000000000000000e+00 -1.1099997571708100e+01 +1.1456925372700991e-03 +0.0000000000000000e+00 +9.9999934369408927e-01
-1.1199999999999976e+01 +9.1398263875427936e+00 +0.0000000000000000e+00 -1.1199997505484429e+01 +1.1560147437072480e-03 +0.0000000000000000e+00 +9.9999933181473255e-01
-1.1299999999999976e+01 +9.1397102699564776e+00 +0.0000000000000000e+00 -1.1299997438067493e+01 +1.1663369892609846e-03 +0.0000000000000000e+00 +9.9999931982878210e-01
-1.1399999999999975e+01 +9.1395931201435783e+00 +0.0000000000000000e+00 -1.1399997369446632e+01 +1.1766592756792481e-03 +0.0000000000000000e+00 +9.9999930773623458e-01
-1.1499999999999975e+01 +9.1394749380999194e+00 +0.0000000000000000e+00 -1.1499997299611186e+01 +1.1869816047644106e-03 +0.0000000000000000e+00 +9.9999929553708655e-01
-1.1599999999999975e+01 +9.1393557238211418e+00 +0.0000000000000000e+00 -1.1599997228550496e+01 +1.1973039783651524e-03 +0.0000000000000000e+00 +9.9999928323133458e-01
-1.1699999999999974e+01 +9.1392354773027016e+00 +0.0000000000000000e+00 -1.1699997156253900e+01 +1.2076263982869315e-03 +0.0000000000000000e+00 +9.9999927081897499e-01
