# field on trajectory
# s[mm] rx[mm] ry[mm] rz[mm] bx[T] by[T] bz[T]
0.0000000000000000e+00 +9.0449999999999999e+00 +0.0000000000000000e+00 +0.0000000000000000e+00 +2.8014443696164925e-03 -5.1463125419483675e-02 -4.2673620828780230e-04
1.0000000000000001e-01 +9.0449994835538021e+00 +0.0000000000000000e+00 +9.9999999998221900e-02 +2.8014097791727952e-03 -5.1463162416361140e-02 -4.2674895514190574e-04
2.0000000000000001e-01 +9.0449979342147078e+00 +0.0000000000000000e+00 +1.9999999998577511e-01 +2.8013749181729241e-03 -5.1463200765387289e-02 -4.2676186822760754e-04
3.0000000000000004e-01 +9.0449953519819477e+00 +0.0000000000000000e+00 +2.9999999995199095e-01 +2.8013398175120580e-03 -5.1463240386779442e-02 -4.2677490258310086e-04
4.0000000000000002e-01 +9.0449917368547261e+00 +0.0000000000000000e+00 +3.9999999988620072e-01 +2.8013045080815058e-03 -5.1463281200756460e-02 -4.2678801325022957e-04
5.0000000000000000e-01 +9.0449870888322259e+00 +0.0000000000000000e+00 +4.9999999977773563e-01 +2.8012690207699074e-03 -5.1463323127537250e-02 -4.2680115527388949e-04
5.9999999999999998e-01 +9.0449814079136051e+00 +0.0000000000000000e+00 +5.9999999961592687e-01 +2.8012333864644379e-03 -5.1463366087339285e-02 -4.2681428370142766e-04
6.9999999999999996e-01 +9.0449746940980020e+00 +0.0000000000000000e+00 +6.9999999939010571e-01 +2.8011976360520123e-03 -5.1463410000377109e-02 -4.2682735358204381e-04
7.9999999999999993e-01 +9.0449669473845375e+00 +0.0000000000000000e+00 +7.9999999908960329e-01 +2.8011618004204915e-03 -5.1463454786860957e-02 -4.2684031996619102e-04
8.9999999999999991e-01 +9.0449581677723128e+00 +0.0000000000000000e+00 +8.9999999870375080e-01 +2.8011259104598839e-03 -5.1463500366995145e-02 -4.2685313790497546e-04
9.9999999999999989e-01 +9.0449483552604146e+00 +0.0000000000000000e+00 +9.9999999822187935e-01 +2.8010899970635538e-03 -5.1463546660976786e-02 -4.2686576244955826e-04
1.0999999999999999e+00 +9.0449375098479141e+00 +0.0000000000000000e+00 +1.0999999976333199e+00 +2.8010540911294199e-03 -5.1463593588994175e-02 -4.2687814865055481e-04
1.2000000000000000e+00 +9.0449256315338715e+00 +0.0000000000000000e+00 +1.1999999969274036e+00 +2.8010182235611650e-03 -5.1463641071225391e-02 -4.2689025155743675e-04
1.3000000000000000e+00 +9.0449127203173347e+00 +0.0000000000000000e+00 +1.2999999960934614e+00 +2.8009824252694417e-03 -5.1463689027836809e-02 -4.2690202621793136e-04
1.4000000000000001e+00 +9.0448987761973427e+00 +0.0000000000000000e+00 +1.3999999951208244e+00 +2.8009467271730673e-03 -5.1463737378981626e-02 -4.2691342767742300e-04
1.5000000000000002e+00 +9.0448837991729274e+00 +0.0000000000000000e+00 +1.4999999939988236e+00 +2.8009111602002386e-03 -5.1463786044798385e-02 -4.2692441097835331e-04
1.6000000000000003e+00 +9.0448677892431135e+00 +0.0000000000000000e+00 +1.5999999927167898e+00 +2.8008757552897365e-03 -5.1463834945409632e-02 -4.2693493115962279e-04
1.7000000000000004e+00 +9.0448507464069205e+00 +0.0000000000000000e+00 +1.6999999912640540e+00 +2.8008405433921205e-03 -5.1463884000920210e-02 -4.2694494325599063e-04
1.8000000000000005e+00 +9.0448326706633679e+00 +0.0000000000000000e+00 +1.7999999896299470e+00 +2.8008055554709461e-03 -5.1463933131416006e-02 -4.2695440229747577e-04
1.9000000000000006e+00 +9.0448135620114698e+00 +0.0000000000000000e+00 +1.8999999878037996e+00 +2.8007708225039614e-03 -5.1463982256962422e-02 -4.2696326330875797e-04
2.0000000000000004e+00 +9.0447934204502420e+00 +0.0000000000000000e+00 +1.9999999857749426e+00 +2.8007363754843167e-03 -5.1464031297602839e-02 -4.2697148130857817e-04
2.1000000000000005e+00 +9.0447722459787041e+00 +0.0000000000000000e+00 +2.0999999835327068e+00 +2.8007022563166823e-03 -5.1464080206895281e-02 -4.2697902598811126e-04
2.2000000000000006e+00 +9.0447500385958755e+00 +0.0000000000000000e+00 +2.1999999810664228e+00 +2.8006685504981632e-03 -5.1464129072529959e-02 -4.2698592574937500e-04
2.3000000000000007e+00 +9.0447267983007791e+00 +0.0000000000000000e+00 +2.2999999783654217e+00 +2.8006353544250367e-03 -5.1464178015722367e-02 -4.2699222367164843e-04
2.4000000000000008e+00 +9.0447025250924327e+00 +0.0000000000000000e+00 +2.3999999754190338e+00 +2.8006027644960798e-03 -5.1464227157676616e-02 -4.2699796283309193e-04
2.5000000000000009e+00 +9.0446772189698539e+00 +0.0000000000000000e+00 +2.4999999722165898e+00 +2.8005708771120072e-03 -5.1464276619585511e-02 -4.2700318631086974e-04
2.6000000000000010e+00 +9.0446508799320515e+00 +0.0000000000000000e+00 +2.5999999687474205e+00 +2.8005397886748983e-03 -5.1464326522630777e-02 -4.2700793718127163e-04
2.7000000000000011e+00 +9.0446235079780273e+00 +0.0000000000000000e+00 +2.6999999650008566e+00 +2.8005095955876283e-03 -5.1464376987983181e-02 -4.2701225851983629e-04
2.8000000000000012e+00 +9.0445951031067704e+00 +0.0000000000000000e+00 +2.7999999609662285e+00 +2.8004803942533081e-03 -5.1464428136802777e-02 -4.2701619340147312e-04
2.9000000000000012e+00 +9.0445656653172577e+00 +0.0000000000000000e+00 +2.8999999566328665e+00 +2.8004522810747110e-03 -5.1464480090238955e-02 -4.2701978490058468e-04
3.0000000000000013e+00 +9.0445351946084482e+00 +0.0000000000000000e+00 +2.9999999519901013e+00 +2.8004253524537052e-03 -5.1464532969430751e-02 -4.2702307609118880e-04
3.1000000000000014e+00 +9.0445036909792851e+00 +0.0000000000000000e+00 +3.0999999470272632e+00 +2.8003997047906901e-03 -5.1464586895506946e-02 -4.2702611004704179e-04
3.2000000000000015e+00 +9.0444711544286882e+00 +0.0000000000000000e+00 +3.1999999417336831e+00 +2.8003754344840255e-03 -5.1464641989586175e-02 -4.2702892984175945e-04
3.3000000000000016e+00 +9.0444375849555563e+00 +0.0000000000000000e+00 +3.2999999360986907e+00 +2.8003526379294630e-03 -5.1464698372777236e-02 -4.2703157854894028e-04
3.4000000000000017e+00 +9.0444029825587613e+00 +0.0000000000000000e+00 +3.3999999301116168e+00 +2.8003314115195824e-03 -5.1464756166179140e-02 -4.2703409924228775e-04
3.5000000000000018e+00 +9.0443673472371451e+00 +0.0000000000000000e+00 +3.4999999237617914e+00 +2.8003118516432201e-03 -5.1464815490881381e-02 -4.2703653499573141e-04
3.6000000000000019e+00 +9.0443306789895210e+00 +0.0000000000000000e+00 +3.5999999170385446e+00 +2.8002940546848977e-03 -5.1464876467963966e-02 -4.2703892888355018e-04
3.7000000000000020e+00 +9.0442929778146688e+00 +0.0000000000000000e+00 +3.6999999099312069e+00 +2.8002781170242638e-03 -5.1464939218497749e-02 -4.2704132398049469e-04
3.8000000000000020e+00 +9.0442542437113342e+00 +0.0000000000000000e+00 +3.7999999024291080e+00 +2.8002641350355155e-03 -5.1465003863544426e-02 -4.2704376336190781e-04
3.9000000000000021e+00 +9.0442144766782224e+00 +0.0000000000000000e+00 +3.8999998945215784e+00 +2.8002522050868364e-03 -5.1465070524156886e-02 -4.2704629010384838e-04
4.0000000000000018e+00 +9.0441736767139993e+00 +0.0000000000000000e+00 +3.9999998861979482e+00 +2.8002424235398214e-03 -5.1465139321379187e-02 -4.2704894728321191e-04
4.1000000000000014e+00 +9.0441318438172900e+00 +0.0000000000000000e+00 +4.0999998774475470e+00 +2.8002348445933523e-03 -5.1465210322302266e-02 -4.2705177277037462e-04
4.2000000000000011e+00 +9.0440889779866733e+00 +0.0000000000000000e+00 +4.1999998682597051e+00 +2.8002293538133072e-03 -5.1465283378233917e-02 -4.2705478361010812e-04
4.3000000000000007e+00 +9.0440450792206875e+00 +0.0000000000000000e+00 +4.2999998586237513e+00 +2.8002257945945203e-03 -5.1465358286541876e-02 -4.2705799165022092e-04
4.4000000000000004e+00 +9.0440001475178331e+00 +0.0000000000000000e+00 +4.3999998485290170e+00 +2.8002240103150301e-03 -5.1465434844600665e-02 -4.2706140875058872e-04
4.5000000000000000e+00 +9.0439541828765808e+00 +0.0000000000000000e+00 +4.4999998379648307e+00 +2.8002238443350733e-03 -5.1465512849792790e-02 -4.2706504678387161e-04
4.5999999999999996e+00 +9.0439071852953692e+00 +0.0000000000000000e+00 +4.5999998269205227e+00 +2.8002251399960841e-03 -5.1465592099509724e-02 -4.2706891763623453e-04
4.6999999999999993e+00 +9.0438591547726137e+00 +0.0000000000000000e+00 +4.6999998153854214e+00 +2.8002277406196717e-03 -5.1465672391152809e-02 -4.2707303320806475e-04
4.7999999999999989e+00 +9.0438100913067068e+00 +0.0000000000000000e+00 +4.7999998033488573e+00 +2.8002314895066282e-03 -5.1465753522134332e-02 -4.2707740541469134e-04
4.8999999999999986e+00 +9.0437599948960266e+00 +0.0000000000000000e+00 +4.8999997908001598e+00 +2.8002362299359078e-03 -5.1465835289878602e-02 -4.2708204618710358e-04
4.9999999999999982e+00 +9.0437088655389388e+00 +0.0000000000000000e+00 +4.9999997777286582e+00 +2.8002418051636239e-03 -5.1465917491822805e-02 -4.2708696747266998e-04
5.0999999999999979e+00 +9.0436567032337987e+00 +0.0000000000000000e+00 +5.0999997641236821e+00 +2.8002480584220419e-03 -5.1465999925418116e-02 -4.2709218123585646e-04
5.1999999999999975e+00 +9.0436035079789558e+00 +0.0000000000000000e+00 +5.1999997499745607e+00 +2.8002548329185708e-03 -5.1466082388130649e-02 -4.2709769945894566e-04
5.2999999999999972e+00 +9.0435492797727637e+00 +0.0000000000000000e+00 +5.2999997352706236e+00 +2.8002619718347560e-03 -5.1466164677442500e-02 -4.2710353414275522e-04
5.3999999999999968e+00 +9.0434940186135755e+00 +0.0000000000000000e+00 +5.3999997200011993e+00 +2.8002693183252687e-03 -5.1466246590852784e-02 -4.2710969730735639e-04
5.4999999999999964e+00 +9.0434377244997535e+00 +0.0000000000000000e+00 +5.4999997041556172e+00 +2.8002767155169018e-03 -5.1466327925878540e-02 -4.2711620099279284e-04
5.5999999999999961e+00 +9.0433803974296723e+00 +0.0000000000000000e+00 +5.5999996877232068e+00 +2.8002840065075637e-03 -5.1466408480055834e-02 -4.2712305725979940e-04
5.6999999999999957e+00 +9.0433220374017207e+00 +0.0000000000000000e+00 +5.6999996706932965e+00 +2.8002910343652649e-03 -5.1466488050940763e-02 -4.2713027819052033e-04
5.7999999999999954e+00 +9.0432626444143089e+00 +0.0000000000000000e+00 +5.7999996530552158e+00 +2.8002976421271195e-03 -5.1466566436110410e-02 -4.2713787588922808e-04
5.8999999999999950e+00 +9.0432022184658702e+00 +0.0000000000000000e+00 +5.8999996347982933e+00 +2.8003036727983293e-03 -5.1466643433163879e-02 -4.2714586248304145e-04
5.9999999999999947e+00 +9.0431407595548663e+00 +0.0000000000000000e+00 +5.9999996159118583e+00 +2.8003089693511849e-03 -5.1466718839723362e-02 -4.2715425012264483e-04
6.0999999999999943e+00 +9.0430782676797890e+00 +0.0000000000000000e+00 +6.0999995963852394e+00 +2.8003134128076301e-03 -5.1466792498182860e-02 -4.2716304791745640e-04
6.1999999999999940e+00 +9.0430147428391674e+00 +0.0000000000000000e+00 +6.1999995762077660e+00 +2.8003170365072374e-03 -5.1466864429958022e-02 -4.2717225272419251e-04
6.2999999999999936e+00 +9.0429501850315663e+00 +0.0000000000000000e+00 +6.2999995553687667e+00 +2.8003199118843665e-03 -5.1466934701248718e-02 -4.2718185831657705e-04
6.3999999999999932e+00 +9.0428845942555807e+00 +0.0000000000000000e+00 +6.3999995338575699e+00 +2.8003221103887312e-03 -5.1467003378292395e-02 -4.2719185844605772e-04
6.4999999999999929e+00 +9.0428179705098390e+00 +0.0000000000000000e+00 +6.4999995116635052e+00 +2.8003237034864093e-03 -5.1467070527365551e-02 -4.2720224684065291e-04
6.5999999999999925e+00 +9.0427503137930003e+00 +0.0000000000000000e+00 +6.5999994887759010e+00 +2.8003247626608358e-03 -5.1467136214785041e-02 -4.2721301720379375e-04
6.6999999999999922e+00 +9.0426816241037535e+00 +0.0000000000000000e+00 +6.6999994651840868e+00 +2.8003253594138097e-03 -5.1467200506909568e-02 -4.2722416321317038e-04
6.7999999999999918e+00 +9.0426119014408144e+00 +0.0000000000000000e+00 +6.7999994408773903e+00 +2.8003255652664953e-03 -5.1467263470141134e-02 -4.2723567851957618e-04
6.8999999999999915e+00 +9.0425411458029288e+00 +0.0000000000000000e+00 +6.8999994158451408e+00 +2.8003254517604201e-03 -5.1467325170926233e-02 -4.2724755674575140e-04
6.9999999999999911e+00 +9.0424693571888639e+00 +0.0000000000000000e+00 +6.9999993900766677e+00 +2.8003250904584838e-03 -5.1467385675757572e-02 -4.2725979148522885e-04
7.0999999999999908e+00 +9.0423965355974136e+00 +0.0000000000000000e+00 +7.0999993635612988e+00 +2.8003245529459497e-03 -5.1467445051175231e-02 -4.2727237630117731e-04
7.1999999999999904e+00 +9.0423226810273949e+00 +0.0000000000000000e+00 +7.1999993362883625e+00 +2.8003239108314528e-03 -5.1467503363768152e-02 -4.2728530472524630e-04
7.2999999999999901e+00 +9.0422477934776442e+00 +0.0000000000000000e+00 +7.2999993082471883e+00 +2.8003232357479949e-03 -5.1467560680175613e-02 -4.2729857025641018e-04
7.3999999999999897e+00 +9.0421718729470175e+00 +0.0000000000000000e+00 +7.3999992794271048e+00 +2.8003225993539493e-03 -5.1467617067088488e-02 -4.2731216635981287e-04
7.4999999999999893e+00 +9.0420949194343940e+00 +0.0000000000000000e+00 +7.4999992498174404e+00 +2.8003220733340611e-03 -5.1467672591250797e-02 -4.2732608646561181e-04
7.5999999999999890e+00 +9.0420169329386653e+00 +0.0000000000000000e+00 +7.5999992194075237e+00 +2.8003217294004447e-03 -5.1467727319461087e-02 -4.2734032396782171e-04
7.6999999999999886e+00 +9.0419379134587423e+00 +0.0000000000000000e+00 +7.6999991881866832e+00 +2.8003216392935835e-03 -5.1467781318573741e-02 -4.2735487222315976e-04
7.7999999999999883e+00 +9.0418578609935487e+00 +0.0000000000000000e+00 +7.7999991561442474e+00 +2.8003218747833314e-03 -5.1467834655500422e-02 -4.2736972454988860e-04
7.8999999999999879e+00 +9.0417767755420222e+00 +0.0000000000000000e+00 +7.8999991232695450e+00 +2.8003225076699135e-03 -5.1467887397211677e-02 -4.2738487422666149e-04
7.9999999999999876e+00 +9.0416946571031147e+00 +0.0000000000000000e+00 +7.9999990895519044e+00 +2.8003236097849178e-03 -5.1467939610737992e-02 -4.2740031449136511e-04
8.0999999999999872e+00 +9.0416115056757853e+00 +0.0000000000000000e+00 +8.0999990549806551e+00 +2.8003252460091907e-03 -5.1467991367502429e-02 -4.2741602852435564e-04
8.1999999999999869e+00 +9.0415273212590037e+00 +0.0000000000000000e+00 +8.1999990195451247e+00 +2.8003274533157617e-03 -5.1468042756277754e-02 -4.2743195941809259e-04
8.2999999999999865e+00 +9.0414421038517485e+00 +0.0000000000000000e+00 +8.2999989832346408e+00 +2.8003302617063052e-03 -5.1468093870127692e-02 -4.2744804025688374e-04
8.3999999999999861e+00 +9.0413558534530019e+00 +0.0000000000000000e+00 +8.3999989460385329e+00 +2.8003337011929530e-03 -5.1468144802064332e-02 -4.2746420413820229e-04
8.4999999999999858e+00 +9.0412685700617512e+00 +0.0000000000000000e+00 +8.4999989079461287e+00 +2.8003378017985628e-03 -5.1468195645046289e-02 -4.2748038417325922e-04
8.5999999999999854e+00 +9.0411802536769841e+00 +0.0000000000000000e+00 +8.5999988689467575e+00 +2.8003425935569860e-03 -5.1468246491976503e-02 -4.2749651348757259e-04
8.6999999999999851e+00 +9.0410909042976897e+00 +0.0000000000000000e+00 +8.6999988290297470e+00 +2.8003481065133409e-03 -5.1468297435700291e-02 -4.2751252522153945e-04
8.7999999999999847e+00 +9.0410005219228555e+00 +0.0000000000000000e+00 +8.7999987881844248e+00 +2.8003543707242765e-03 -5.1468348569003189e-02 -4.2752835253100682e-04
8.8999999999999844e+00 +9.0409091065514655e+00 +0.0000000000000000e+00 +8.8999987464001205e+00 +2.8003614162582465e-03 -5.1468399984609087e-02 -4.2754392858784351e-04
8.9999999999999840e+00 +9.0408166581824965e+00 +0.0000000000000000e+00 +8.9999987036661615e+00 +2.8003692731957807e-03 -5.1468451775178004e-02 -4.2755918658051232e-04
9.0999999999999837e+00 +9.0407231768149181e+00 +0.0000000000000000e+00 +9.0999986599718774e+00 +2.8003779716297438e-03 -5.1468504033304094e-02 -4.2757405971464139e-04
9.1999999999999833e+00 +9.0406286624476913e+00 +0.0000000000000000e+00 +9.1999986153065940e+00 +2.8003875416656204e-03 -5.1468556851513726e-02 -4.2758848121359812e-04
9.2999999999999829e+00 +9.0405331150797679e+00 +0.0000000000000000e+00 +9.2999985696596408e+00 +2.8003980134217706e-03 -5.1468610322263221e-02 -4.2760238431906032e-04
9.3999999999999826e+00 +9.0404365347100821e+00 +0.0000000000000000e+00 +9.3999985230203471e+00 +2.8004094170297079e-03 -5.1468664537937046e-02 -4.2761570229159072e-04
9.4999999999999822e+00 +9.0403389213375576e+00 +0.0000000000000000e+00 +9.4999984753780389e+00 +2.8004217826343666e-03 -5.1468719590845514e-02 -4.2762836841121017e-04
9.5999999999999819e+00 +9.0402402749610999e+00 +0.0000000000000000e+00 +9.5999984267220437e+00 +2.8004351403943684e-03 -5.1468775573222936e-02 -4.2764031597797075e-04
9.6999999999999815e+00 +9.0401405955795955e+00 +0.0000000000000000e+00 +9.6999983770416911e+00 +2.8004495204822983e-03 -5.1468832577225523e-02 -4.2765147831253045e-04
9.7999999999999812e+00 +9.0400398831919091e+00 +0.0000000000000000e+00 +9.7999983263263086e+00 +2.8004649530849711e-03 -5.1468890694929270e-02 -4.2766178875672782e-04
9.8999999999999808e+00 +9.0399381377968862e+00 +0.0000000000000000e+00 +9.8999982745652240e+00 +2.8004814684036957e-03 -5.1468950018328012e-02 -4.2767118067415589e-04
9.9999999999999805e+00 +9.0398353593933471e+00 +0.0000000000000000e+00 +9.9999982217477648e+00 +2.8004990966545565e-03 -5.1469010639331292e-02 -4.2767958745073870e-04
1.0099999999999980e+01 +9.0397315479800859e+00 +0.0000000000000000e+00 +1.0099998167863259e+01 +2.8005178405870615e-03 -5.1469072604679832e-02 -4.2768695750403611e-04
1.0199999999999980e+01 +9.0396267035558697e+00 +0.0000000000000000e+00 +1.0199998112901033e+01 +2.8005375930351926e-03 -5.1469135780719780e-02 -4.2769329930300262e-04
1.0299999999999979e+01 +9.0395208261194426e+00 +0.0000000000000000e+00 +1.0299998056850415e+01 +2.8005582193680783e-03 -5.1469199988712369e-02 -4.2769863632255163e-04
1.0399999999999979e+01 +9.0394139156695275e+00 +0.0000000000000000e+00 +1.0399997999700732e+01 +2.8005795849752870e-03 -5.1469265049929727e-02 -4.2770299203052101e-04
1.0499999999999979e+01 +9.0393059722048292e+00 +0.0000000000000000e+00 +1.0499997941441313e+01 +2.8006015552672122e-03 -5.1469330785655590e-02 -4.2770638988748859e-04
1.0599999999999978e+01 +9.0391969957240423e+00 +0.0000000000000000e+00 +1.0599997882061484e+01 +2.8006239956754513e-03 -5.1469397017185489e-02 -4.2770885334658405e-04
1.0699999999999978e+01 +9.0390869862258469e+00 +0.0000000000000000e+00 +1.0699997821550571e+01 +2.8006467716532018e-03 -5.1469463565827267e-02 -4.2771040585330472e-04
1.0799999999999978e+01 +9.0389759437089214e+00 +0.0000000000000000e+00 +1.0799997759897906e+01 +2.8006697486756328e-03 -5.1469530252901546e-02 -4.2771107084532857e-04
1.0899999999999977e+01 +9.0388638681719389e+00 +0.0000000000000000e+00 +1.0899997697092811e+01 +2.8006927922402821e-03 -5.1469596899742030e-02 -4.2771087175232797e-04
1.0999999999999977e+01 +9.0387507596135741e+00 +0.0000000000000000e+00 +1.0999997633124616e+01 +2.8007157678674377e-03 -5.1469663327696112e-02 -4.2770983199578354e-04
1.1099999999999977e+01 +9.0386366180325055e+00 +0.0000000000000000e+00 +1.1099997567982648e+01 +2.8007385411005243e-03 -5.1469729358125146e-02 -4.2770797498879748e-04
1.1199999999999976e+01 +9.0385214434274204e+00 +0.0000000000000000e+00 +1.1199997501656233e+01 +2.8007609775064900e-03 -5.1469794812404990e-02 -4.2770532413590791e-04
1.1299999999999976e+01 +9.0384052357970184e+00 +0.0000000000000000e+00 +1.1299997434134699e+01 +2.8007829426761970e-03 -5.1469859511926355e-02 -4.2770190283290122e-04
1.1399999999999975e+01 +9.0382879951400135e+00 +0.0000000000000000e+00 +1.1399997365407373e+01 +2.8008043022248021e-03 -5.1469923278095291e-02 -4.2769773446662591e-04
1.1499999999999975e+01 +9.0381697214551373e+00 +0.0000000000000000e+00 +1.1499997295463581e+01 +2.8008249217921521e-03 -5.1469985932333581e-02 -4.2769284241480607e-04
1.1599999999999975e+01 +9.0380504147411465e+00 +0.0000000000000000e+00 +1.1599997224292650e+01 +2.8008446670431688e-03 -5.1470047296079222e-02 -4.2768725004585441e-04
1.1699999999999974e+01 +9.0379300749968223e+00 +0.0000000000000000e+00 +1.1699997151883910e+01 +2.8008634036682371e-03 -5.1470107190786860e-02 -4.2768098071868503e-04
1.1799999999999974e+01 +9.0378087022209765e+00 +0.0000000000000000e+00 +1.1799997078226685e+01 +2.8008809973835988e-03 -5.1470165437928116e-02 -4.2767405778252709e-04
