# field on trajectory
# s[mm] rx[mm] ry[mm] rz[mm] bx[T] by[T] bz[T]
0.0000000000000000e+00 +9.1013000000000002e+00 +0.0000000000000000e+00 +0.0000000000000000e+00 +9.0884667435438896e-03 -1.7036912634073656e-01 +8.7888538722340724e-04
1.0000000000000001e-01 +9.1012994847439845e+00 +0.0000000000000000e+00 +9.9999999998230060e-02 +9.0883447861217180e-03 -1.7036915849159795e-01 +8.7890110207815243e-04
2.0000000000000001e-01 +9.1012979389758026e+00 +0.0000000000000000e+00 +1.9999999998584056e-01 +9.0882245291558448e-03 -1.7036919457235339e-01 +8.7891899246184211e-04
3.0000000000000004e-01 +9.1012953626952360e+00 +0.0000000000000000e+00 +2.9999999995221194e-01 +9.0881060516319855e-03 -1.7036923461839273e-01 +8.7893883935004585e-04
4.0000000000000002e-01 +9.1012917559020430e+00 +0.0000000000000000e+00 +3.9999999988672463e-01 +9.0879894325338623e-03 -1.7036927866508830e-01 +8.7896042371828249e-04
5.0000000000000000e-01 +9.1012871185959590e+00 +0.0000000000000000e+00 +4.9999999977875909e-01 +9.0878747508432185e-03 -1.7036932674779962e-01 +8.7898352654198423e-04
5.9999999999999998e-01 +9.1012814507766926e+00 +0.0000000000000000e+00 +5.9999999961769568e-01 +9.0877620855397741e-03 -1.7036937890187687e-01 +8.7900792879645360e-04
6.9999999999999996e-01 +9.1012747524439277e+00 +0.0000000000000000e+00 +6.9999999939291491e-01 +9.0876515156012184e-03 -1.7036943516266606e-01 +8.7903341145682899e-04
7.9999999999999993e-01 +9.1012670235973268e+00 +0.0000000000000000e+00 +7.9999999909379704e-01 +9.0875431200031984e-03 -1.7036949556551262e-01 +8.7905975549804104e-04
8.9999999999999991e-01 +9.1012582642365238e+00 +0.0000000000000000e+00 +8.9999999870972258e-01 +9.0874369777193039e-03 -1.7036956014576601e-01 +8.7908674189477733e-04
9.9999999999999989e-01 +9.1012484743611299e+00 +0.0000000000000000e+00 +9.9999999823007180e-01 +9.0873331677210224e-03 -1.7036962893878382e-01 +8.7911415162144019e-04
1.0999999999999999e+00 +9.1012376539707294e+00 +0.0000000000000000e+00 +1.0999999976442250e+00 +9.0872317689777663e-03 -1.7036970197993609e-01 +8.7914176565211002e-04
1.2000000000000000e+00 +9.1012258030648816e+00 +0.0000000000000000e+00 +1.1999999969415627e+00 +9.0871328604568164e-03 -1.7036977930460967e-01 +8.7916936496050546e-04
1.3000000000000000e+00 +9.1012129216431212e+00 +0.0000000000000000e+00 +1.2999999961114650e+00 +9.0870365211233317e-03 -1.7036986094821222e-01 +8.7919673051994386e-04
1.4000000000000001e+00 +9.1011990097049544e+00 +0.0000000000000000e+00 +1.3999999951433124e+00 +9.0869428299403081e-03 -1.7036994694617669e-01 +8.7922364330330282e-04
1.5000000000000002e+00 +9.1011840672498625e+00 +0.0000000000000000e+00 +1.4999999940264850e+00 +9.0868518658685851e-03 -1.7037003733396550e-01 +8.7924988428298215e-04
1.6000000000000003e+00 +9.1011680942773019e+00 +0.0000000000000000e+00 +1.5999999927503632e+00 +9.0867637078668167e-03 -1.7037013214707475e-01 +8.7927523443086426e-04
1.7000000000000004e+00 +9.1011510907866988e+00 +0.0000000000000000e+00 +1.6999999913043271e+00 +9.0866784348914448e-03 -1.7037023142103869e-01 +8.7929947471827548e-04
1.8000000000000005e+00 +9.1011330567774564e+00 +0.0000000000000000e+00 +1.7999999896777572e+00 +9.0865961258967034e-03 -1.7037033519143374e-01 +8.7932238611594801e-04
1.9000000000000006e+00 +9.1011139922489477e+00 +0.0000000000000000e+00 +1.8999999878600335e+00 +9.0865168598345813e-03 -1.7037044349388283e-01 +8.7934374959398138e-04
2.0000000000000004e+00 +9.1010938972005189e+00 +0.0000000000000000e+00 +1.9999999858405362e+00 +9.0864407156548178e-03 -1.7037055636405971e-01 +8.7936334612180361e-04
2.1000000000000005e+00 +9.1010727716314914e+00 +0.0000000000000000e+00 +2.0999999836086451e+00 +9.0863677569308042e-03 -1.7037067381985702e-01 +8.7938101534371853e-04
2.2000000000000006e+00 +9.1010506155411548e+00 +0.0000000000000000e+00 +2.1999999811537410e+00 +9.0862979857390530e-03 -1.7037079580786677e-01 +8.7939683160734663e-04
2.3000000000000007e+00 +9.1010274289287754e+00 +0.0000000000000000e+00 +2.2999999784652037e+00 +9.0862313887848118e-03 -1.7037092225686226e-01 +8.7941092793987843e-04
2.4000000000000008e+00 +9.1010032117935911e+00 +0.0000000000000000e+00 +2.3999999755324128e+00 +9.0861679527771532e-03 -1.7037105309562936e-01 +8.7942343737334549e-04
2.5000000000000009e+00 +9.1009779641348114e+00 +0.0000000000000000e+00 +2.4999999723447490e+00 +9.0861076644295803e-03 -1.7037118825296518e-01 +8.7943449294514890e-04
2.6000000000000010e+00 +9.1009516859516228e+00 +0.0000000000000000e+00 +2.5999999688915918e+00 +9.0860505104606130e-03 -1.7037132765767679e-01 +8.7944422769858617e-04
2.7000000000000011e+00 +9.1009243772431834e+00 +0.0000000000000000e+00 +2.6999999651623217e+00 +9.0859964775944040e-03 -1.7037147123857985e-01 +8.7945277468337937e-04
2.8000000000000012e+00 +9.1008960380086297e+00 +0.0000000000000000e+00 +2.7999999611463182e+00 +9.0859455525613142e-03 -1.7037161892449759e-01 +8.7946026695620409e-04
2.9000000000000012e+00 +9.1008666682470700e+00 +0.0000000000000000e+00 +2.8999999568329611e+00 +9.0858977220985345e-03 -1.7037177064425946e-01 +8.7946683758121410e-04
3.0000000000000013e+00 +9.1008362679575896e+00 +0.0000000000000000e+00 +2.9999999522116303e+00 +9.0858529729506525e-03 -1.7037192632669940e-01 +8.7947261963057153e-04
3.1000000000000014e+00 +9.1008048371392505e+00 +0.0000000000000000e+00 +3.0999999472717059e+00 +9.0858112918702928e-03 -1.7037208590065545e-01 +8.7947774618497301e-04
3.2000000000000015e+00 +9.1007723757910917e+00 +0.0000000000000000e+00 +3.1999999420025675e+00 +9.0857726656186789e-03 -1.7037224929496766e-01 +8.7948235033417715e-04
3.3000000000000016e+00 +9.1007388839121273e+00 +0.0000000000000000e+00 +3.2999999363935952e+00 +9.0857370809662493e-03 -1.7037241643847725e-01 +8.7948656517753136e-04
3.4000000000000017e+00 +9.1007043615013501e+00 +0.0000000000000000e+00 +3.3999999304341681e+00 +9.0857045246932420e-03 -1.7037258726002516e-01 +8.7949052382449856e-04
3.5000000000000018e+00 +9.1006688085577316e+00 +0.0000000000000000e+00 +3.4999999241136663e+00 +9.0856749835903101e-03 -1.7037276168845103e-01 +8.7949435939518514e-04
3.6000000000000019e+00 +9.1006322250802185e+00 +0.0000000000000000e+00 +3.5999999174214694e+00 +9.0856484444591136e-03 -1.7037293965259154e-01 +8.7949820502086621e-04
3.7000000000000020e+00 +9.1005946110677396e+00 +0.0000000000000000e+00 +3.6999999103469570e+00 +9.0856248941129144e-03 -1.7037312108127936e-01 +8.7950219384451184e-04
3.8000000000000020e+00 +9.1005559665192024e+00 +0.0000000000000000e+00 +3.7999999028795086e+00 +9.0856043193771625e-03 -1.7037330590334207e-01 +8.7950645902131570e-04
3.9000000000000021e+00 +9.1005162914334914e+00 +0.0000000000000000e+00 +3.8999998950085035e+00 +9.0855867070901205e-03 -1.7037349404760038e-01 +8.7951113371921769e-04
4.0000000000000018e+00 +9.1004755858094732e+00 +0.0000000000000000e+00 +3.9999998867233217e+00 +9.0855720441034484e-03 -1.7037368544286743e-01 +8.7951635111943268e-04
4.1000000000000014e+00 +9.1004338496459951e+00 +0.0000000000000000e+00 +4.0999998780133424e+00 +9.0855603182957712e-03 -1.7037388000069520e-01 +8.7952222733138482e-04
4.2000000000000011e+00 +9.1003910829418846e+00 +0.0000000000000000e+00 +4.1999998688679447e+00 +9.0855515216031781e-03 -1.7037407756361519e-01 +8.7952881012886598e-04
4.3000000000000007e+00 +9.1003472856959515e+00 +0.0000000000000000e+00 +4.2999998592765083e+00 +9.0855456469644616e-03 -1.7037427795688828e-01 +8.7953613019396194e-04
4.4000000000000004e+00 +9.1003024579069880e+00 +0.0000000000000000e+00 +4.3999998492284123e+00 +9.0855426873049008e-03 -1.7037448100575381e-01 +8.7954421820017766e-04
4.5000000000000000e+00 +9.1002565995737701e+00 +0.0000000000000000e+00 +4.4999998387130358e+00 +9.0855426355353000e-03 -1.7037468653542873e-01 +8.7955310481163684e-04
4.5999999999999996e+00 +9.1002097106950615e+00 +0.0000000000000000e+00 +4.5999998277197580e+00 +9.0855454845508842e-03 -1.7037489437110515e-01 +8.7956282068227547e-04
4.6999999999999993e+00 +9.1001617912696080e+00 +0.0000000000000000e+00 +4.6999998162379582e+00 +9.0855512272303342e-03 -1.7037510433794881e-01 +8.7957339645503918e-04
4.7999999999999989e+00 +9.1001128412961449e+00 +0.0000000000000000e+00 +4.7999998042570153e+00 +9.0855598564347183e-03 -1.7037531626109753e-01 +8.7958486276107969e-04
4.8999999999999986e+00 +9.1000628607733969e+00 +0.0000000000000000e+00 +4.8999997917663087e+00 +9.0855713650064736e-03 -1.7037552996565933e-01 +8.7959725021895187e-04
4.9999999999999982e+00 +9.1000118497000759e+00 +0.0000000000000000e+00 +4.9999997787552175e+00 +9.0855857457683917e-03 -1.7037574527671071e-01 +8.7961058943380858e-04
5.0999999999999979e+00 +9.0999598080748871e+00 +0.0000000000000000e+00 +5.0999997652131199e+00 +9.0856029915225619e-03 -1.7037596201929478e-01 +8.7962491099659898e-04
5.1999999999999975e+00 +9.0999067358965231e+00 +0.0000000000000000e+00 +5.1999997511293961e+00 +9.0856230950493670e-03 -1.7037618001842006e-01 +8.7964024548326544e-04
5.2999999999999972e+00 +9.0998526331636711e+00 +0.0000000000000000e+00 +5.2999997364934242e+00 +9.0856460491064439e-03 -1.7037639909905813e-01 +8.7965662345393803e-04
5.3999999999999968e+00 +9.0997974998750113e+00 +0.0000000000000000e+00 +5.3999997212945825e+00 +9.0856718464276502e-03 -1.7037661908614210e-01 +8.7967407545213509e-04
5.4999999999999964e+00 +9.0997413360292203e+00 +0.0000000000000000e+00 +5.4999997055222511e+00 +9.0857004797220454e-03 -1.7037683980456531e-01 +8.7969263200395715e-04
5.5999999999999961e+00 +9.0996841416249694e+00 +0.0000000000000000e+00 +5.5999996891658075e+00 +9.0857319416728505e-03 -1.7037706107917880e-01 +8.7971232361728526e-04
5.6999999999999957e+00 +9.0996259166609246e+00 +0.0000000000000000e+00 +5.6999996722146316e+00 +9.0857662249364292e-03 -1.7037728273479041e-01 +8.7973318078097835e-04
5.7999999999999954e+00 +9.0995666611357517e+00 +0.0000000000000000e+00 +5.7999996546581016e+00 +9.0858033221412407e-03 -1.7037750459616247e-01 +8.7975523396407128e-04
5.8999999999999950e+00 +9.0995063750481169e+00 +0.0000000000000000e+00 +5.8999996364855960e+00 +9.0858432258868367e-03 -1.7037772648801022e-01 +8.7977851361496979e-04
5.9999999999999947e+00 +9.0994450583966824e+00 +0.0000000000000000e+00 +5.9999996176864929e+00 +9.0858859287428068e-03 -1.7037794823500055e-01 +8.7980305016065153e-04
6.0999999999999943e+00 +9.0993827111801142e+00 +0.0000000000000000e+00 +6.0999995982501716e+00 +9.0859313946244896e-03 -1.7037816970098216e-01 +8.7982885324835785e-04
6.1999999999999940e+00 +9.0993193333970801e+00 +0.0000000000000000e+00 +6.1999995781660102e+00 +9.0859794729372338e-03 -1.7037839090670151e-01 +8.7985584947604899e-04
6.2999999999999936e+00 +9.0992549250462478e+00 +0.0000000000000000e+00 +6.2999995574233871e+00 +9.0860299844755139e-03 -1.7037861191213177e-01 +8.7988394467309727e-04
6.3999999999999932e+00 +9.0991894861262885e+00 +0.0000000000000000e+00 +6.3999995360116815e+00 +9.0860827500518319e-03 -1.7037883277724380e-01 +8.7991304465918842e-04
6.4999999999999929e+00 +9.0991230166358719e+00 +0.0000000000000000e+00 +6.4999995139202706e+00 +9.0861375904976970e-03 -1.7037905356200625e-01 +8.7994305524409055e-04
6.5999999999999925e+00 +9.0990555165736708e+00 +0.0000000000000000e+00 +6.5999994911385338e+00 +9.0861943266646022e-03 -1.7037927432638608e-01 +8.7997388222742668e-04
6.6999999999999922e+00 +9.0989869859383568e+00 +0.0000000000000000e+00 +6.6999994676558483e+00 +9.0862527794249998e-03 -1.7037949513034892e-01 +8.8000543139844540e-04
6.7999999999999918e+00 +9.0989174247286009e+00 +0.0000000000000000e+00 +6.7999994434615934e+00 +9.0863127696732653e-03 -1.7037971603385893e-01 +8.8003760853578878e-04
6.8999999999999915e+00 +9.0988468329430745e+00 +0.0000000000000000e+00 +6.8999994185451472e+00 +9.0863741183266986e-03 -1.7037993709687976e-01 +8.8007031940726631e-04
6.9999999999999911e+00 +9.0987752105804471e+00 +0.0000000000000000e+00 +6.9999993928958872e+00 +9.0864366463264679e-03 -1.7038015837937440e-01 +8.8010346976962232e-04
7.0999999999999908e+00 +9.0987025576393901e+00 +0.0000000000000000e+00 +7.0999993665031917e+00 +9.0865001746386221e-03 -1.7038037994130581e-01 +8.8013696536830906e-04
7.1999999999999904e+00 +9.0986288741185692e+00 +0.0000000000000000e+00 +7.1999993393564390e+00 +9.0865645242550301e-03 -1.7038060184263690e-01 +8.8017071193725318e-04
7.2999999999999901e+00 +9.0985541600166506e+00 +0.0000000000000000e+00 +7.2999993114450072e+00 +9.0866295161943760e-03 -1.7038082414333122e-01 +8.8020461519863042e-04
7.3999999999999897e+00 +9.0984784153322966e+00 +0.0000000000000000e+00 +7.3999992827582748e+00 +9.0866949715031342e-03 -1.7038104690335296e-01 +8.8023858086263022e-04
7.4999999999999893e+00 +9.0984016400641679e+00 +0.0000000000000000e+00 +7.4999992532856190e+00 +9.0867607112565512e-03 -1.7038127018266741e-01 +8.8027251462723024e-04
7.5999999999999890e+00 +9.0983238342109232e+00 +0.0000000000000000e+00 +7.5999992230164182e+00 +9.0868265565595997e-03 -1.7038149404124128e-01 +8.8030632217796299e-04
7.6999999999999886e+00 +9.0982449977712161e+00 +0.0000000000000000e+00 +7.6999991919400497e+00 +9.0868923285479762e-03 -1.7038171853904302e-01 +8.8033990918768765e-04
7.7999999999999883e+00 +9.0981651307436966e+00 +0.0000000000000000e+00 +7.7999991600458918e+00 +9.0869578483890705e-03 -1.7038194373604310e-01 +8.8037318131635749e-04
7.8999999999999879e+00 +9.0980842331270129e+00 +0.0000000000000000e+00 +7.8999991273233219e+00 +9.0870229372829407e-03 -1.7038216969221417e-01 +8.8040604421079055e-04
7.9999999999999876e+00 +9.0980023049198042e+00 +0.0000000000000000e+00 +7.9999990937617182e+00 +9.0870874164632916e-03 -1.7038239646753195e-01 +8.8043840350443938e-04
8.0999999999999872e+00 +9.0979193461207100e+00 +0.0000000000000000e+00 +8.0999990593504574e+00 +9.0871511495135421e-03 -1.7038262408683286e-01 +8.8047018757351819e-04
8.1999999999999869e+00 +9.0978353567283605e+00 +0.0000000000000000e+00 +8.1999990240789185e+00 +9.0872141693041225e-03 -1.7038285243439674e-01 +8.8050141581652022e-04
8.2999999999999865e+00 +9.0977503367413846e+00 +0.0000000000000000e+00 +8.2999989879364779e+00 +9.0872765510215652e-03 -1.7038308135939584e-01 +8.8053213039834875e-04
8.3999999999999861e+00 +9.0976642861584054e+00 +0.0000000000000000e+00 +8.3999989509125150e+00 +9.0873383698475176e-03 -1.7038331071104262e-01 +8.8056237349525565e-04
8.4999999999999858e+00 +9.0975772049780463e+00 +0.0000000000000000e+00 +8.4999989129964053e+00 +9.0873997009584609e-03 -1.7038354033859118e-01 +8.8059218729536783e-04
8.5999999999999854e+00 +9.0974890931989272e+00 +0.0000000000000000e+00 +8.5999988741775280e+00 +9.0874606195254296e-03 -1.7038377009133879e-01 +8.8062161399921339e-04
8.6999999999999851e+00 +9.0973999508196677e+00 +0.0000000000000000e+00 +8.6999988344452586e+00 +9.0875212007137558e-03 -1.7038399981862704e-01 +8.8065069582024937e-04
8.7999999999999847e+00 +9.0973097778388876e+00 +0.0000000000000000e+00 +8.7999987937889745e+00 +9.0875815196827785e-03 -1.7038422936984363e-01 +8.8067947498538630e-04
8.8999999999999844e+00 +9.0972185742552067e+00 +0.0000000000000000e+00 +8.8999987521980550e+00 +9.0876416515855724e-03 -1.7038445859442336e-01 +8.8070799373551629e-04
8.9999999999999840e+00 +9.0971263400672502e+00 +0.0000000000000000e+00 +8.9999987096618757e+00 +9.0877016715686827e-03 -1.7038468734184967e-01 +8.8073629432604023e-04
9.0999999999999837e+00 +9.0970330752736448e+00 +0.0000000000000000e+00 +9.0999986661698156e+00 +9.0877616547718303e-03 -1.7038491546165604e-01 +8.8076441902739332e-04
9.1999999999999833e+00 +9.0969387798730192e+00 +0.0000000000000000e+00 +9.1999986217112504e+00 +9.0878216763276547e-03 -1.7038514280342740e-01 +8.8079241012557275e-04
9.2999999999999829e+00 +9.0968434538640093e+00 +0.0000000000000000e+00 +9.2999985762755575e+00 +9.0878818113614354e-03 -1.7038536921680150e-01 +8.8082030992266494e-04
9.3999999999999826e+00 +9.0967470972452542e+00 +0.0000000000000000e+00 +9.3999985298521143e+00 +9.0879421349908170e-03 -1.7038559455147032e-01 +8.8084816073737420e-04
9.4999999999999822e+00 +9.0966497100154040e+00 +0.0000000000000000e+00 +9.4999984824302981e+00 +9.0880027223255323e-03 -1.7038581865718130e-01 +8.8087600490554727e-04
9.5999999999999819e+00 +9.0965512921731104e+00 +0.0000000000000000e+00 +9.5999984339994846e+00 +9.0880636484671120e-03 -1.7038604138373914e-01 +8.8090388478070404e-04
9.6999999999999815e+00 +9.0964518437170394e+00 +0.0000000000000000e+00 +9.6999983845490529e+00 +9.0881249885086390e-03 -1.7038626258100670e-01 +8.8093184273456242e-04
9.7999999999999812e+00 +9.0963513646458622e+00 +0.0000000000000000e+00 +9.7999983340683787e+00 +9.0881868175344566e-03 -1.7038648209890681e-01 +8.8095992115756945e-04
9.8999999999999808e+00 +9.0962498549582627e+00 +0.0000000000000000e+00 +9.8999982825468393e+00 +9.0882492106198875e-03 -1.7038669978742318e-01 +8.8098816245942577e-04
9.9999999999999805e+00 +9.0961473146529332e+00 +0.0000000000000000e+00 +9.9999982299738122e+00 +9.0883122428309614e-03 -1.7038691549660240e-01 +8.8101660906961677e-04
1.0099999999999980e+01 +9.0960437437285826e+00 +0.0000000000000000e+00 +1.0099998176338673e+01 +9.0883759524258423e-03 -1.7038712907847442e-01 +8.8104527933288105e-04
1.0199999999999980e+01 +9.0959391421839282e+00 +0.0000000000000000e+00 +1.0199998121630799e+01 +9.0884402304557271e-03 -1.7038734039279446e-01 +8.8107409519467867e-04
1.0299999999999979e+01 +9.0958335100177035e+00 +0.0000000000000000e+00 +1.0299998065839567e+01 +9.0885049311704175e-03 -1.7038754930125211e-01 +8.8110295452879252e-04
1.0399999999999979e+01 +9.0957268472286561e+00 +0.0000000000000000e+00 +1.0399998008954356e+01 +9.0885699088215175e-03 -1.7038775566554670e-01 +8.8113175524715556e-04
1.0499999999999979e+01 +9.0956191538155498e+00 +0.0000000000000000e+00 +1.0499997950964540e+01 +9.0886350176624664e-03 -1.7038795934738774e-01 +8.8116039530076985e-04
1.0599999999999978e+01 +9.0955104297771623e+00 +0.0000000000000000e+00 +1.0599997891859497e+01 +9.0887001119485476e-03 -1.7038816020849429e-01 +8.8118877268062844e-04
1.0699999999999978e+01 +9.0954006751122929e+00 +0.0000000000000000e+00 +1.0699997831628604e+01 +9.0887650459369074e-03 -1.7038835811059574e-01 +8.8121678541863409e-04
1.0799999999999978e+01 +9.0952898898197549e+00 +0.0000000000000000e+00 +1.0799997770261237e+01 +9.0888296738865833e-03 -1.7038855291543120e-01 +8.8124433158852139e-04
1.0899999999999977e+01 +9.0951780738983814e+00 +0.0000000000000000e+00 +1.0899997707746774e+01 +9.0888938500585294e-03 -1.7038874448474975e-01 +8.8127130930677831e-04
1.0999999999999977e+01 +9.0950652273470247e+00 +0.0000000000000000e+00 +1.0999997644074590e+01 +9.0889574287156324e-03 -1.7038893268031055e-01 +8.8129761673356750e-04
1.1099999999999977e+01 +9.0949513501645605e+00 +0.0000000000000000e+00 +1.1099997579234063e+01 +9.0890202641227078e-03 -1.7038911736388260e-01 +8.8132315207364864e-04
1.1199999999999976e+01 +9.0948364423498838e+00 +0.0000000000000000e+00 +1.1199997513214569e+01 +9.0890822105465750e-03 -1.7038929839724515e-01 +8.8134781357730155e-04
1.1299999999999976e+01 +9.0947205039019110e+00 +0.0000000000000000e+00 +1.1299997446005486e+01 +9.0891431222560343e-03 -1.7038947564218718e-01 +8.8137149954124869e-04
1.1399999999999975e+01 +9.0946035348195817e+00 +0.0000000000000000e+00 +1.1399997377596190e+01 +9.0892028535219053e-03 -1.7038964896050790e-01 +8.8139410830957905e-04
1.1499999999999975e+01 +9.0944855351018621e+00 +0.0000000000000000e+00 +1.1499997307976056e+01 +9.0892612586170457e-03 -1.7038981821401636e-01 +8.8141553827467232e-04
1.1599999999999975e+01 +9.0943665047477396e+00 +0.0000000000000000e+00 +1.1599997237134462e+01 +9.0893181918163778e-03 -1.7038998326453195e-01 +8.8143568787812292e-04
1.1699999999999974e+01 +9.0942464437562283e+00 +0.0000000000000000e+00 +1.1699997165060784e+01 +9.0893735073969192e-03 -1.7039014397388402e-01 +8.8145445561166520e-04
1.1799999999999974e+01 +9.0941253521263707e+00 +0.0000000000000000e+00 +1.1799997091744400e+01 +9.0894270596377832e-03 -1.7039030020391183e-01 +8.8147174001809866e-04
