# multipoles
# s[mm] polynom_b[n=0][T/m^n] polynom_b[n=1][T/m^n] polynom_b[n=2][T/m^n] polynom_b[n=3][T/m^n] polynom_b[n=4][T/m^n] polynom_b[n=5][T/m^n] polynom_b[n=6][T/m^n] 
+0.0000000000000000e+00 -1.0146077858166487e+00 +2.2565018978086093e+00 +1.9390070018722589e+01 +1.1866128966254925e+02 +8.4083788122828428e+03 +3.6043633267693003e+04 -2.3442493887468420e+07 
+1.0000000000000001e-01 -1.0146079176367997e+00 +2.2565222646454384e+00 +1.9393628218548603e+01 +1.1799729251887638e+02 +8.3476227735175580e+03 +4.0184439269118011e+04 -2.3231824907051973e+07 
+2.0000000000000001e-01 -1.0146080604346452e+00 +2.2565466469751874e+00 +1.9396403938821486e+01 +1.1723322797175234e+02 +8.3013578097251520e+03 +4.4873619210734520e+04 -2.3088183697789304e+07 
+3.0000000000000004e-01 -1.0146082145958741e+00 +2.2565746852912612e+00 +1.9398424718658255e+01 +1.1637914241931757e+02 +8.2690544982214069e+03 +5.0053712702276505e+04 -2.3009029729817018e+07 
+4.0000000000000002e-01 -1.0146083805062083e+00 +2.2566060200890456e+00 +1.9399718099939914e+01 +1.1544508215769338e+02 +8.2501833798171210e+03 +5.5667260171951159e+04 -2.2991822358743485e+07 
+5.0000000000000000e-01 -1.0146085585513409e+00 +2.2566402918764639e+00 +1.9400311620648118e+01 +1.1444109306304040e+02 +8.2442150723367540e+03 +6.1656804749616982e+04 -2.3034021324493293e+07 
+5.9999999999999998e-01 -1.0146087491170397e+00 +2.2566771411644666e+00 +1.9400232827351442e+01 +1.1337722089083965e+02 +8.2506200402064624e+03 +6.7964890432900327e+04 -2.3133085673516773e+07 
+6.9999999999999996e-01 -1.0146089525890212e+00 +2.2567162084691361e+00 +1.9399509259371779e+01 +1.1226351120728407e+02 +8.2688688914519025e+03 +7.4534062488102340e+04 -2.3286475155182462e+07 
+7.9999999999999993e-01 -1.0146091693530694e+00 +2.2567571343122719e+00 +1.9398168464374692e+01 +1.1111000939168197e+02 +8.2984320775534870e+03 +8.1306867372048320e+04 -2.3491648782937188e+07 
+8.9999999999999991e-01 -1.0146093997948977e+00 +2.2567995592199095e+00 +1.9396237979934881e+01 +1.0992676067885475e+02 +8.3387802511991522e+03 +8.8225852465100266e+04 -2.3746066552640859e+07 
+9.9999999999999989e-01 -1.0146096443002519e+00 +2.2568431237200919e+00 +1.9393745348096253e+01 +1.0872381022201638e+02 +8.3893839744942798e+03 +9.5233565694823905e+04 -2.4047188007298425e+07 
+1.0999999999999999e+00 -1.0146099032548708e+00 +2.2568874683475864e+00 +1.9390718109080275e+01 +1.0751120297769637e+02 +8.4497138484316056e+03 +1.0227255612503621e+05 -2.4392472880351841e+07 
+1.2000000000000000e+00 -1.0146101770444718e+00 +2.2569322336345965e+00 +1.9387183800320088e+01 +1.0629898397013223e+02 +8.5192405251353357e+03 +1.0928537241815336e+05 -2.4779381133298211e+07 
+1.3000000000000000e+00 -1.0146104660547353e+00 +2.2569770601191599e+00 +1.9383169954863586e+01 +1.0509719805830927e+02 +8.5974347346955965e+03 +1.1621456413956557e+05 -2.5205373070113484e+07 
+1.4000000000000001e+00 -1.0146107706712943e+00 +2.2570215883349372e+00 +1.9378704098882139e+01 +1.0391589023769735e+02 +8.6837673379017251e+03 +1.2300267997731177e+05 -2.5667909598676823e+07 
+1.5000000000000002e+00 -1.0146110912798108e+00 +2.2570654588218804e+00 +1.9373813762636637e+01 +1.0276510533833883e+02 +8.7777091084529548e+03 +1.2959226944467728e+05 -2.6164451167066701e+07 
+1.6000000000000003e+00 -1.0146114282658492e+00 +2.2571083121169373e+00 +1.9368526464279668e+01 +1.0165488829047462e+02 +8.8787310450241930e+03 +1.3592588134829796e+05 -2.6692459258897446e+07 
+1.7000000000000004e+00 -1.0146117820149538e+00 +2.2571497887548020e+00 +1.9362869719222822e+01 +1.0059528412660677e+02 +8.9863041884669601e+03 +1.4194606367605974e+05 -2.7249395502322126e+07 
+1.8000000000000005e+00 -1.0146121529126517e+00 +2.2571895292708972e+00 +1.9356871041271404e+01 +9.9596337886526655e+01 +9.0998995993036096e+03 +1.4759536416489689e+05 -2.7832721561224218e+07 
+1.9000000000000006e+00 -1.0146125413443494e+00 +2.2572271741971295e+00 +1.9350557928802015e+01 +9.8668094754579457e+01 +9.2189886234599635e+03 +1.5281632944254242e+05 -2.8439900403572213e+07 
+2.0000000000000004e+00 -1.0146129476954775e+00 +2.2572623640635143e+00 +1.9343957884298629e+01 +9.7820600011524945e+01 +9.3430425090917452e+03 +1.5755150530115695e+05 -2.9068394441654775e+07 
+2.1000000000000005e+00 -1.0146133723110942e+00 +2.2572948225489471e+00 +1.9337100527933934e+01 +9.7061321169857322e+01 +9.4715122823864331e+03 +1.6175893099501237e+05 -2.9715603223620880e+07 
+2.2000000000000006e+00 -1.0146138153852431e+00 +2.2573246047642064e+00 +1.9330023370438447e+01 +9.6387376207312286e+01 +9.6038023128998266e+03 +1.6545882582643291e+05 -3.0378912603645358e+07 
+2.3000000000000007e+00 -1.0146142770766031e+00 +2.2573518484961292e+00 +1.9322765722009901e+01 +9.5793281237839352e+01 +9.7393144881595508e+03 +1.6868703936304428e+05 -3.1055767419551671e+07 
+2.4000000000000008e+00 -1.0146147575438673e+00 +2.2573766915290632e+00 +1.9315366895813156e+01 +9.5273552425647154e+01 +9.8774506283486899e+03 +1.7147942087074826e+05 -3.1743612151790492e+07 
+2.5000000000000009e+00 -1.0146152569457605e+00 +2.2573992716424724e+00 +1.9307866209944375e+01 +9.4822706068920255e+01 +1.0017612446319088e+04 +1.7387181878457215e+05 -3.2439890723157678e+07 
+2.6000000000000010e+00 -1.0146157754409690e+00 +2.2574197266094376e+00 +1.9300302979050919e+01 +9.4435258624034887e+01 +1.0159201706137110e+04 +1.7590008062525970e+05 -3.3142047253346737e+07 
+2.7000000000000011e+00 -1.0146163131882984e+00 +2.2574381941967681e+00 +1.9292716533780101e+01 +9.4105726702516392e+01 +1.0301619853891436e+04 +1.7760005301151419e+05 -3.3847524303703651e+07 
+2.8000000000000012e+00 -1.0146168703464347e+00 +2.2574548121691658e+00 +1.9285146191535961e+01 +9.3828626946666631e+01 +1.0444268570064654e+04 +1.7900758240027665e+05 -3.4553765497207724e+07 
+2.9000000000000012e+00 -1.0146174470742007e+00 +2.2574697182823722e+00 +1.9277631288289527e+01 +9.3598476243654403e+01 +1.0586549166562074e+04 +1.8015851378881966e+05 -3.5258212653515108e+07 
+3.0000000000000013e+00 -1.0146180435304151e+00 +2.2574830502855621e+00 +1.9270211160812515e+01 +9.3409791623938091e+01 +1.0727862925341922e+04 +1.8108869140248644e+05 -3.5958307406579629e+07 
+3.1000000000000014e+00 -1.0146186598739173e+00 +2.2574949459203810e+00 +1.9262925150847540e+01 +9.3257090301811388e+01 +1.0867611010490689e+04 +1.8183395841907931e+05 -3.6651490759264387e+07 
+3.2000000000000015e+00 -1.0146192962635894e+00 +2.2575055429237181e+00 +1.9255812606777130e+01 +9.3134889604143524e+01 +1.1005194446280870e+04 +1.8243015735950606e+05 -3.7335203009828225e+07 
+3.3000000000000016e+00 -1.0146199528583530e+00 +2.2575149790181657e+00 +1.9248912884339216e+01 +9.3037707225425820e+01 +1.1140014093314372e+04 +1.8291312865425766e+05 -3.8006883608340047e+07 
+3.4000000000000017e+00 -1.0146206298171629e+00 +2.2575233919220934e+00 +1.9242265345237819e+01 +9.2960060938778554e+01 +1.1271470682064781e+04 +1.8331871233208821e+05 -3.8663971339876525e+07 
+3.5000000000000018e+00 -1.0146213272990714e+00 +2.2575309193458715e+00 +1.9235909365590093e+01 +9.2896468703920263e+01 +1.1398964645157896e+04 +1.8368274738074877e+05 -3.9303903503479443e+07 
+3.6000000000000019e+00 -1.0146220454630996e+00 +2.2575376989847227e+00 +1.9229884320325159e+01 +9.2841448880032544e+01 +1.1521896415989626e+04 +1.8404107050074780e+05 -3.9924117343371451e+07 
+3.7000000000000020e+00 -1.0146227844683475e+00 +2.2575438685285474e+00 +1.9224229596210950e+01 +9.2789519918755076e+01 +1.1639666180098027e+04 +1.8442951795022722e+05 -4.0522048861435518e+07 
+3.8000000000000020e+00 -1.0146235444740246e+00 +2.2575495656534157e+00 +1.9218984596267827e+01 +9.2735200631040897e+01 +1.1751673792354666e+04 +1.8488392393012470e+05 -4.1095132427616805e+07 
+3.9000000000000021e+00 -1.0146243256393415e+00 +2.2575549280249136e+00 +1.9214188726767869e+01 +9.2673010070006185e+01 +1.1857319017792801e+04 +1.8544012133146805e+05 -4.1640801909252487e+07 
+4.0000000000000018e+00 -1.0146251281235987e+00 +2.2575600932990505e+00 +1.9209881407589322e+01 +9.2597467519723423e+01 +1.1956001341162739e+04 +1.8613394166991141e+05 -4.2156489792277686e+07 
+4.1000000000000014e+00 -1.0146259520053817e+00 +2.2575651609169425e+00 +1.9206090881509155e+01 +9.2504720314946496e+01 +1.2047256442322609e+04 +1.8698982892941989e+05 -4.2640123986431919e+07 
+4.2000000000000011e+00 -1.0146267970019438e+00 +2.2575700797305172e+00 +1.9202797099639564e+01 +9.2397610657864533e+01 +1.2131193654391138e+04 +1.8798558646722892e+05 -4.3091591106887095e+07 
+4.3000000000000007e+00 -1.0146276627302377e+00 +2.2575747613703014e+00 +1.9199966988161098e+01 +9.2280712574642521e+01 +1.2208073327241053e+04 +1.8908697843393436e+05 -4.3511262752232909e+07 
+4.4000000000000004e+00 -1.0146285488071096e+00 +2.2575791174767752e+00 +1.9197567457641650e+01 +9.2158599908284970e+01 +1.2278156131391819e+04 +1.9025976961161185e+05 -4.3899512113285922e+07 
+4.5000000000000000e+00 -1.0146294548493482e+00 +2.2575830597052486e+00 +1.9195565408446445e+01 +9.2035846165881409e+01 +1.2341702964264519e+04 +1.9146972630436934e+05 -4.4256713552537180e+07 
+4.5999999999999996e+00 -1.0146303804736938e+00 +2.2575864997279638e+00 +1.9193927732469998e+01 +9.1917024446143728e+01 +1.2398974913500510e+04 +1.9268261679191209e+05 -4.4583242420391873e+07 
+4.6999999999999993e+00 -1.0146313252968135e+00 +2.2575893492271648e+00 +1.9192621309053031e+01 +9.1806707679824086e+01 +1.2450233341718382e+04 +1.9386420981503886e+05 -4.4879475478304021e+07 
+4.7999999999999989e+00 -1.0146322889353032e+00 +2.2575915199043024e+00 +1.9191613005262038e+01 +9.1709468329020069e+01 +1.2495739883401968e+04 +1.9498027641731239e+05 -4.5145790890734918e+07 
+4.8999999999999986e+00 -1.0146332710056718e+00 +2.2575929234780272e+00 +1.9190869673897634e+01 +9.1629878478353845e+01 +1.2535756483796938e+04 +1.9599658931089530e+05 -4.5382568414434940e+07 
+4.9999999999999982e+00 -1.0146342711243297e+00 +2.2575934716850568e+00 +1.9190358151760911e+01 +9.1572509805172103e+01 +1.2570545432348796e+04 +1.9687892306588785e+05 -4.5590189557161123e+07 
+5.0999999999999979e+00 -1.0146352889076375e+00 +2.2575930762797531e+00 +1.9190045265127043e+01 +9.1541933606693618e+01 +1.2600369266629339e+04 +1.9759305389842106e+05 -4.5769037146021940e+07 
+5.1999999999999975e+00 -1.0146363239718466e+00 +2.2575916490389702e+00 +1.9189897823046298e+01 +9.1542720645482504e+01 +1.2625490895059655e+04 +1.9810476061248776e+05 -4.5919495896778747e+07 
+5.2999999999999972e+00 -1.0146373759330942e+00 +2.2575891017581284e+00 +1.9189882615528081e+01 +9.1579441291902242e+01 +1.2646173638671589e+04 +1.9837982367722277e+05 -4.6041952632930636e+07 
+5.3999999999999968e+00 -1.0146384444074632e+00 +2.2575853462570881e+00 +1.9189966421568606e+01 +9.1656665344906784e+01 +1.2662681078057005e+04 +1.9838402629522886e+05 -4.6136795559477694e+07 
+5.4999999999999964e+00 -1.0146395290108996e+00 +2.2575802943776959e+00 +1.9190115997611581e+01 +9.1778962113361132e+01 +1.2675277279230857e+04 +1.9808315389313357e+05 -4.6204415351798259e+07 
+5.5999999999999961e+00 -1.0146406293592543e+00 +2.2575738579827660e+00 +1.9190298084067301e+01 +9.1950900453003584e+01 +1.2684226667455225e+04 +1.9744299388652985e+05 -4.6245204555415526e+07 
+5.6999999999999957e+00 -1.0146417450682763e+00 +2.2575659489666022e+00 +1.9190479402962879e+01 +9.2177048470851517e+01 +1.2689794074342723e+04 +1.9642933736038694e+05 -4.6259557809796050e+07 
+5.7999999999999954e+00 -1.0146428757535564e+00 +2.2575564792433016e+00 +1.9190626651264161e+01 +9.2461973852477655e+01 +1.2692244871185090e+04 +1.9500797720019458e+05 -4.6247872508026950e+07 
+5.8999999999999950e+00 -1.0146440210306549e+00 +2.2575453607560751e+00 +1.9190706516612014e+01 +9.2810243624817687e+01 +1.2691844668337842e+04 +1.9314470936945282e+05 -4.6210547358469881e+07 
+5.9999999999999947e+00 -1.0146451805148948e+00 +2.2575325054753397e+00 +1.9190685651019869e+01 +9.3226424209386593e+01 +1.2688859825046917e+04 +1.9080533302235891e+05 -4.6147984805803612e+07 
+6.0999999999999943e+00 -1.0146463537577617e+00 +2.2575178579540323e+00 +1.9190540216332995e+01 +9.3713658860229927e+01 +1.2683513206859310e+04 +1.8796624424039881e+05 -4.6060735069817051e+07 
+6.1999999999999940e+00 -1.0146475401154966e+00 +2.2575014916198954e+00 +1.9190290550496041e+01 +9.4268462531642143e+01 +1.2675795129119922e+04 +1.8465260078891678e+05 -4.5949929126673654e+07 
+6.2999999999999936e+00 -1.0146487389116812e+00 +2.2574835120673544e+00 +1.9189969730608354e+01 +9.4885428492259976e+01 +1.2665624487000163e+04 +1.8090361850784838e+05 -4.5816856462047137e+07 
+6.3999999999999932e+00 -1.0146499494699430e+00 +2.2574640248508429e+00 +1.9189610842494137e+01 +9.5559150958179842e+01 +1.2652920004209640e+04 +1.7675850855781272e+05 -4.5662805767180033e+07 
+6.4999999999999929e+00 -1.0146511711140036e+00 +2.2574431354850377e+00 +1.9189246987379502e+01 +9.6284225223148439e+01 +1.2637600086239041e+04 +1.7225647639212498e+05 -4.5489064182205766e+07 
+6.5999999999999925e+00 -1.0146524031676500e+00 +2.2574209494422290e+00 +1.9188911278782673e+01 +9.7055247761731962e+01 +1.2619582871779130e+04 +1.6743672110362505e+05 -4.5296917517997146e+07 
+6.6999999999999922e+00 -1.0146536449547094e+00 +2.2573975721528261e+00 +1.9188636838308746e+01 +9.7866816170462371e+01 +1.2598786322975633e+04 +1.6233843590502738e+05 -4.5087650716443501e+07 
+6.7999999999999918e+00 -1.0146548957991421e+00 +2.2573731089958260e+00 +1.9188456808708683e+01 +9.8713529476416454e+01 +1.2575127966325916e+04 +1.5700080626376442e+05 -4.4862546589767545e+07 
+6.8999999999999915e+00 -1.0146561550249134e+00 +2.2573476653104243e+00 +1.9188404337562936e+01 +9.9589987772599969e+01 +1.2548525201418859e+04 +1.5146301211863116e+05 -4.4622887284232974e+07 
+6.9999999999999911e+00 -1.0146574219561244e+00 +2.2573213463799076e+00 +1.9188512593971794e+01 +1.0049079269497228e+02 +1.2518894986483800e+04 +1.4576422509359792e+05 -4.4369952796187982e+07 
+7.0999999999999908e+00 -1.0146586959169572e+00 +2.2572942574390491e+00 +1.9188814761385007e+01 +1.0141054719134539e+02 +1.2486153972401302e+04 +1.3994360990769765e+05 -4.4105021602916092e+07 
+7.1999999999999904e+00 -1.0146599762316428e+00 +2.2572665036699533e+00 +1.9189344034312274e+01 +1.0234385565688866e+02 +1.2450218559858326e+04 +1.3404032356135658e+05 -4.3829370918807514e+07 
+7.2999999999999901e+00 -1.0146612622245601e+00 +2.2572381901979992e+00 +1.9190133630902267e+01 +1.0328532403053465e+02 +1.2411004661437866e+04 +1.2809351485510517e+05 -4.3544275572126165e+07 
+7.3999999999999897e+00 -1.0146625532201630e+00 +2.2572094220948129e+00 +1.9191216783514324e+01 +1.0422955970476472e+02 +1.2368427881802041e+04 +1.2214232494214084e+05 -4.3251008864681341e+07 
+7.4999999999999893e+00 -1.0146638485429866e+00 +2.2571803043724059e+00 +1.9192626740014862e+01 +1.0517117170386325e+02 +1.2322403487351836e+04 +1.1622588628314441e+05 -4.2950842411008433e+07 
+7.5999999999999890e+00 -1.0146651475176871e+00 +2.2571509419829021e+00 +1.9194396768882719e+01 +1.0610477067554369e+02 +1.2272846308616516e+04 +1.1038332276569752e+05 -4.2645045674971394e+07 
+7.6999999999999886e+00 -1.0146664494690427e+00 +2.2571214398162271e+00 +1.9196560159836331e+01 +1.0702496896898012e+02 +1.2219670726137880e+04 +1.0465374922632183e+05 -4.2334885898929976e+07 
+7.7999999999999883e+00 -1.0146677537219098e+00 +2.2570919027007257e+00 +1.9199150217444288e+01 +1.0792638059110843e+02 +1.2162790797278711e+04 +9.9076271806141754e+04 -4.2021628720578298e+07 
+7.8999999999999879e+00 -1.0146690596013013e+00 +2.2570624353966693e+00 +1.9202200272814544e+01 +1.0880362140927578e+02 +1.2102120019713504e+04 +9.3689986740556633e+04 -4.1706537012684569e+07 
+7.9999999999999876e+00 -1.0146703664322947e+00 +2.2570331426040817e+00 +1.9205743670696048e+01 +1.0965130875906760e+02 +1.2037571564974511e+04 +8.8533982591909706e+04 -4.1390871989700668e+07 
+8.0999999999999872e+00 -1.0146716735584140e+00 +2.2570041152110676e+00 +1.9209803726605262e+01 +1.1046469318597514e+02 +1.1969072731656162e+04 +8.3642627634063174e+04 -4.1075453484797955e+07 
+8.1999999999999869e+00 -1.0146729803545593e+00 +2.2569753788987921e+00 +1.9214359105273701e+01 +1.1124330257164652e+02 +1.1896644445209376e+04 +7.9019099019275149e+04 -4.0759315737651013e+07 
+8.2999999999999865e+00 -1.0146742861903797e+00 +2.2569469401023174e+00 +1.9219375888651495e+01 +1.1198821085951256e+02 +1.1820336523921960e+04 +7.4655374025379802e+04 -4.0440999296487503e+07 
+8.3999999999999861e+00 -1.0146755904355440e+00 +2.2569188052996121e+00 +1.9224820161694463e+01 +1.1270049125049226e+02 +1.1740198654129637e+04 +7.0543432974609852e+04 -4.0119043804441847e+07 
+8.4999999999999858e+00 -1.0146768924597864e+00 +2.2568909810237128e+00 +1.9230658018463785e+01 +1.1338121546863043e+02 +1.1656280316731412e+04 +6.6675264218841199e+04 -3.9791987775725961e+07 
+8.5999999999999854e+00 -1.0146781916327947e+00 +2.2568634738683682e+00 +1.9236855546742049e+01 +1.1403145358903163e+02 +1.1568631090831861e+04 +6.3042865167348529e+04 -3.9458370069391556e+07 
+8.6999999999999851e+00 -1.0146794873243519e+00 +2.2568362904798720e+00 +1.9243378846948090e+01 +1.1465227429723561e+02 +1.1477300283977132e+04 +5.9638240694984437e+04 -3.9116728098746657e+07 
+8.7999999999999847e+00 -1.0146807789042280e+00 +2.2568094375718557e+00 +1.9250194017496007e+01 +1.1524474444225582e+02 +1.1382337216226353e+04 +5.6453405793578342e+04 -3.8765599197298363e+07 
+8.8999999999999844e+00 -1.0146820657422269e+00 +2.2567829219209701e+00 +1.9257267161398104e+01 +1.1580992917784708e+02 +1.1283791092523668e+04 +5.3480384690583305e+04 -3.8403520004748762e+07 
+8.9999999999999840e+00 -1.0146833472082042e+00 +2.2567567503613541e+00 +1.9264564388382912e+01 +1.1634889213286458e+02 +1.1181710958223637e+04 +5.0711209821749115e+04 -3.8029026240189776e+07 
+9.0999999999999837e+00 -1.0146846226720136e+00 +2.2567309298066411e+00 +1.9272051808256379e+01 +1.1686269475257534e+02 +1.1076145826773552e+04 +4.8137925712585667e+04 -3.7640653312536165e+07 
+9.1999999999999833e+00 -1.0146858915035715e+00 +2.2567054672304323e+00 +1.9279695538076570e+01 +1.1735239690044645e+02 +1.0967144547356285e+04 +4.5752585369409113e+04 -3.7236935697912157e+07 
+9.2999999999999829e+00 -1.0146871530727786e+00 +2.2566803696828068e+00 +1.9287461693457452e+01 +1.1781905635023801e+02 +1.0854755962277864e+04 +4.3547253307385603e+04 -3.6816407666459434e+07 
+9.3999999999999826e+00 -1.0146884067496162e+00 +2.2566556442830668e+00 +1.9295316400027108e+01 +1.1826372901971735e+02 +1.0739028694097567e+04 +4.1514004113528856e+04 -3.6377602282372333e+07 
+9.4999999999999822e+00 -1.0146896519040507e+00 +2.2566312982301899e+00 +1.9303225781697797e+01 +1.1868746867523747e+02 +1.0620011362879941e+04 +3.9644924136655398e+04 -3.5919052414662905e+07 
+9.5999999999999819e+00 -1.0146908879061094e+00 +2.2566073387954835e+00 +1.9311155969810493e+01 +1.1909132713003119e+02 +1.0497752417052478e+04 +3.7932110368245500e+04 -3.5439289948109008e+07 
+9.6999999999999815e+00 -1.0146921141258440e+00 +2.2565837733324643e+00 +1.9319073098812108e+01 +1.1947635396934619e+02 +1.0372300212070042e+04 +3.6367671998367310e+04 -3.4936846144025885e+07 
+9.7999999999999812e+00 -1.0146933299333232e+00 +2.2565606092777362e+00 +1.9326943305136911e+01 +1.1984359653781679e+02 +1.0243703031385876e+04 +3.4943730436967351e+04 -3.4410251736165397e+07 
+9.8999999999999808e+00 -1.0146945346986840e+00 +2.2565378541472882e+00 +1.9334732733644564e+01 +1.2019410003555767e+02 +1.0112008964433804e+04 +3.3652418790908472e+04 -3.3858036350523479e+07 
+9.9999999999999805e+00 -1.0146957277920974e+00 +2.2565155155404630e+00 +1.9342407533636443e+01 +1.2052890768289139e+02 +9.9772660122785419e+03 +3.2485880148458724e+04 -3.3278729111619774e+07 
+1.0099999999999980e+01 -1.0146969086781417e+00 +2.2564935976591265e+00 +1.9349935680458309e+01 +1.2084933042464097e+02 +9.8396273468945128e+03 +3.1433803080666046e+04 -3.2671711262582634e+07 
