# trajectory
# s[mm] rx[mm] ry[mm] rz[mm] px[rad] py[rad] pz[rad]
0.0000000000000000e+00 +9.1013000000000002e+00 +0.0000000000000000e+00 +0.0000000000000000e+00 +0.0000000000000000e+00 +0.0000000000000000e+00 +1.0000000000000000e+00
1.0000000000000001e-01 +9.1012994834661409e+00 +0.0000000000000000e+00 +9.9999999998221276e-02 -1.0330677260950435e-05 +0.0000000000000000e+00 +9.9999999994663857e-01
2.0000000000000001e-01 +9.1012979338645295e+00 +0.0000000000000000e+00 +1.9999999998577028e-01 -2.0661355049959713e-05 +0.0000000000000000e+00 +9.9999999978655418e-01
3.0000000000000004e-01 +9.1012953511951071e+00 +0.0000000000000000e+00 +2.9999999995197468e-01 -3.0992033502045184e-05 +0.0000000000000000e+00 +9.9999999951974694e-01
4.0000000000000002e-01 +9.1012917354578011e+00 +0.0000000000000000e+00 +3.9999999988616225e-01 -4.1322712758175840e-05 +0.0000000000000000e+00 +9.9999999914621673e-01
5.0000000000000000e-01 +9.1012870866525226e+00 +0.0000000000000000e+00 +4.9999999977766063e-01 -5.1653392965271944e-05 +0.0000000000000000e+00 +9.9999999866596356e-01
5.9999999999999998e-01 +9.1012814047791704e+00 +0.0000000000000000e+00 +5.9999999961579753e-01 -6.1984074276204607e-05 +0.0000000000000000e+00 +9.9999999807898732e-01
6.9999999999999996e-01 +9.1012746898376253e+00 +0.0000000000000000e+00 +6.9999999938990065e-01 -7.2314756849795387e-05 +0.0000000000000000e+00 +9.9999999738528800e-01
7.9999999999999993e-01 +9.1012669418277525e+00 +0.0000000000000000e+00 +7.9999999908929764e-01 -8.2645440850815792e-05 +0.0000000000000000e+00 +9.9999999658486560e-01
8.9999999999999991e-01 +9.1012581607494010e+00 +0.0000000000000000e+00 +8.9999999870331626e-01 -9.2976126449986846e-05 +0.0000000000000000e+00 +9.9999999567772002e-01
9.9999999999999989e-01 +9.1012483466024037e+00 +0.0000000000000000e+00 +9.9999999822128416e-01 -1.0330681382397855e-04 +0.0000000000000000e+00 +9.9999999466385114e-01
1.0999999999999999e+00 +9.1012374993865723e+00 +0.0000000000000000e+00 +1.0999999976325290e+00 -1.1363750315540937e-04 +0.0000000000000000e+00 +9.9999999354325897e-01
1.2000000000000000e+00 +9.1012256191017009e+00 +0.0000000000000000e+00 +1.1999999969263784e+00 -1.2396819463284569e-04 +0.0000000000000000e+00 +9.9999999231594339e-01
1.3000000000000000e+00 +9.1012127057475674e+00 +0.0000000000000000e+00 +1.2999999960921602e+00 -1.3429888845080124e-04 +0.0000000000000000e+00 +9.9999999098190429e-01
1.4000000000000001e+00 +9.1011987593239265e+00 +0.0000000000000000e+00 +1.3999999951192019e+00 -1.4462958480973646e-04 +0.0000000000000000e+00 +9.9999998954114155e-01
1.5000000000000002e+00 +9.1011837798305137e+00 +0.0000000000000000e+00 +1.4999999939968311e+00 -1.5496028391605787e-04 +0.0000000000000000e+00 +9.9999998799365519e-01
1.6000000000000003e+00 +9.1011677672670448e+00 +0.0000000000000000e+00 +1.5999999927143755e+00 -1.6529098598211750e-04 +0.0000000000000000e+00 +9.9999998633944498e-01
1.7000000000000004e+00 +9.1011507216332124e+00 +0.0000000000000000e+00 +1.6999999912611627e+00 -1.7562169122621211e-04 +0.0000000000000000e+00 +9.9999998457851080e-01
1.8000000000000005e+00 +9.1011326429286861e+00 +0.0000000000000000e+00 +1.7999999896265202e+00 -1.8595239987258258e-04 +0.0000000000000000e+00 +9.9999998271085244e-01
1.9000000000000006e+00 +9.1011135311531159e+00 +0.0000000000000000e+00 +1.8999999877997757e+00 -1.9628311215141311e-04 +0.0000000000000000e+00 +9.9999998073646990e-01
2.0000000000000004e+00 +9.1010933863061272e+00 +0.0000000000000000e+00 +1.9999999857702568e+00 -2.0661382829883051e-04 +0.0000000000000000e+00 +9.9999997865536294e-01
2.1000000000000005e+00 +9.1010722083873201e+00 +0.0000000000000000e+00 +2.0999999835272911e+00 -2.1694454855638101e-04 +0.0000000000000000e+00 +9.9999997646753136e-01
2.2000000000000006e+00 +9.1010499973962720e+00 +0.0000000000000000e+00 +2.1999999810602060e+00 -2.2727527316528356e-04 +0.0000000000000000e+00 +9.9999997417297493e-01
2.3000000000000007e+00 +9.1010267533325351e+00 +0.0000000000000000e+00 +2.2999999783583287e+00 -2.3760600236068355e-04 +0.0000000000000000e+00 +9.9999997177169353e-01
2.4000000000000008e+00 +9.1010024761956387e+00 +0.0000000000000000e+00 +2.3999999754109873e+00 -2.4793673637113066e-04 +0.0000000000000000e+00 +9.9999996926368706e-01
2.5000000000000009e+00 +9.1009771659850927e+00 +0.0000000000000000e+00 +2.4999999722075090e+00 -2.5826747541857946e-04 +0.0000000000000000e+00 +9.9999996664895519e-01
2.6000000000000010e+00 +9.1009508227003799e+00 +0.0000000000000000e+00 +2.5999999687372211e+00 -2.6859821971838980e-04 +0.0000000000000000e+00 +9.9999996392749768e-01
2.7000000000000011e+00 +9.1009234463409658e+00 +0.0000000000000000e+00 +2.6999999649894511e+00 -2.7892896947932734e-04 +0.0000000000000000e+00 +9.9999996109931444e-01
2.8000000000000012e+00 +9.1008950369062944e+00 +0.0000000000000000e+00 +2.7999999609535262e+00 -2.8925972490356441e-04 +0.0000000000000000e+00 +9.9999995816440512e-01
2.9000000000000012e+00 +9.1008655943957901e+00 +0.0000000000000000e+00 +2.8999999566187742e+00 -2.9959048618668078e-04 +0.0000000000000000e+00 +9.9999995512276951e-01
3.0000000000000013e+00 +9.1008351188088561e+00 +0.0000000000000000e+00 +2.9999999519745226e+00 -3.0992125351766444e-04 +0.0000000000000000e+00 +9.9999995197440739e-01
3.1000000000000014e+00 +9.1008036101448795e+00 +0.0000000000000000e+00 +3.0999999470100983e+00 -3.2025202707891277e-04 +0.0000000000000000e+00 +9.9999994871931852e-01
3.2000000000000015e+00 +9.1007710684032279e+00 +0.0000000000000000e+00 +3.1999999417148288e+00 -3.3058280704623355e-04 +0.0000000000000000e+00 +9.9999994535750258e-01
3.3000000000000016e+00 +9.1007374935832512e+00 +0.0000000000000000e+00 +3.2999999360780414e+00 -3.4091359358884613e-04 +0.0000000000000000e+00 +9.9999994188895935e-01
3.4000000000000017e+00 +9.1007028856842851e+00 +0.0000000000000000e+00 +3.3999999300890633e+00 -3.5124438686938273e-04 +0.0000000000000000e+00 +9.9999993831368861e-01
3.5000000000000018e+00 +9.1006672447056474e+00 +0.0000000000000000e+00 +3.4999999237372217e+00 -3.6157518704388992e-04 +0.0000000000000000e+00 +9.9999993463169012e-01
3.6000000000000019e+00 +9.1006305706466417e+00 +0.0000000000000000e+00 +3.5999999170118437e+00 -3.7190599426183000e-04 +0.0000000000000000e+00 +9.9999993084296357e-01
3.7000000000000020e+00 +9.1005928635065558e+00 +0.0000000000000000e+00 +3.6999999099022567e+00 -3.8223680866608260e-04 +0.0000000000000000e+00 +9.9999992694750861e-01
3.8000000000000020e+00 +9.1005541232846650e+00 +0.0000000000000000e+00 +3.7999999023977877e+00 -3.9256763039294647e-04 +0.0000000000000000e+00 +9.9999992294532503e-01
3.9000000000000021e+00 +9.1005143499802301e+00 +0.0000000000000000e+00 +3.8999998944877641e+00 -4.0289845957214114e-04 +0.0000000000000000e+00 +9.9999991883641259e-01
4.0000000000000018e+00 +9.1004735435924982e+00 +0.0000000000000000e+00 +3.9999998861615125e+00 -4.1322929632680883e-04 +0.0000000000000000e+00 +9.9999991462077098e-01
4.1000000000000014e+00 +9.1004317041207070e+00 +0.0000000000000000e+00 +4.0999998774083606e+00 -4.2356014077407519e-04 +0.0000000000000000e+00 +9.9999991029839985e-01
4.2000000000000011e+00 +9.1003888315640822e+00 +0.0000000000000000e+00 +4.1999998682176347e+00 -4.3389099303119718e-04 +0.0000000000000000e+00 +9.9999990586929899e-01
4.3000000000000007e+00 +9.1003449259218367e+00 +0.0000000000000000e+00 +4.2999998585786621e+00 -4.4422185322170912e-04 +0.0000000000000000e+00 +9.9999990133346806e-01
4.4000000000000004e+00 +9.1002999871931696e+00 +0.0000000000000000e+00 +4.3999998484807703e+00 -4.5455272147598030e-04 +0.0000000000000000e+00 +9.9999989669090672e-01
4.5000000000000000e+00 +9.1002540153772689e+00 +0.0000000000000000e+00 +4.4999998379132862e+00 -4.6488359793121368e-04 +0.0000000000000000e+00 +9.9999989194161476e-01
4.5999999999999996e+00 +9.1002070104733050e+00 +0.0000000000000000e+00 +4.5999998268655355e+00 -4.7521448273144467e-04 +0.0000000000000000e+00 +9.9999988708559173e-01
4.6999999999999993e+00 +9.1001589724804379e+00 +0.0000000000000000e+00 +4.6999998153268461e+00 -4.8554537602753933e-04 +0.0000000000000000e+00 +9.9999988212283741e-01
4.7999999999999989e+00 +9.1001099013978113e+00 +0.0000000000000000e+00 +4.7999998032865445e+00 -4.9587627797719315e-04 +0.0000000000000000e+00 +9.9999987705335136e-01
4.8999999999999986e+00 +9.1000597972245494e+00 +0.0000000000000000e+00 +4.8999997907339585e+00 -5.0620718874492914e-04 +0.0000000000000000e+00 +9.9999987187713324e-01
4.9999999999999982e+00 +9.1000086599597623e+00 +0.0000000000000000e+00 +4.9999997776584140e+00 -5.1653810850209596e-04 +0.0000000000000000e+00 +9.9999986659418272e-01
5.0999999999999979e+00 +9.0999564896025422e+00 +0.0000000000000000e+00 +5.0999997640492376e+00 -5.2686903742686631e-04 +0.0000000000000000e+00 +9.9999986120449946e-01
5.1999999999999975e+00 +9.0999032861519638e+00 +0.0000000000000000e+00 +5.1999997498957562e+00 -5.3719997570423467e-04 +0.0000000000000000e+00 +9.9999985570808303e-01
5.2999999999999972e+00 +9.0998490496070819e+00 +0.0000000000000000e+00 +5.2999997351872965e+00 -5.4753092352601538e-04 +0.0000000000000000e+00 +9.9999985010493309e-01
5.3999999999999968e+00 +9.0997937799669337e+00 +0.0000000000000000e+00 +5.3999997199131853e+00 -5.5786188109084058e-04 +0.0000000000000000e+00 +9.9999984439504919e-01
5.4999999999999964e+00 +9.0997374772305335e+00 +0.0000000000000000e+00 +5.4999997040627484e+00 -5.6819284860415745e-04 +0.0000000000000000e+00 +9.9999983857843089e-01
5.5999999999999961e+00 +9.0996801413968758e+00 +0.0000000000000000e+00 +5.5999996876253135e+00 -5.7852382627822645e-04 +0.0000000000000000e+00 +9.9999983265507775e-01
5.6999999999999957e+00 +9.0996217724649320e+00 +0.0000000000000000e+00 +5.6999996705902065e+00 -5.8885481433211821e-04 +0.0000000000000000e+00 +9.9999982662498932e-01
5.7999999999999954e+00 +9.0995623704336559e+00 +0.0000000000000000e+00 +5.7999996529467541e+00 -5.9918581299171140e-04 +0.0000000000000000e+00 +9.9999982048816516e-01
5.8999999999999950e+00 +9.0995019353019728e+00 +0.0000000000000000e+00 +5.8999996346842822e+00 -6.0951682248969001e-04 +0.0000000000000000e+00 +9.9999981424460482e-01
5.9999999999999947e+00 +9.0994404670687885e+00 +0.0000000000000000e+00 +5.9999996157921176e+00 -6.1984784306554021e-04 +0.0000000000000000e+00 +9.9999980789430776e-01
6.0999999999999943e+00 +9.0993779657329821e+00 +0.0000000000000000e+00 +6.0999995962595861e+00 -6.3017887496466052e-04 +0.0000000000000000e+00 +9.9999980143727352e-01
6.1999999999999940e+00 +9.0993144312934096e+00 +0.0000000000000000e+00 +6.1999995760760145e+00 -6.4050991842859873e-04 +0.0000000000000000e+00 +9.9999979487350166e-01
6.2999999999999936e+00 +9.0992498637489039e+00 +0.0000000000000000e+00 +6.2999995552307286e+00 -6.5084097368529198e-04 +0.0000000000000000e+00 +9.9999978820299151e-01
6.3999999999999932e+00 +9.0991842630982731e+00 +0.0000000000000000e+00 +6.3999995337130544e+00 -6.6117204094818106e-04 +0.0000000000000000e+00 +9.9999978142574275e-01
6.4999999999999929e+00 +9.0991176293403075e+00 +0.0000000000000000e+00 +6.4999995115123186e+00 -6.7150312041621264e-04 +0.0000000000000000e+00 +9.9999977454175470e-01
6.5999999999999925e+00 +9.0990499624737762e+00 +0.0000000000000000e+00 +6.5999994886178470e+00 -6.8183421227384171e-04 +0.0000000000000000e+00 +9.9999976755102693e-01
6.6999999999999922e+00 +9.0989812624974338e+00 +0.0000000000000000e+00 +6.6999994650189656e+00 -6.9216531669103376e-04 +0.0000000000000000e+00 +9.9999976045355898e-01
6.7999999999999918e+00 +9.0989115294100138e+00 +0.0000000000000000e+00 +6.7999994407050002e+00 -7.0249643382326718e-04 +0.0000000000000000e+00 +9.9999975324935031e-01
6.8999999999999915e+00 +9.0988407632102390e+00 +0.0000000000000000e+00 +6.8999994156652775e+00 -7.1282756381153617e-04 +0.0000000000000000e+00 +9.9999974593840035e-01
6.9999999999999911e+00 +9.0987689638968181e+00 +0.0000000000000000e+00 +6.9999993898891226e+00 -7.2315870678235292e-04 +0.0000000000000000e+00 +9.9999973852070867e-01
7.0999999999999908e+00 +9.0986961314684454e+00 +0.0000000000000000e+00 +7.0999993633658613e+00 -7.3348986284775086e-04 +0.0000000000000000e+00 +9.9999973099627482e-01
7.1999999999999904e+00 +9.0986222659238081e+00 +0.0000000000000000e+00 +7.1999993360848196e+00 -7.4382103210528716e-04 +0.0000000000000000e+00 +9.9999972336509824e-01
7.2999999999999901e+00 +9.0985473672615811e+00 +0.0000000000000000e+00 +7.2999993080353232e+00 -7.5415221463804606e-04 +0.0000000000000000e+00 +9.9999971562717860e-01
7.3999999999999897e+00 +9.0984714354804357e+00 +0.0000000000000000e+00 +7.3999992792066971e+00 -7.6448341051464164e-04 +0.0000000000000000e+00 +9.9999970778251523e-01
7.4999999999999893e+00 +9.0983944705790325e+00 +0.0000000000000000e+00 +7.4999992495882681e+00 -7.7481461978922122e-04 +0.0000000000000000e+00 +9.9999969983110781e-01
7.5999999999999890e+00 +9.0983164725560304e+00 +0.0000000000000000e+00 +7.5999992191693613e+00 -7.8514584250146866e-04 +0.0000000000000000e+00 +9.9999969177295589e-01
7.6999999999999886e+00 +9.0982374414100846e+00 +0.0000000000000000e+00 +7.6999991879393015e+00 -7.9547707867660771e-04 +0.0000000000000000e+00 +9.9999968360805902e-01
7.7999999999999883e+00 +9.0981573771398470e+00 +0.0000000000000000e+00 +7.7999991558874147e+00 -8.0580832832540558e-04 +0.0000000000000000e+00 +9.9999967533641676e-01
7.8999999999999879e+00 +9.0980762797439709e+00 +0.0000000000000000e+00 +7.8999991230030266e+00 -8.1613959144417653e-04 +0.0000000000000000e+00 +9.9999966695802867e-01
7.9999999999999876e+00 +9.0979941492211100e+00 +0.0000000000000000e+00 +7.9999990892754624e+00 -8.2647086801478564e-04 +0.0000000000000000e+00 +9.9999965847289429e-01
8.0999999999999872e+00 +9.0979109855699214e+00 +0.0000000000000000e+00 +8.0999990546940470e+00 -8.3680215800521047e-04 +0.0000000000000000e+00 +9.9999964988101331e-01
8.1999999999999869e+00 +9.0978267887890638e+00 +0.0000000000000000e+00 +8.1999990192481071e+00 -8.4713346137568345e-04 +0.0000000000000000e+00 +9.9999964118238538e-01
8.2999999999999865e+00 +9.0977415588772015e+00 +0.0000000000000000e+00 +8.2999989829269669e+00 -8.5746477808483132e-04 +0.0000000000000000e+00 +9.9999963237701006e-01
8.3999999999999861e+00 +9.0976552958330039e+00 +0.0000000000000000e+00 +8.3999989457199522e+00 -8.6779610809023251e-04 +0.0000000000000000e+00 +9.9999962346488691e-01
8.4999999999999858e+00 +9.0975679996551424e+00 +0.0000000000000000e+00 +8.4999989076163871e+00 -8.7812745134841679e-04 +0.0000000000000000e+00 +9.9999961444601571e-01
8.5999999999999854e+00 +9.0974796703422935e+00 +0.0000000000000000e+00 +8.5999988686055975e+00 -8.8845880781486411e-04 +0.0000000000000000e+00 +9.9999960532039600e-01
8.6999999999999851e+00 +9.0973903078931393e+00 +0.0000000000000000e+00 +8.6999988286769074e+00 -8.9879017744400416e-04 +0.0000000000000000e+00 +9.9999959608802735e-01
8.7999999999999847e+00 +9.0972999123063669e+00 +0.0000000000000000e+00 +8.7999987878196446e+00 -9.0912156018921537e-04 +0.0000000000000000e+00 +9.9999958674890943e-01
8.8999999999999844e+00 +9.0972084835806655e+00 +0.0000000000000000e+00 +8.8999987460231313e+00 -9.1945295600282429e-04 +0.0000000000000000e+00 +9.9999957730304190e-01
8.9999999999999840e+00 +9.0971160217147311e+00 +0.0000000000000000e+00 +8.9999987032766935e+00 -9.2978436483610438e-04 +0.0000000000000000e+00 +9.9999956775042442e-01
9.0999999999999837e+00 +9.0970225267072653e+00 +0.0000000000000000e+00 +9.0999986595696569e+00 -9.4011578663927525e-04 +0.0000000000000000e+00 +9.9999955809105656e-01
9.1999999999999833e+00 +9.0969279985569731e+00 +0.0000000000000000e+00 +9.1999986148913457e+00 -9.5044722136150171e-04 +0.0000000000000000e+00 +9.9999954832493809e-01
9.2999999999999829e+00 +9.0968324372625649e+00 +0.0000000000000000e+00 +9.2999985692310858e+00 -9.6077866895089286e-04 +0.0000000000000000e+00 +9.9999953845206857e-01
9.3999999999999826e+00 +9.0967358428227563e+00 +0.0000000000000000e+00 +9.3999985225782012e+00 -9.7111012935450082e-04 +0.0000000000000000e+00 +9.9999952847244755e-01
9.4999999999999822e+00 +9.0966382152362684e+00 +0.0000000000000000e+00 +9.4999984749220161e+00 -9.8144160251831974e-04 +0.0000000000000000e+00 +9.9999951838607481e-01
9.5999999999999819e+00 +9.0965395545018293e+00 +0.0000000000000000e+00 +9.5999984262518563e+00 -9.9177308838728473e-04 +0.0000000000000000e+00 +9.9999950819295003e-01
9.6999999999999815e+00 +9.0964398606181707e+00 +0.0000000000000000e+00 +9.6999983765570477e+00 -1.0021045869052709e-03 +0.0000000000000000e+00 +9.9999949789307274e-01
9.7999999999999812e+00 +9.0963391335840296e+00 +0.0000000000000000e+00 +9.7999983258269125e+00 -1.0124360980150915e-03 +0.0000000000000000e+00 +9.9999948748644274e-01
9.8999999999999808e+00 +9.0962373733981501e+00 +0.0000000000000000e+00 +9.8999982740507768e+00 -1.0227676216584974e-03 +0.0000000000000000e+00 +9.9999947697305958e-01
9.9999999999999805e+00 +9.0961345800592817e+00 +0.0000000000000000e+00 +9.9999982212179663e+00 -1.0330991577761756e-03 +0.0000000000000000e+00 +9.9999946635292303e-01
1.0099999999999980e+01 +9.0960307535661808e+00 +0.0000000000000000e+00 +1.0099998167317803e+01 -1.0434307063074977e-03 +0.0000000000000000e+00 +9.9999945562603276e-01
1.0199999999999980e+01 +9.0959258939176095e+00 +0.0000000000000000e+00 +1.0199998112339614e+01 -1.0537622671877680e-03 +0.0000000000000000e+00 +9.9999944479238834e-01
1.0299999999999979e+01 +9.0958200011123349e+00 +0.0000000000000000e+00 +1.0299998056272722e+01 -1.0640938403454708e-03 +0.0000000000000000e+00 +9.9999943385198953e-01
1.0399999999999979e+01 +9.0957130751491331e+00 +0.0000000000000000e+00 +1.0399997999106454e+01 -1.0744254257020189e-03 +0.0000000000000000e+00 +9.9999942280483600e-01
1.0499999999999979e+01 +9.0956051160267908e+00 +0.0000000000000000e+00 +1.0499997940830131e+01 -1.0847570231717514e-03 +0.0000000000000000e+00 +9.9999941165092754e-01
1.0599999999999978e+01 +9.0954961237440983e+00 +0.0000000000000000e+00 +1.0599997881433080e+01 -1.0950886326619319e-03 +0.0000000000000000e+00 +9.9999940039026380e-01
1.0699999999999978e+01 +9.0953860982998602e+00 +0.0000000000000000e+00 +1.0699997820904624e+01 -1.1054202540727465e-03 +0.0000000000000000e+00 +9.9999938902284458e-01
1.0799999999999978e+01 +9.0952750396928899e+00 +0.0000000000000000e+00 +1.0799997759234090e+01 -1.1157518872973017e-03 +0.0000000000000000e+00 +9.9999937754866952e-01
1.0899999999999977e+01 +9.0951629479220113e+00 +0.0000000000000000e+00 +1.0899997696410800e+01 -1.1260835322216226e-03 +0.0000000000000000e+00 +9.9999936596773853e-01
1.0999999999999977e+01 +9.0950498229860592e+00 +0.0000000000000000e+00 +1.0999997632424080e+01 -1.1364151887246505e-03 +0.0000000000000000e+00 +9.9999935428005127e-01
1.1099999999999977e+01 +9.0949356648838844e+00 +0.0000000000000000e+00 +1.1099997567263252e+01 -1.1467468566782409e-03 +0.0000000000000000e+00 +9.9999934248560751e-01
1.1199999999999976e+01 +9.0948204736143463e+00 +0.0000000000000000e+00 +1.1199997500917641e+01 -1.1570785359471610e-03 +0.0000000000000000e+00 +9.9999933058440704e-01
1.1299999999999976e+01 +9.0947042491763224e+00 +0.0000000000000000e+00 +1.1299997433376573e+01 -1.1674102263890878e-03 +0.0000000000000000e+00 +9.9999931857644975e-01
1.1399999999999975e+01 +9.0945869915687005e+00 +0.0000000000000000e+00 +1.1399997364629373e+01 -1.1777419278546060e-03 +0.0000000000000000e+00 +9.9999930646173540e-01
1.1499999999999975e+01 +9.0944687007903884e+00 +0.0000000000000000e+00 +1.1499997294665363e+01 -1.1880736401872049e-03 +0.0000000000000000e+00 +9.9999929424026390e-01
1.1599999999999975e+01 +9.0943493768403059e+00 +0.0000000000000000e+00 +1.1599997223473867e+01 -1.1984053632232764e-03 +0.0000000000000000e+00 +9.9999928191203513e-01
1.1699999999999974e+01 +9.0942290197173925e+00 +0.0000000000000000e+00 +1.1699997151044212e+01 -1.2087370967921128e-03 +0.0000000000000000e+00 +9.9999926947704887e-01
1.1799999999999974e+01 +9.0941076294206020e+00 +0.0000000000000000e+00 +1.1799997077365719e+01 -1.2190688407159040e-03 +0.0000000000000000e+00 +9.9999925693530500e-01
