# multipoles
# s[mm] polynom_b[n=0][T/m^n] polynom_b[n=1][T/m^n] polynom_b[n=2][T/m^n] polynom_b[n=3][T/m^n] polynom_b[n=4][T/m^n] polynom_b[n=5][T/m^n] polynom_b[n=6][T/m^n] 
+0.0000000000000000e+00 -1.0812996371044645e+00 +2.4155507041255513e+00 +2.1021311366183742e+01 +7.6711925867488148e+01 +3.9663450474825913e+03 +2.4925758264534915e+05 +8.5116894575027470e+06 
+1.0000000000000001e-01 -1.0812996385500906e+00 +2.4155507055193723e+00 +2.1021334760610316e+01 +7.6709991552792161e+01 +3.9660062393150015e+03 +2.4926977836462244e+05 +8.5128745893530417e+06 
+2.0000000000000001e-01 -1.0812996428153536e+00 +2.4155507014367714e+00 +2.1021396771231480e+01 +7.6704772442780609e+01 +3.9651245054784672e+03 +2.4930288641182135e+05 +8.5158921965190414e+06 
+3.0000000000000004e-01 -1.0812996497929084e+00 +2.4155506794853889e+00 +2.1021485148616357e+01 +7.6697144215986299e+01 +3.9639016987531127e+03 +2.4935168843910607e+05 +8.5199364764824938e+06 
+4.0000000000000002e-01 -1.0812996593753788e+00 +2.4155506272700680e+00 +2.1021587640086754e+01 +7.6687982621343068e+01 +3.9625397302757210e+03 +2.4941096570949419e+05 +8.5242013553332053e+06 
+5.0000000000000000e-01 -1.0812996714554115e+00 +2.4155505323935897e+00 +2.1021691994975537e+01 +7.6678163469190281e+01 +3.9612404786202956e+03 +2.4947549913702300e+05 +8.5278808990030233e+06 
+5.9999999999999998e-01 -1.0812996859256516e+00 +2.4155503824636675e+00 +2.1021785962711363e+01 +7.6668562421248055e+01 +3.9602058191032816e+03 +2.4954007051892983e+05 +8.5301691960674934e+06 
+6.9999999999999996e-01 -1.0812997026787021e+00 +2.4155501650909708e+00 +2.1021857288240362e+01 +7.6660055040955399e+01 +3.9596377017054147e+03 +2.4959946227741294e+05 +8.5302600114359111e+06 
+7.9999999999999993e-01 -1.0812997216072116e+00 +2.4155498678816274e+00 +2.1021893721283263e+01 +7.6653517014520588e+01 +3.9597379955510323e+03 +2.4964845617827904e+05 +8.5273474712651111e+06 
+8.9999999999999991e-01 -1.0812997426038249e+00 +2.4155494784457816e+00 +2.1021883011889834e+01 +7.6649823878953924e+01 +3.9607085500820231e+03 +2.4968183497323171e+05 +8.5206258417420089e+06 
+9.9999999999999989e-01 -1.0812997655612027e+00 +2.4155489843937108e+00 +2.1021812912019850e+01 +7.6649851159769852e+01 +3.9627511792621494e+03 +2.4969438154571882e+05 +8.5092895602070857e+06 
+1.0999999999999999e+00 -1.0812997904052379e+00 +2.4155483800526363e+00 +2.1021675490081957e+01 +7.6654117517146119e+01 +3.9659888740054666e+03 +2.4968289363675745e+05 +8.4928708694012575e+06 
+1.2000000000000000e+00 -1.0812998171930621e+00 +2.4155476858565486e+00 +2.1021479752624849e+01 +7.6661729768174567e+01 +3.9702387586820892e+03 +2.4965219295944495e+05 +8.4722032366539724e+06 
+1.3000000000000000e+00 -1.0812998460141063e+00 +2.4155469286264761e+00 +2.1021238849605453e+01 +7.6671444100024161e+01 +3.9752440190812968e+03 +2.4960910732896792e+05 +8.4484320974727981e+06 
+1.4000000000000001e+00 -1.0812998769577824e+00 +2.4155461351738476e+00 +2.1020965928261123e+01 +7.6682016984383154e+01 +3.9807478953834111e+03 +2.4956046286574643e+05 +8.4227026175189372e+06 
+1.5000000000000002e+00 -1.0812999101134961e+00 +2.4155453323185130e+00 +2.1020674134854644e+01 +7.6692204680179984e+01 +3.9864936509529402e+03 +2.4951308679225727e+05 +8.3961598329880740e+06 
+1.6000000000000003e+00 -1.0812999455706720e+00 +2.4155445468609900e+00 +2.1020376618412829e+01 +7.6700764024449924e+01 +3.9922244982507773e+03 +2.4947380291607021e+05 +8.3699490071829222e+06 
+1.7000000000000004e+00 -1.0812999834187380e+00 +2.4155438056199268e+00 +2.1020086526862713e+01 +7.6706451366872145e+01 +3.9976836846296260e+03 +2.4944943768243314e+05 +8.3452151917413166e+06 
+1.8000000000000005e+00 -1.0813000237471027e+00 +2.4155431353962964e+00 +2.1019817007422400e+01 +7.6708023593521318e+01 +4.0026144658714070e+03 +2.4944681432584624e+05 +8.3231033961384008e+06 
+1.9000000000000006e+00 -1.0813000666451826e+00 +2.4155425629922060e+00 +2.1019581206785368e+01 +7.6704237612707871e+01 +4.0067601256077123e+03 +2.4947275572232757e+05 +8.3047584364057360e+06 
+2.0000000000000004e+00 -1.0813001122023693e+00 +2.4155421152046492e+00 +2.1019392268469574e+01 +7.6693850514000403e+01 +4.0098640119862116e+03 +2.4953408353312008e+05 +8.2913247956394209e+06 
+2.1000000000000005e+00 -1.0813001604938595e+00 +2.4155418055500593e+00 +2.1019260028666391e+01 +7.6676158632983118e+01 +4.0117440426952112e+03 +2.4963464814987170e+05 +8.2835917141135857e+06 
+2.2000000000000006e+00 -1.0813002115434702e+00 +2.4155415962643927e+00 +2.1019182182276868e+01 +7.6652560362467952e+01 +4.0124877059447526e+03 +2.4976664774319177e+05 +8.2810773541923463e+06 
+2.3000000000000007e+00 -1.0813002653634951e+00 +2.4155414371878807e+00 +2.1019153654912330e+01 +7.6624967485805328e+01 +4.0122428540198775e+03 +2.4991941687022429e+05 +8.2830188881687010e+06 
+2.4000000000000008e+00 -1.0813003219662232e+00 +2.4155412781571015e+00 +2.1019169372554529e+01 +7.6595291858899245e+01 +4.0111573233852441e+03 +2.5008228979952549e+05 +8.2886535981745152e+06 
+2.5000000000000009e+00 -1.0813003813639555e+00 +2.4155410690101555e+00 +2.1019224261660515e+01 +7.6565445275988438e+01 +4.0093789421392216e+03 +2.5024460123866604e+05 +8.2972188170054564e+06 
+2.6000000000000010e+00 -1.0813004435689932e+00 +2.4155407595844571e+00 +2.1019313249018182e+01 +7.6537339519718728e+01 +4.0070555235934617e+03 +2.5039568610448792e+05 +8.3079519842679631e+06 
+2.7000000000000011e+00 -1.0813005085935985e+00 +2.4155402997236726e+00 +2.1019431257942117e+01 +7.6512886151278124e+01 +4.0043349315609116e+03 +2.5052488075510852e+05 +8.3200903571487395e+06 
+2.8000000000000012e+00 -1.0813005764500712e+00 +2.4155396392686037e+00 +2.1019573215166695e+01 +7.6493996763803608e+01 +4.0013649651489336e+03 +2.5062152155522720e+05 +8.3328715178321861e+06 
+2.9000000000000012e+00 -1.0813006471506927e+00 +2.4155387280584346e+00 +2.1019734046273218e+01 +7.6482582981094353e+01 +3.9982934314110194e+03 +2.5067494481096981e+05 +8.3455330657956228e+06 
+3.0000000000000013e+00 -1.0813007207077188e+00 +2.4155375159384542e+00 +2.1019908673298545e+01 +7.6480556181470931e+01 +3.9952681941546525e+03 +2.5067448848570968e+05 +8.3573123804876795e+06 
+3.1000000000000014e+00 -1.0813007971163044e+00 +2.4155359719426737e+00 +2.1020092600050315e+01 +7.6489138016966322e+01 +3.9924057650290983e+03 +2.5061334253205053e+05 +8.3676266921000592e+06 
+3.2000000000000015e+00 -1.0813008762973957e+00 +2.4155341397165322e+00 +2.1020282131827702e+01 +7.6506867132330882e+01 +3.9897391530106725e+03 +2.5049972679596502e+05 +8.3763889141749740e+06 
+3.3000000000000016e+00 -1.0813009581520279e+00 +2.4155320811339740e+00 +2.1020473410751588e+01 +7.6531625965199723e+01 +3.9872905476006122e+03 +2.5034554894117339e+05 +8.3835820152882021e+06 
+3.4000000000000017e+00 -1.0813010425812328e+00 +2.4155298580873503e+00 +2.1020662578614640e+01 +7.6561296424293076e+01 +3.9850821474741724e+03 +2.5016271970735700e+05 +8.3891889011434950e+06 
+3.5000000000000018e+00 -1.0813011294860944e+00 +2.4155275324560934e+00 +2.1020845783688401e+01 +7.6593760803307987e+01 +3.9831360370261009e+03 +2.4996314757859526e+05 +8.3931929831337892e+06 
+3.6000000000000019e+00 -1.0813012187676485e+00 +2.4155251661257515e+00 +2.1021019167694529e+01 +7.6626901237803906e+01 +3.9814744323501341e+03 +2.4975874191730082e+05 +8.3955770147529989e+06 
+3.7000000000000020e+00 -1.0813013103269846e+00 +2.4155228209853683e+00 +2.1021178879369330e+01 +7.6658599758173850e+01 +3.9801194240017589e+03 +2.4956141272138470e+05 +8.3963243089270499e+06 
+3.8000000000000020e+00 -1.0813014040651974e+00 +2.4155205589208810e+00 +2.1021321067691371e+01 +7.6686738516143379e+01 +3.9790931043619175e+03 +2.4938306920892853e+05 +8.3954181390899736e+06 
+3.9000000000000021e+00 -1.0813014998833657e+00 +2.4155184418270665e+00 +2.1021441879677948e+01 +7.6709199414027736e+01 +3.9784176152521277e+03 +2.4923562204500084e+05 +8.3928414902469330e+06 
+4.0000000000000018e+00 -1.0813015976826206e+00 +2.4155165315954528e+00 +2.1021537467923817e+01 +7.6723864466573005e+01 +3.9781150027194931e+03 +2.4913098121640715e+05 +8.3885777624502825e+06 
+4.1000000000000014e+00 -1.0813016973942791e+00 +2.4155148681055127e+00 +2.1021605434506647e+01 +7.6729279734166312e+01 +3.9781882600972608e+03 +2.4907747516921192e+05 +8.3826987943720808e+06 
+4.2000000000000011e+00 -1.0813017990728497e+00 +2.4155134031577399e+00 +2.1021650604590768e+01 +7.6726659468671670e+01 +3.9785244851803900e+03 +2.4906892886676895e+05 +8.3758419195933454e+06 
+4.3000000000000007e+00 -1.0813019028042825e+00 +2.4155120663703942e+00 +2.1021679975437511e+01 +7.6717893806170409e+01 +3.9789716015555628e+03 +2.4909546447169656e+05 +8.3688405922635226e+06 
+4.4000000000000004e+00 -1.0813020086744913e+00 +2.4155107873583028e+00 +2.1021700539751034e+01 +7.6704873026935360e+01 +3.9793776111927873e+03 +2.4914720303987517e+05 +8.3625279285788769e+06 
+4.5000000000000000e+00 -1.0813021167694119e+00 +2.4155094957337622e+00 +2.1021719293930296e+01 +7.6689487516194404e+01 +3.9795904391040326e+03 +2.4921426476891164e+05 +8.3577374338107705e+06 
+4.5999999999999996e+00 -1.0813022271749311e+00 +2.4155081211105163e+00 +2.1021743228429031e+01 +7.6673627670737375e+01 +3.9794581153372756e+03 +2.4928676946670606e+05 +8.3553021477340190e+06 
+4.6999999999999993e+00 -1.0813023399769468e+00 +2.4155065930933457e+00 +2.1021779335494802e+01 +7.6659184180733774e+01 +3.9788286251317222e+03 +2.4935483496286423e+05 +8.3560553624174446e+06 
+4.7999999999999989e+00 -1.0813024552613357e+00 +2.4155048412881603e+00 +2.1021834605557629e+01 +7.6648047749180364e+01 +3.9775499791064003e+03 +2.4940857870761474e+05 +8.3608302858528607e+06 
+4.8999999999999986e+00 -1.0813025731139609e+00 +2.4155027952903985e+00 +2.1021916028105068e+01 +7.6642109430412120e+01 +3.9754701927358547e+03 +2.4943811576842476e+05 +8.3704601499474691e+06 
+4.9999999999999982e+00 -1.0813026936206420e+00 +2.4155003847089711e+00 +2.1022030587608302e+01 +7.6643259939715591e+01 +3.9724373703376245e+03 +2.4943356280558842e+05 +8.3857777893468402e+06 
+5.0999999999999979e+00 -1.0813028168355625e+00 +2.4154975628270949e+00 +2.1022181927795103e+01 +7.6652806782823632e+01 +3.9683708857783058e+03 +2.4938794030779559e+05 +8.4072379522165563e+06 
+5.1999999999999975e+00 -1.0813029426888852e+00 +2.4154943822685628e+00 +2.1022359187362170e+01 +7.6669542368980672e+01 +3.9635054764400716e+03 +2.4930713253795702e+05 +8.4336290927048940e+06 
+5.2999999999999972e+00 -1.0813030710800158e+00 +2.4154909218094245e+00 +2.1022547518239971e+01 +7.6691579713910556e+01 +3.9581641627361350e+03 +2.4920057756202805e+05 +8.4632740374632161e+06 
+5.3999999999999968e+00 -1.0813032019082711e+00 +2.4154872602347250e+00 +2.1022732061034187e+01 +7.6717031464995713e+01 +3.9526701901062438e+03 +2.4907771615757002e+05 +8.4944945035283938e+06 
+5.4999999999999964e+00 -1.0813033350731218e+00 +2.4154834763390132e+00 +2.1022897974512038e+01 +7.6744009903194765e+01 +3.9473464689451730e+03 +2.4894799178794195e+05 +8.5256137672982626e+06 
+5.5999999999999961e+00 -1.0813034704739253e+00 +2.4154796489247770e+00 +2.1023030402262467e+01 +7.6770626965969697e+01 +3.9425162132136065e+03 +2.4882085054909316e+05 +8.5549536087636556e+06 
+5.6999999999999957e+00 -1.0813036080101284e+00 +2.4154758568063852e+00 +2.1023114498713923e+01 +7.6794994134963488e+01 +3.9385024409143730e+03 +2.4870574182770142e+05 +8.5808366998065747e+06 
+5.7999999999999954e+00 -1.0813037475812204e+00 +2.4154721787985860e+00 +2.1023135422566156e+01 +7.6815222758764591e+01 +3.9356280998329698e+03 +2.4861211648009371e+05 +8.6015860082363114e+06 
+5.8999999999999950e+00 -1.0813038890866447e+00 +2.4154686937353871e+00 +2.1023078325588070e+01 +7.6829423524196500e+01 +3.9342162863422664e+03 +2.4854942985002502e+05 +8.6155237361217085e+06 
+5.9999999999999947e+00 -1.0813040324259124e+00 +2.4154654804520348e+00 +2.1022928367622384e+01 +7.6835706928780368e+01 +3.9345899515202736e+03 +2.4852713922311339e+05 +8.6209727460866570e+06 
+6.0999999999999943e+00 -1.0813041775452448e+00 +2.4154625952744913e+00 +2.1022676856193723e+01 +7.6832779181228673e+01 +3.9369606679846811e+03 +2.4855162215961175e+05 +8.6167689989489242e+06 
+6.1999999999999940e+00 -1.0813043245685570e+00 +2.4154599974885267e+00 +2.1022340134216666e+01 +7.6821899627376737e+01 +3.9410747702049193e+03 +2.4861602650159565e+05 +8.6039092100580633e+06 
+6.2999999999999936e+00 -1.0813044736627571e+00 +2.4154576201799798e+00 +2.1021941067658808e+01 +7.6805014880929136e+01 +3.9465541209757112e+03 +2.4870993385110589e+05 +8.5839736021094173e+06 
+6.3999999999999932e+00 -1.0813046249947489e+00 +2.4154553964084275e+00 +2.1021502522723630e+01 +7.6784072443601573e+01 +3.9530205659845760e+03 +2.4882292012971034e+05 +8.5585425257382132e+06 
+6.4999999999999929e+00 -1.0813047787313934e+00 +2.4154532592149844e+00 +2.1021047360506110e+01 +7.6761020466337243e+01 +3.9600960374261695e+03 +2.4894455695371228e+05 +8.5291959644887280e+06 
+6.5999999999999925e+00 -1.0813049350395321e+00 +2.4154511416281701e+00 +2.1020598439681173e+01 +7.6737807575042851e+01 +3.9674025031640053e+03 +2.4906441264650915e+05 +8.4975137783334833e+06 
+6.6999999999999922e+00 -1.0813050940860087e+00 +2.4154489766544236e+00 +2.1020178620242270e+01 +7.6716383154301141e+01 +3.9745618936304554e+03 +2.4917205055706616e+05 +8.4650760535526443e+06 
+6.7999999999999918e+00 -1.0813052560376220e+00 +2.4154466972811974e+00 +2.1019810756769274e+01 +7.6698697262180488e+01 +3.9811962288127929e+03 +2.4925702953179993e+05 +8.4334625053859968e+06 
+6.8999999999999915e+00 -1.0813054210611579e+00 +2.4154442364712572e+00 +2.1019517702768749e+01 +7.6686700809673638e+01 +3.9869275358244940e+03 +2.4930890283214522e+05 +8.4042528698756378e+06 
+6.9999999999999911e+00 -1.0813055893233732e+00 +2.4154415271708380e+00 +2.1019322308251365e+01 +7.6682345280350646e+01 +3.9913778944469418e+03 +2.4931721980346876e+05 +8.3790266865031049e+06 
+7.0999999999999908e+00 -1.0813057609364267e+00 +2.4154385189811705e+00 +2.1019240821417043e+01 +7.6686979297570204e+01 +3.9942573538017923e+03 +2.4927490716800434e+05 +8.3590705768863373e+06 
+7.1999999999999904e+00 -1.0813059358043946e+00 +2.4154352306882192e+00 +2.1019263072487945e+01 +7.6699676386909005e+01 +3.9956489450428326e+03 +2.4918699037782149e+05 +8.3443689233679455e+06 
+7.2999999999999901e+00 -1.0813061137808715e+00 +2.4154316992618332e+00 +2.1019372121879538e+01 +7.6718964925779801e+01 +3.9957365715117139e+03 +2.4906121382236856e+05 +8.3345402184662474e+06 
+7.3999999999999897e+00 -1.0813062947195105e+00 +2.4154279616836778e+00 +2.1019551038168945e+01 +7.6743372887676685e+01 +3.9947039903600476e+03 +2.4890532426245295e+05 +8.3292036190775055e+06 
+7.4999999999999893e+00 -1.0813064784739264e+00 +2.4154240549577497e+00 +2.1019782885002542e+01 +7.6771427554087850e+01 +3.9927350631014228e+03 +2.4872707259989512e+05 +8.3279777445277730e+06 
+7.5999999999999890e+00 -1.0813066648977654e+00 +2.4154200161173831e+00 +2.1020050730213523e+01 +7.6801655312268224e+01 +3.9900135805212440e+03 +2.4853421504940715e+05 +8.3304815096102217e+06 
+7.6999999999999886e+00 -1.0813068538446950e+00 +2.4154158822098690e+00 +2.1020337643415431e+01 +7.6832582053291674e+01 +3.9867233241229792e+03 +2.4833451095605225e+05 +8.3363337870655302e+06 
+7.7999999999999883e+00 -1.0813070451683762e+00 +2.4154116903102572e+00 +2.1020626694675631e+01 +7.6862732840182943e+01 +3.9830480662760710e+03 +2.4813572453610727e+05 +8.3451534790618913e+06 
+7.8999999999999879e+00 -1.0813072387224920e+00 +2.4154074775138961e+00 +2.1020900955392914e+01 +7.6890632050413387e+01 +3.9791715797795573e+03 +2.4794562426448826e+05 +8.3565593972227154e+06 
+7.9999999999999876e+00 -1.0813074343607303e+00 +2.4154032809458768e+00 +2.1021143499355325e+01 +7.6914803219229555e+01 +3.9752776043637418e+03 +2.4777198362884577e+05 +8.3701704659005981e+06 
+8.0999999999999872e+00 -1.0813076319657706e+00 +2.4153991324061614e+00 +2.1021340410157343e+01 +7.6934118785294729e+01 +3.9715395088349073e+03 +2.4762076782269121e+05 +8.3855082782236841e+06 
+8.1999999999999869e+00 -1.0813078315373150e+00 +2.4153950472245689e+00 +2.1021490430960554e+01 +7.6948421995176616e+01 +3.9680569898447993e+03 +2.4749395157524670e+05 +8.4018582799228113e+06 
+8.2999999999999865e+00 -1.0813080331053833e+00 +2.4153910376103345e+00 +2.1021595709824073e+01 +7.6957701312649618e+01 +3.9649034495227447e+03 +2.4739331468553701e+05 +8.4184771596988328e+06 
+8.3999999999999861e+00 -1.0813082367000082e+00 +2.4153871157664129e+00 +2.1021658397127979e+01 +7.6961945316465247e+01 +3.9621522320511108e+03 +2.4732063689635016e+05 +8.4346218892713357e+06 
+8.4999999999999858e+00 -1.0813084423512707e+00 +2.4153832938731954e+00 +2.1021680648937210e+01 +7.6961143259001531e+01 +3.9598765628325023e+03 +2.4727769408402173e+05 +8.4495500385842733e+06 
+8.5999999999999854e+00 -1.0813086500892428e+00 +2.4153795841106298e+00 +2.1021664620901255e+01 +7.6955284394681883e+01 +3.9581496550380193e+03 +2.4726626224555759e+05 +8.4625192949384507e+06 
+8.6999999999999851e+00 -1.0813088599440543e+00 +2.4153759986341607e+00 +2.1021612475846144e+01 +7.6944358700618480e+01 +3.9570445746937671e+03 +2.4728811324552240e+05 +8.4727880773639455e+06 
+8.7999999999999847e+00 -1.0813090719457765e+00 +2.4153725495883727e+00 +2.1021526369704127e+01 +7.6928356475129689e+01 +3.9566344954695151e+03 +2.4734501716969986e+05 +8.4796143636832181e+06 
+8.8999999999999844e+00 -1.0813092861246161e+00 +2.4153692491035517e+00 +2.1021408475123788e+01 +7.6907268438124518e+01 +3.9569922625947538e+03 +2.4743874175357688e+05 +8.4822577278411426e+06 
+8.9999999999999840e+00 -1.0813095025107031e+00 +2.4153661092936334e+00 +2.1021260957152283e+01 +7.6881085741837467e+01 +3.9581908298148396e+03 +2.4757105207512336e+05 +8.4799772995827626e+06 
+9.0999999999999837e+00 -1.0813097211441776e+00 +2.4153631322973768e+00 +2.1021087605759597e+01 +7.6849948400705443e+01 +3.9602421260474202e+03 +2.4774240924499277e+05 +8.4724041426013634e+06 
+9.1999999999999833e+00 -1.0813099420856822e+00 +2.4153602706478168e+00 +2.1020897198820720e+01 +7.6815075084485372e+01 +3.9629463393336118e+03 +2.4794480126615672e+05 +8.4605717543959580e+06 
+9.2999999999999829e+00 -1.0813101653958124e+00 +2.4153574620109648e+00 +2.1020699405920464e+01 +7.6778079164461758e+01 +3.9660564206659133e+03 +2.4816718022914522e+05 +8.4458615302144308e+06 
+9.3999999999999826e+00 -1.0813103911350799e+00 +2.4153546440421310e+00 +2.1020503885782588e+01 +7.6740574475404344e+01 +3.9693255256824577e+03 +2.4839849441885357e+05 +8.4296539629988521e+06 
+9.4999999999999822e+00 -1.0813106193639861e+00 +2.4153517544056551e+00 +2.1020320295352882e+01 +7.6704174663411507e+01 +3.9725068592551561e+03 +2.4862769280827785e+05 +8.4133292750060316e+06 
+9.5999999999999819e+00 -1.0813108501429241e+00 +2.4153487307570458e+00 +2.1020158278466120e+01 +7.6670493683040689e+01 +3.9753538812686797e+03 +2.4884372222803161e+05 +8.3982664717955869e+06 
+9.6999999999999815e+00 -1.0813110835323068e+00 +2.4153455107666995e+00 +2.1020027480608984e+01 +7.6641145125621634e+01 +3.9776200344068288e+03 +2.4903553121824603e+05 +8.3858446127193486e+06 
+9.7999999999999812e+00 -1.0813113195924513e+00 +2.4153420320878740e+00 +2.1019937534768946e+01 +7.6617743143626981e+01 +3.9790590151676756e+03 +2.4919206465565483e+05 +8.3774415151134571e+06 
+9.8999999999999808e+00 -1.0813115583836304e+00 +2.4153382323914738e+00 +2.1019898069098918e+01 +7.6601901439166625e+01 +3.9794246155811943e+03 +2.4930226964422746e+05 +8.3744345431214441e+06 
+9.9999999999999805e+00 -1.0813117999660598e+00 +2.4153340493345437e+00 +2.1019918702422252e+01 +7.6595234206293100e+01 +3.9784708333742742e+03 +2.4935509028196146e+05 +8.3782000437832000e+06 
+1.0099999999999980e+01 -1.0813120443730682e+00 +2.4153294407579495e+00 +2.1020004932549384e+01 +7.6598840499537062e+01 +3.9760444420413737e+03 +2.4934279294579386e+05 +8.3896386263802759e+06 
