# trajectory
# s[mm] rx[mm] ry[mm] rz[mm] px[rad] py[rad] pz[rad]
0.0000000000000000e+00 +9.1013000000000002e+00 +0.0000000000000000e+00 +0.0000000000000000e+00 +0.0000000000000000e+00 +0.0000000000000000e+00 +1.0000000000000000e+00
1.0000000000000001e-01 +9.1012994852590055e+00 +0.0000000000000000e+00 +9.9999999998233613e-02 -1.0294819894800241e-05 +0.0000000000000000e+00 +9.9999999994700839e-01
2.0000000000000001e-01 +9.1012979410360195e+00 +0.0000000000000000e+00 +1.9999999998586893e-01 -2.0589639812186063e-05 +0.0000000000000000e+00 +9.9999999978803344e-01
3.0000000000000004e-01 +9.1012953673310406e+00 +0.0000000000000000e+00 +2.9999999995230753e-01 -3.0884459774751628e-05 +0.0000000000000000e+00 +9.9999999952307517e-01
4.0000000000000002e-01 +9.1012917641440616e+00 +0.0000000000000000e+00 +3.9999999988695117e-01 -4.1179279805100469e-05 +0.0000000000000000e+00 +9.9999999915213356e-01
5.0000000000000000e-01 +9.1012871314750754e+00 +0.0000000000000000e+00 +4.9999999977920151e-01 -5.1474099925845493e-05 +0.0000000000000000e+00 +9.9999999867520861e-01
5.9999999999999998e-01 +9.1012814693240713e+00 +0.0000000000000000e+00 +5.9999999961846018e-01 -6.1768920159608945e-05 +0.0000000000000000e+00 +9.9999999809230034e-01
6.9999999999999996e-01 +9.1012747776910388e+00 +0.0000000000000000e+00 +6.9999999939412882e-01 -7.2063740529022425e-05 +0.0000000000000000e+00 +9.9999999740340872e-01
7.9999999999999993e-01 +9.1012670565759617e+00 +0.0000000000000000e+00 +7.9999999909560915e-01 -8.2358561056726848e-05 +0.0000000000000000e+00 +9.9999999660853378e-01
8.9999999999999991e-01 +9.1012583059788223e+00 +0.0000000000000000e+00 +8.9999999871230285e-01 -9.2653381765372430e-05 +0.0000000000000000e+00 +9.9999999570767550e-01
9.9999999999999989e-01 +9.1012485258996012e+00 +0.0000000000000000e+00 +9.9999999823361152e-01 -1.0294820267761863e-04 +0.0000000000000000e+00 +9.9999999470083389e-01
1.0999999999999999e+00 +9.1012377163382787e+00 +0.0000000000000000e+00 +1.0999999976489367e+00 -1.1324302381613969e-04 +0.0000000000000000e+00 +9.9999999358800884e-01
1.2000000000000000e+00 +9.1012258772948300e+00 +0.0000000000000000e+00 +1.1999999969476804e+00 -1.2353784520368567e-04 +0.0000000000000000e+00 +9.9999999236920045e-01
1.3000000000000000e+00 +9.1012130087692285e+00 +0.0000000000000000e+00 +1.2999999961192441e+00 -1.3383266686314339e-04 +0.0000000000000000e+00 +9.9999999104440873e-01
1.4000000000000001e+00 +9.1011991107614474e+00 +0.0000000000000000e+00 +1.3999999951530293e+00 -1.4412748881754208e-04 +0.0000000000000000e+00 +9.9999998961363357e-01
1.5000000000000002e+00 +9.1011841832714548e+00 +0.0000000000000000e+00 +1.4999999940384379e+00 -1.5442231109005322e-04 +0.0000000000000000e+00 +9.9999998807687496e-01
1.6000000000000003e+00 +9.1011682262992188e+00 +0.0000000000000000e+00 +1.5999999927648714e+00 -1.6471713370399052e-04 +0.0000000000000000e+00 +9.9999998643413290e-01
1.7000000000000004e+00 +9.1011512398447021e+00 +0.0000000000000000e+00 +1.6999999913217316e+00 -1.7501195668280991e-04 +0.0000000000000000e+00 +9.9999998468540741e-01
1.8000000000000005e+00 +9.1011332239078691e+00 +0.0000000000000000e+00 +1.7999999896984200e+00 -1.8530678005010946e-04 +0.0000000000000000e+00 +9.9999998283069846e-01
1.9000000000000006e+00 +9.1011141784886789e+00 +0.0000000000000000e+00 +1.8999999878843385e+00 -1.9560160382962936e-04 +0.0000000000000000e+00 +9.9999998087000608e-01
2.0000000000000004e+00 +9.1010941035870889e+00 +0.0000000000000000e+00 +1.9999999858688886e+00 -2.0589642804525189e-04 +0.0000000000000000e+00 +9.9999997880333025e-01
2.1000000000000005e+00 +9.1010729992030548e+00 +0.0000000000000000e+00 +2.0999999836414718e+00 -2.1619125272097622e-04 +0.0000000000000000e+00 +9.9999997663067086e-01
2.2000000000000006e+00 +9.1010508653365285e+00 +0.0000000000000000e+00 +2.1999999811914899e+00 -2.2648607788064326e-04 +0.0000000000000000e+00 +9.9999997435202792e-01
2.3000000000000007e+00 +9.1010277019874621e+00 +0.0000000000000000e+00 +2.2999999785083447e+00 -2.3678090354766043e-04 +0.0000000000000000e+00 +9.9999997196740142e-01
2.4000000000000008e+00 +9.1010035091558024e+00 +0.0000000000000000e+00 +2.3999999755814376e+00 -2.4707572974497671e-04 +0.0000000000000000e+00 +9.9999996947679137e-01
2.5000000000000009e+00 +9.1009782868414959e+00 +0.0000000000000000e+00 +2.4999999724001705e+00 -2.5737055649508291e-04 +0.0000000000000000e+00 +9.9999996688019777e-01
2.6000000000000010e+00 +9.1009520350444859e+00 +0.0000000000000000e+00 +2.5999999689539446e+00 -2.6766538382001157e-04 +0.0000000000000000e+00 +9.9999996417762049e-01
2.7000000000000011e+00 +9.1009247537647138e+00 +0.0000000000000000e+00 +2.6999999652321618e+00 -2.7796021174133741e-04 +0.0000000000000000e+00 +9.9999996136905955e-01
2.8000000000000012e+00 +9.1008964430021173e+00 +0.0000000000000000e+00 +2.7999999612242239e+00 -2.8825504028017732e-04 +0.0000000000000000e+00 +9.9999995845451495e-01
2.9000000000000012e+00 +9.1008671027566361e+00 +0.0000000000000000e+00 +2.8999999569195323e+00 -2.9854986945719060e-04 +0.0000000000000000e+00 +9.9999995543398668e-01
3.0000000000000013e+00 +9.1008367330282045e+00 +0.0000000000000000e+00 +2.9999999523074887e+00 -3.0884469929257921e-04 +0.0000000000000000e+00 +9.9999995230747463e-01
3.1000000000000014e+00 +9.1008053338167549e+00 +0.0000000000000000e+00 +3.0999999473774946e+00 -3.1913952980614608e-04 +0.0000000000000000e+00 +9.9999994907497891e-01
3.2000000000000015e+00 +9.1007729051222199e+00 +0.0000000000000000e+00 +3.1999999421189518e+00 -3.2943436101793547e-04 +0.0000000000000000e+00 +9.9999994573649942e-01
3.3000000000000016e+00 +9.1007394469445284e+00 +0.0000000000000000e+00 +3.2999999365212616e+00 -3.3972919294887274e-04 +0.0000000000000000e+00 +9.9999994229203604e-01
3.4000000000000017e+00 +9.1007049592836058e+00 +0.0000000000000000e+00 +3.3999999305738262e+00 -3.5002402562082268e-04 +0.0000000000000000e+00 +9.9999993874158888e-01
3.5000000000000018e+00 +9.1006694421393792e+00 +0.0000000000000000e+00 +3.4999999242660467e+00 -3.6031885905658942e-04 +0.0000000000000000e+00 +9.9999993508515783e-01
3.6000000000000019e+00 +9.1006328955117688e+00 +0.0000000000000000e+00 +3.5999999175873247e+00 -3.7061369327991649e-04 +0.0000000000000000e+00 +9.9999993132274290e-01
3.7000000000000020e+00 +9.1005953194006963e+00 +0.0000000000000000e+00 +3.6999999105270622e+00 -3.8090852831548663e-04 +0.0000000000000000e+00 +9.9999992745434396e-01
3.8000000000000020e+00 +9.1005567138060783e+00 +0.0000000000000000e+00 +3.7999999030746605e+00 -3.9120336418892193e-04 +0.0000000000000000e+00 +9.9999992347996103e-01
3.9000000000000021e+00 +9.1005170787278296e+00 +0.0000000000000000e+00 +3.8999998952195214e+00 -4.0149820092678354e-04 +0.0000000000000000e+00 +9.9999991939959409e-01
4.0000000000000018e+00 +9.1004764141658629e+00 +0.0000000000000000e+00 +3.9999998869510462e+00 -4.1179303855657192e-04 +0.0000000000000000e+00 +9.9999991521324316e-01
4.1000000000000014e+00 +9.1004347201200879e+00 +0.0000000000000000e+00 +4.0999998782586369e+00 -4.2208787710656422e-04 +0.0000000000000000e+00 +9.9999991092090812e-01
4.2000000000000011e+00 +9.1003919965904103e+00 +0.0000000000000000e+00 +4.1999998691316947e+00 -4.3238271660402914e-04 +0.0000000000000000e+00 +9.9999990652258886e-01
4.3000000000000007e+00 +9.1003482435767342e+00 +0.0000000000000000e+00 +4.2999998595596214e+00 -4.4267755707344124e-04 +0.0000000000000000e+00 +9.9999990201828548e-01
4.4000000000000004e+00 +9.1003034610789619e+00 +0.0000000000000000e+00 +4.3999998495318184e+00 -4.5297239853631837e-04 +0.0000000000000000e+00 +9.9999989740799788e-01
4.5000000000000000e+00 +9.1002576490969922e+00 +0.0000000000000000e+00 +4.4999998390376881e+00 -4.6326724101122141e-04 +0.0000000000000000e+00 +9.9999989269172596e-01
4.5999999999999996e+00 +9.1002108076307238e+00 +0.0000000000000000e+00 +4.5999998280666308e+00 -4.7356208451375360e-04 +0.0000000000000000e+00 +9.9999988786946981e-01
4.6999999999999993e+00 +9.1001629366800536e+00 +0.0000000000000000e+00 +4.6999998166080488e+00 -4.8385692905656043e-04 +0.0000000000000000e+00 +9.9999988294122932e-01
4.7999999999999989e+00 +9.1001140362448769e+00 +0.0000000000000000e+00 +4.7999998046513435e+00 -4.9415177464932891e-04 +0.0000000000000000e+00 +9.9999987790700440e-01
4.8999999999999986e+00 +9.1000641063250889e+00 +0.0000000000000000e+00 +4.8999997921859162e+00 -5.0444662129878735e-04 +0.0000000000000000e+00 +9.9999987276679503e-01
4.9999999999999982e+00 +9.1000131469205829e+00 +0.0000000000000000e+00 +4.9999997792011692e+00 -5.1474146900870469e-04 +0.0000000000000000e+00 +9.9999986752060122e-01
5.0999999999999979e+00 +9.0999611580312525e+00 +0.0000000000000000e+00 +5.0999997656865039e+00 -5.2503631778019982e-04 +0.0000000000000000e+00 +9.9999986216842296e-01
5.1999999999999975e+00 +9.0999081396569910e+00 +0.0000000000000000e+00 +5.1999997516313217e+00 -5.3533116761514919e-04 +0.0000000000000000e+00 +9.9999985671026015e-01
5.2999999999999972e+00 +9.0998540917976936e+00 +0.0000000000000000e+00 +5.2999997370250238e+00 -5.4562601851959494e-04 +0.0000000000000000e+00 +9.9999985114611278e-01
5.3999999999999968e+00 +9.0997990144532519e+00 +0.0000000000000000e+00 +5.3999997218570117e+00 -5.5592087050405545e-04 +0.0000000000000000e+00 +9.9999984547598086e-01
5.4999999999999964e+00 +9.0997429076235559e+00 +0.0000000000000000e+00 +5.4999997061166868e+00 -5.6621572358352633e-04 +0.0000000000000000e+00 +9.9999983969986428e-01
5.5999999999999961e+00 +9.0996857713084971e+00 +0.0000000000000000e+00 +5.5999996897934512e+00 -5.7651057777748137e-04 +0.0000000000000000e+00 +9.9999983381776303e-01
5.6999999999999957e+00 +9.0996276055079619e+00 +0.0000000000000000e+00 +5.6999996728767064e+00 -5.8680543310987352e-04 +0.0000000000000000e+00 +9.9999982782967700e-01
5.7999999999999954e+00 +9.0995684102218366e+00 +0.0000000000000000e+00 +5.7999996553558537e+00 -5.9710028960913576e-04 +0.0000000000000000e+00 +9.9999982173560620e-01
5.8999999999999950e+00 +9.0995081854500004e+00 +0.0000000000000000e+00 +5.8999996372202945e+00 -6.0739514730818230e-04 +0.0000000000000000e+00 +9.9999981553555051e-01
5.9999999999999947e+00 +9.0994469311923325e+00 +0.0000000000000000e+00 +5.9999996184594311e+00 -6.1769000624440956e-04 +0.0000000000000000e+00 +9.9999980922950993e-01
6.0999999999999943e+00 +9.0993846474487086e+00 +0.0000000000000000e+00 +6.0999995990626639e+00 -6.2798486645942737e-04 +0.0000000000000000e+00 +9.9999980281748435e-01
6.1999999999999940e+00 +9.0993213342189971e+00 +0.0000000000000000e+00 +6.1999995790193951e+00 -6.3827972799608882e-04 +0.0000000000000000e+00 +9.9999979629947366e-01
6.2999999999999936e+00 +9.0992569915030632e+00 +0.0000000000000000e+00 +6.2999995583190262e+00 -6.4857459089551932e-04 +0.0000000000000000e+00 +9.9999978967547787e-01
6.3999999999999932e+00 +9.0991916193007700e+00 +0.0000000000000000e+00 +6.3999995369509586e+00 -6.5886945519684546e-04 +0.0000000000000000e+00 +9.9999978294549696e-01
6.4999999999999929e+00 +9.0991252176119755e+00 +0.0000000000000000e+00 +6.4999995149045935e+00 -6.6916432093719390e-04 +0.0000000000000000e+00 +9.9999977610953072e-01
6.5999999999999925e+00 +9.0990577864365338e+00 +0.0000000000000000e+00 +6.5999994921693323e+00 -6.7945918815169050e-04 +0.0000000000000000e+00 +9.9999976916757916e-01
6.6999999999999922e+00 +9.0989893257742960e+00 +0.0000000000000000e+00 +6.6999994687345765e+00 -6.8975405687345928e-04 +0.0000000000000000e+00 +9.9999976211964214e-01
6.7999999999999918e+00 +9.0989198356251091e+00 +0.0000000000000000e+00 +6.7999994445897283e+00 -7.0004892713362117e-04 +0.0000000000000000e+00 +9.9999975496571969e-01
6.8999999999999915e+00 +9.0988493159888169e+00 +0.0000000000000000e+00 +6.8999994197241881e+00 -7.1034379896129263e-04 +0.0000000000000000e+00 +9.9999974770581168e-01
6.9999999999999911e+00 +9.0987777668652630e+00 +0.0000000000000000e+00 +6.9999993941273582e+00 -7.2063867238358491e-04 +0.0000000000000000e+00 +9.9999974033991812e-01
7.0999999999999908e+00 +9.0987051882542858e+00 +0.0000000000000000e+00 +7.0999993677886390e+00 -7.3093354742557635e-04 +0.0000000000000000e+00 +9.9999973286803889e-01
7.1999999999999904e+00 +9.0986315801557236e+00 +0.0000000000000000e+00 +7.1999993406974330e+00 -7.4122842411002436e-04 +0.0000000000000000e+00 +9.9999972529017389e-01
7.2999999999999901e+00 +9.0985569425694095e+00 +0.0000000000000000e+00 +7.2999993128431413e+00 -7.5152330245707819e-04 +0.0000000000000000e+00 +9.9999971760632300e-01
7.3999999999999897e+00 +9.0984812754951765e+00 +0.0000000000000000e+00 +7.3999992842151654e+00 -7.6181818248425312e-04 +0.0000000000000000e+00 +9.9999970981648623e-01
7.4999999999999893e+00 +9.0984045789328558e+00 +0.0000000000000000e+00 +7.4999992548029057e+00 -7.7211306420643059e-04 +0.0000000000000000e+00 +9.9999970192066356e-01
7.5999999999999890e+00 +9.0983268528822787e+00 +0.0000000000000000e+00 +7.5999992245957646e+00 -7.8240794763585861e-04 +0.0000000000000000e+00 +9.9999969391885479e-01
7.6999999999999886e+00 +9.0982480973432729e+00 +0.0000000000000000e+00 +7.6999991935831433e+00 -7.9270283278215189e-04 +0.0000000000000000e+00 +9.9999968581106002e-01
7.7999999999999883e+00 +9.0981683123156660e+00 +0.0000000000000000e+00 +7.7999991617544433e+00 -8.0299771965229214e-04 +0.0000000000000000e+00 +9.9999967759727904e-01
7.8999999999999879e+00 +9.0980874977992858e+00 +0.0000000000000000e+00 +7.8999991290990659e+00 -8.1329260825062854e-04 +0.0000000000000000e+00 +9.9999966927751194e-01
7.9999999999999876e+00 +9.0980056537939582e+00 +0.0000000000000000e+00 +7.9999990956064124e+00 -8.2358749857887770e-04 +0.0000000000000000e+00 +9.9999966085175851e-01
8.0999999999999872e+00 +9.0979227802995126e+00 +0.0000000000000000e+00 +8.0999990612658852e+00 -8.3388239063646630e-04 +0.0000000000000000e+00 +9.9999965232001875e-01
8.1999999999999869e+00 +9.0978388773157732e+00 +0.0000000000000000e+00 +8.1999990260668838e+00 -8.4417728442429335e-04 +0.0000000000000000e+00 +9.9999964368229266e-01
8.2999999999999865e+00 +9.0977539448425695e+00 +0.0000000000000000e+00 +8.2999989899988105e+00 -8.5447217994849306e-04 +0.0000000000000000e+00 +9.9999963493858013e-01
8.3999999999999861e+00 +9.0976679828797256e+00 +0.0000000000000000e+00 +8.3999989530510675e+00 -8.6476707722077753e-04 +0.0000000000000000e+00 +9.9999962608888104e-01
8.4999999999999858e+00 +9.0975809914270656e+00 +0.0000000000000000e+00 +8.4999989152130553e+00 -8.7506197625843759e-04 +0.0000000000000000e+00 +9.9999961713319541e-01
8.5999999999999854e+00 +9.0974929704844136e+00 +0.0000000000000000e+00 +8.5999988764741744e+00 -8.8535687708434364e-04 +0.0000000000000000e+00 +9.9999960807152311e-01
8.6999999999999851e+00 +9.0974039200515886e+00 +0.0000000000000000e+00 +8.6999988368238270e+00 -8.9565177972694655e-04 +0.0000000000000000e+00 +9.9999959890386414e-01
8.7999999999999847e+00 +9.0973138401284075e+00 +0.0000000000000000e+00 +8.7999987962514137e+00 -9.0594668422027845e-04 +0.0000000000000000e+00 +9.9999958963021829e-01
8.8999999999999844e+00 +9.0972227307146820e+00 +0.0000000000000000e+00 +8.8999987547463366e+00 -9.1624159060395369e-04 +0.0000000000000000e+00 +9.9999958025058555e-01
8.9999999999999840e+00 +9.0971305918102221e+00 +0.0000000000000000e+00 +8.9999987122979981e+00 -9.2653649892316964e-04 +0.0000000000000000e+00 +9.9999957076496582e-01
9.0999999999999837e+00 +9.0970374234148306e+00 +0.0000000000000000e+00 +9.0999986688957968e+00 -9.3683140922820856e-04 +0.0000000000000000e+00 +9.9999956117335886e-01
9.1999999999999833e+00 +9.0969432255283085e+00 +0.0000000000000000e+00 +9.1999986245291367e+00 -9.4712632156894634e-04 +0.0000000000000000e+00 +9.9999955147576469e-01
9.2999999999999829e+00 +9.0968479981504480e+00 +0.0000000000000000e+00 +9.2999985791874167e+00 -9.5742123598935986e-04 +0.0000000000000000e+00 +9.9999954167218319e-01
9.3999999999999826e+00 +9.0967517412810395e+00 +0.0000000000000000e+00 +9.3999985328600406e+00 -9.6771615252702657e-04 +0.0000000000000000e+00 +9.9999953176261425e-01
9.4999999999999822e+00 +9.0966544549198698e+00 +0.0000000000000000e+00 +9.4999984855364072e+00 -9.7801107121312349e-04 +0.0000000000000000e+00 +9.9999952174705775e-01
9.5999999999999819e+00 +9.0965561390667240e+00 +0.0000000000000000e+00 +9.5999984372059188e+00 -9.8830599207242516e-04 +0.0000000000000000e+00 +9.9999951162551359e-01
9.6999999999999815e+00 +9.0964567937213818e+00 +0.0000000000000000e+00 +9.6999983878579776e+00 -9.9860091512330319e-04 +0.0000000000000000e+00 +9.9999950139798166e-01
9.7999999999999812e+00 +9.0963564188836248e+00 +0.0000000000000000e+00 +9.7999983374819823e+00 -1.0088958403777243e-03 +0.0000000000000000e+00 +9.9999949106446195e-01
9.8999999999999808e+00 +9.0962550145532326e+00 +0.0000000000000000e+00 +9.8999982860673370e+00 -1.0191907678412492e-03 +0.0000000000000000e+00 +9.9999948062495436e-01
9.9999999999999805e+00 +9.0961525807299832e+00 +0.0000000000000000e+00 +9.9999982336034403e+00 -1.0294856975130312e-03 +0.0000000000000000e+00 +9.9999947007945877e-01
1.0099999999999980e+01 +9.0960491174136564e+00 +0.0000000000000000e+00 +1.0099998180079695e+01 -1.0397806293863607e-03 +0.0000000000000000e+00 +9.9999945942797519e-01
1.0199999999999980e+01 +9.0959446246040319e+00 +0.0000000000000000e+00 +1.0199998125485502e+01 -1.0500755634546769e-03 +0.0000000000000000e+00 +9.9999944867050350e-01
1.0299999999999979e+01 +9.0958391023008911e+00 +0.0000000000000000e+00 +1.0299998069810263e+01 -1.0603704997175797e-03 +0.0000000000000000e+00 +9.9999943780704359e-01
1.0399999999999979e+01 +9.0957325505040139e+00 +0.0000000000000000e+00 +1.0399998013043378e+01 -1.0706654381813776e-03 +0.0000000000000000e+00 +9.9999942683759546e-01
1.0499999999999979e+01 +9.0956249692131799e+00 +0.0000000000000000e+00 +1.0499997955174249e+01 -1.0809603788590881e-03 +0.0000000000000000e+00 +9.9999941576215901e-01
1.0599999999999978e+01 +9.0955163584281671e+00 +0.0000000000000000e+00 +1.0599997896192278e+01 -1.0912553217704401e-03 +0.0000000000000000e+00 +9.9999940458073411e-01
1.0699999999999978e+01 +9.0954067181487499e+00 +0.0000000000000000e+00 +1.0699997836086864e+01 -1.1015502669418735e-03 +0.0000000000000000e+00 +9.9999939329332066e-01
1.0799999999999978e+01 +9.0952960483747010e+00 +0.0000000000000000e+00 +1.0799997774847409e+01 -1.1118452144065415e-03 +0.0000000000000000e+00 +9.9999938189991855e-01
1.0899999999999977e+01 +9.0951843491057893e+00 +0.0000000000000000e+00 +1.0899997712463314e+01 -1.1221401642043114e-03 +0.0000000000000000e+00 +9.9999937040052767e-01
1.0999999999999977e+01 +9.0950716203417805e+00 +0.0000000000000000e+00 +1.0999997648923982e+01 -1.1324351163817653e-03 +0.0000000000000000e+00 +9.9999935879514790e-01
1.1099999999999977e+01 +9.0949578620824330e+00 +0.0000000000000000e+00 +1.1099997584218812e+01 -1.1427300709916308e-03 +0.0000000000000000e+00 +9.9999934708377913e-01
1.1199999999999976e+01 +9.0948430743274997e+00 +0.0000000000000000e+00 +1.1199997518337206e+01 -1.1530250280864980e-03 +0.0000000000000000e+00 +9.9999933526642126e-01
1.1299999999999976e+01 +9.0947272570767304e+00 +0.0000000000000000e+00 +1.1299997451268563e+01 -1.1633199877125367e-03 +0.0000000000000000e+00 +9.9999932334307406e-01
1.1399999999999975e+01 +9.0946104103298708e+00 +0.0000000000000000e+00 +1.1399997383002287e+01 -1.1736149499089244e-03 +0.0000000000000000e+00 +9.9999931131373743e-01
1.1499999999999975e+01 +9.0944925340866618e+00 +0.0000000000000000e+00 +1.1499997313527777e+01 -1.1839099147078482e-03 +0.0000000000000000e+00 +9.9999929917841124e-01
1.1599999999999975e+01 +9.0943736283468422e+00 +0.0000000000000000e+00 +1.1599997242834435e+01 -1.1942048821345034e-03 +0.0000000000000000e+00 +9.9999928693709539e-01
1.1699999999999974e+01 +9.0942536931101472e+00 +0.0000000000000000e+00 +1.1699997170911663e+01 -1.2044998522070948e-03 +0.0000000000000000e+00 +9.9999927458978977e-01
1.1799999999999974e+01 +9.0941327283763123e+00 +0.0000000000000000e+00 +1.1799997097748861e+01 -1.2147948249368367e-03 +0.0000000000000000e+00 +9.9999926213649426e-01
