# trajectory
# s[mm] rx[mm] ry[mm] rz[mm] px[rad] py[rad] pz[rad]
0.0000000000000000e+00 +9.0449999999999999e+00 +0.0000000000000000e+00 +0.0000000000000000e+00 +0.0000000000000000e+00 +0.0000000000000000e+00 +1.0000000000000000e+00
-1.0000000000000001e-01 +9.0449994837593497e+00 +0.0000000000000000e+00 -9.9999999998223302e-02 +1.0324806870519326e-05 +0.0000000000000000e+00 +9.9999999994669919e-01
-2.0000000000000001e-01 +9.0449979350398557e+00 +0.0000000000000000e+00 -1.9999999998578646e-01 +2.0649576865682021e-05 +0.0000000000000000e+00 +9.9999999978679754e-01
-3.0000000000000004e-01 +9.0449953538452057e+00 +0.0000000000000000e+00 -2.9999999995202947e-01 +3.0974309997535466e-05 +0.0000000000000000e+00 +9.9999999952029617e-01
-4.0000000000000002e-01 +9.0449917401790838e+00 +0.0000000000000000e+00 -3.9999999988629242e-01 +4.1299006300754703e-05 +0.0000000000000000e+00 +9.9999999914719617e-01
-5.0000000000000000e-01 +9.0449870940451707e+00 +0.0000000000000000e+00 -4.9999999977791548e-01 +5.1623665832643073e-05 +0.0000000000000000e+00 +9.9999999866749867e-01
-5.9999999999999998e-01 +9.0449814154471397e+00 +0.0000000000000000e+00 -5.9999999961623895e-01 +6.1948288673132568e-05 +0.0000000000000000e+00 +9.9999999808120488e-01
-6.9999999999999996e-01 +9.0449747043886557e+00 +0.0000000000000000e+00 -6.9999999939060331e-01 +7.2272874924784005e-05 +0.0000000000000000e+00 +9.9999999738831591e-01
-7.9999999999999993e-01 +9.0449669608733707e+00 +0.0000000000000000e+00 -7.9999999909034902e-01 +8.2597424712786921e-05 +0.0000000000000000e+00 +9.9999999658883287e-01
-8.9999999999999991e-01 +9.0449581849049245e+00 +0.0000000000000000e+00 -8.9999999870481673e-01 +9.2921938184959273e-05 +0.0000000000000000e+00 +9.9999999568275688e-01
-9.9999999999999989e-01 +9.0449483764869392e+00 +0.0000000000000000e+00 -9.9999999822334729e-01 +1.0324641551174687e-04 +0.0000000000000000e+00 +9.9999999467008904e-01
-1.0999999999999999e+00 +9.0449375356230206e+00 +0.0000000000000000e+00 -1.0999999976352814e+00 +1.1357085688622263e-04 +0.0000000000000000e+00 +9.9999999355083047e-01
-1.2000000000000000e+00 +9.0449256623167535e+00 +0.0000000000000000e+00 -1.1999999969299604e+00 +1.2389526252408557e-04 +0.0000000000000000e+00 +9.9999999232498216e-01
-1.3000000000000000e+00 +9.0449127565716996e+00 +0.0000000000000000e+00 -1.2999999960967250e+00 +1.3421963266365951e-04 +0.0000000000000000e+00 +9.9999999099254533e-01
-1.4000000000000001e+00 +9.0448988183913954e+00 +0.0000000000000000e+00 -1.3999999951249165e+00 +1.4454396756589168e-04 +0.0000000000000000e+00 +9.9999998955352098e-01
-1.5000000000000002e+00 +9.0448838477793512e+00 +0.0000000000000000e+00 -1.4999999940038762e+00 +1.5486826751435098e-04 +0.0000000000000000e+00 +9.9999998800791012e-01
-1.6000000000000003e+00 +9.0448678447390467e+00 +0.0000000000000000e+00 -1.5999999927229456e+00 +1.6519253281025443e-04 +0.0000000000000000e+00 +9.9999998635571374e-01
-1.7000000000000004e+00 +9.0448508092739353e+00 +0.0000000000000000e+00 -1.6999999912714661e+00 +1.7551676371777694e-04 +0.0000000000000000e+00 +9.9999998459693296e-01
-1.8000000000000005e+00 +9.0448327413874434e+00 +0.0000000000000000e+00 -1.7999999896387793e+00 +1.8584096040936287e-04 +0.0000000000000000e+00 +9.9999998273156887e-01
-1.9000000000000006e+00 +9.0448136410829907e+00 +0.0000000000000000e+00 -1.8999999878142271e+00 +1.9616512296075501e-04 +0.0000000000000000e+00 +9.9999998075962238e-01
-2.0000000000000004e+00 +9.0447935083639894e+00 +0.0000000000000000e+00 -1.9999999857871511e+00 +2.0648925135099562e-04 +0.0000000000000000e+00 +9.9999997868109458e-01
-2.1000000000000005e+00 +9.0447723432338627e+00 +0.0000000000000000e+00 -2.0999999835468932e+00 +2.1681334546242771e-04 +0.0000000000000000e+00 +9.9999997649598660e-01
-2.2000000000000006e+00 +9.0447501456960477e+00 +0.0000000000000000e+00 -2.1999999810827955e+00 +2.2713740508069645e-04 +0.0000000000000000e+00 +9.9999997420429954e-01
-2.3000000000000007e+00 +9.0447269157540067e+00 +0.0000000000000000e+00 -2.2999999783842004e+00 +2.3746142989475091e-04 +0.0000000000000000e+00 +9.9999997180603450e-01
-2.4000000000000008e+00 +9.0447026534112425e+00 +0.0000000000000000e+00 -2.3999999754404500e+00 +2.4778541949684599e-04 +0.0000000000000000e+00 +9.9999996930119273e-01
-2.5000000000000009e+00 +9.0446773586712990e+00 +0.0000000000000000e+00 -2.4999999722408863e+00 +2.5810937338254457e-04 +0.0000000000000000e+00 +9.9999996668977542e-01
-2.6000000000000010e+00 +9.0446510315377768e+00 +0.0000000000000000e+00 -2.5999999687748523e+00 +2.6843329095071984e-04 +0.0000000000000000e+00 +9.9999996397178381e-01
-2.7000000000000011e+00 +9.0446236720143425e+00 +0.0000000000000000e+00 -2.6999999650316906e+00 +2.7875717150355791e-04 +0.0000000000000000e+00 +9.9999996114721923e-01
-2.8000000000000012e+00 +9.0445952801047369e+00 +0.0000000000000000e+00 -2.7999999610007440e+00 +2.8908101424656064e-04 +0.0000000000000000e+00 +9.9999995821608301e-01
-2.9000000000000012e+00 +9.0445658558127828e+00 +0.0000000000000000e+00 -2.8999999566713552e+00 +2.9940481828854876e-04 +0.0000000000000000e+00 +9.9999995517837670e-01
-3.0000000000000013e+00 +9.0445353991424007e+00 +0.0000000000000000e+00 -2.9999999520328671e+00 +3.0972858264166500e-04 +0.0000000000000000e+00 +9.9999995203410175e-01
-3.1000000000000014e+00 +9.0445039100976121e+00 +0.0000000000000000e+00 -3.0999999470746231e+00 +3.2005230622137771e-04 +0.0000000000000000e+00 +9.9999994878325971e-01
-3.2000000000000015e+00 +9.0444713886825543e+00 +0.0000000000000000e+00 -3.1999999417859666e+00 +3.3037598784648451e-04 +0.0000000000000000e+00 +9.9999994542585224e-01
-3.3000000000000016e+00 +9.0444378349014833e+00 +0.0000000000000000e+00 -3.2999999361562411e+00 +3.4069962623911625e-04 +0.0000000000000000e+00 +9.9999994196188102e-01
-3.4000000000000017e+00 +9.0444032487587922e+00 +0.0000000000000000e+00 -3.3999999301747907e+00 +3.5102322002474132e-04 +0.0000000000000000e+00 +9.9999993839134793e-01
-3.5000000000000018e+00 +9.0443676302590141e+00 +0.0000000000000000e+00 -3.4999999238309587e+00 +3.6134676773216979e-04 +0.0000000000000000e+00 +9.9999993471425497e-01
-3.6000000000000019e+00 +9.0443309794068334e+00 +0.0000000000000000e+00 -3.5999999171140895e+00 +3.7167026779991955e-04 +0.0000000000000000e+00 +9.9999993093060402e-01
-3.7000000000000020e+00 +9.0442932962070941e+00 +0.0000000000000000e+00 -3.6999999100135277e+00 +3.8199371864619438e-04 +0.0000000000000000e+00 +9.9999992704039720e-01
-3.8000000000000020e+00 +9.0442545806647949e+00 +0.0000000000000000e+00 -3.7999999025186173e+00 +3.9231711873886026e-04 +0.0000000000000000e+00 +9.9999992304363661e-01
-3.9000000000000021e+00 +9.0442148327850873e+00 +0.0000000000000000e+00 -3.8999998946187033e+00 +4.0264046660180760e-04 +0.0000000000000000e+00 +9.9999991894032447e-01
-4.0000000000000018e+00 +9.0441740525732630e+00 +0.0000000000000000e+00 -3.9999998863031307e+00 +4.1296376081495192e-04 +0.0000000000000000e+00 +9.9999991473046290e-01
-4.1000000000000014e+00 +9.0441322400347577e+00 +0.0000000000000000e+00 -4.0999998775612445e+00 +4.2328700001423455e-04 +0.0000000000000000e+00 +9.9999991041405423e-01
-4.2000000000000011e+00 +9.0440893951751384e+00 +0.0000000000000000e+00 -4.1999998683823900e+00 +4.3361018289162336e-04 +0.0000000000000000e+00 +9.9999990599110067e-01
-4.3000000000000007e+00 +9.0440455180000985e+00 +0.0000000000000000e+00 -4.2999998587559132e+00 +4.4393330819511324e-04 +0.0000000000000000e+00 +9.9999990146160456e-01
-4.4000000000000004e+00 +9.0440006085154572e+00 +0.0000000000000000e+00 -4.3999998486711593e+00 +4.5425637472872661e-04 +0.0000000000000000e+00 +9.9999989682556811e-01
-4.5000000000000000e+00 +9.0439546667271493e+00 +0.0000000000000000e+00 -4.4999998381174748e+00 +4.6457938135251398e-04 +0.0000000000000000e+00 +9.9999989208299378e-01
-4.5999999999999996e+00 +9.0439076926412199e+00 +0.0000000000000000e+00 -4.5999998270842068e+00 +4.7490232698255418e-04 +0.0000000000000000e+00 +9.9999988723388400e-01
-4.6999999999999993e+00 +9.0438596862638203e+00 +0.0000000000000000e+00 -4.6999998155607008e+00 +4.8522521059095477e-04 +0.0000000000000000e+00 +9.9999988227824099e-01
-4.7999999999999989e+00 +9.0438106476012017e+00 +0.0000000000000000e+00 -4.7999998035363038e+00 +4.9554803120585231e-04 +0.0000000000000000e+00 +9.9999987721606731e-01
-4.8999999999999986e+00 +9.0437605766597091e+00 +0.0000000000000000e+00 -4.8999997910003632e+00 +5.0587078791141250e-04 +0.0000000000000000e+00 +9.9999987204736529e-01
-4.9999999999999982e+00 +9.0437094734457784e+00 +0.0000000000000000e+00 -4.9999997779422261e+00 +5.1619347984783028e-04 +0.0000000000000000e+00 +9.9999986677213737e-01
-5.0999999999999979e+00 +9.0436573379659251e+00 +0.0000000000000000e+00 -5.0999997643512396e+00 +5.2651610621133008e-04 +0.0000000000000000e+00 +9.9999986139038588e-01
-5.1999999999999975e+00 +9.0436041702267467e+00 +0.0000000000000000e+00 -5.1999997502167519e+00 +5.3683866625416565e-04 +0.0000000000000000e+00 +9.9999985590211338e-01
-5.2999999999999972e+00 +9.0435499702349080e+00 +0.0000000000000000e+00 -5.2999997355281110e+00 +5.4716115928462000e-04 +0.0000000000000000e+00 +9.9999985030732219e-01
-5.3999999999999968e+00 +9.0434947379971451e+00 +0.0000000000000000e+00 -5.3999997202746659e+00 +5.5748358466700535e-04 +0.0000000000000000e+00 +9.9999984460601488e-01
-5.4999999999999964e+00 +9.0434384735202507e+00 +0.0000000000000000e+00 -5.4999997044457638e+00 +5.6780594182166298e-04 +0.0000000000000000e+00 +9.9999983879819376e-01
-5.5999999999999961e+00 +9.0433811768110726e+00 +0.0000000000000000e+00 -5.5999996880307545e+00 +5.7812823023097157e-04 +0.0000000000000000e+00 +9.9999983288386129e-01
-5.6999999999999957e+00 +9.0433228478765084e+00 +0.0000000000000000e+00 -5.6999996710189862e+00 +5.8845044950543799e-04 +0.0000000000000000e+00 +9.9999982686301980e-01
-5.7999999999999954e+00 +9.0432634867234825e+00 +0.0000000000000000e+00 -5.7999996533998086e+00 +5.9877259944977272e-04 +0.0000000000000000e+00 +9.9999982073567151e-01
-5.8999999999999950e+00 +9.0432030933589296e+00 +0.0000000000000000e+00 -5.8999996351625708e+00 +6.0909468006886799e-04 +0.0000000000000000e+00 +9.9999981450181863e-01
-5.9999999999999947e+00 +9.0431416677897740e+00 +0.0000000000000000e+00 -5.9999996162966225e+00 +6.1941669156776564e-04 +0.0000000000000000e+00 +9.9999980816146317e-01
-6.0999999999999943e+00 +9.0430792100229080e+00 +0.0000000000000000e+00 -6.0999995967913136e+00 +6.2973863435162377e-04 +0.0000000000000000e+00 +9.9999980171460701e-01
-6.1999999999999940e+00 +9.0430157200651742e+00 +0.0000000000000000e+00 -6.1999995766359941e+00 +6.4006050902568176e-04 +0.0000000000000000e+00 +9.9999979516125193e-01
-6.2999999999999936e+00 +9.0429511979233457e+00 +0.0000000000000000e+00 -6.2999995558200137e+00 +6.5038231639522406e-04 +0.0000000000000000e+00 +9.9999978850139937e-01
-6.3999999999999932e+00 +9.0428856436041052e+00 +0.0000000000000000e+00 -6.3999995343327241e+00 +6.6070405746554244e-04 +0.0000000000000000e+00 +9.9999978173505089e-01
-6.4999999999999929e+00 +9.0428190571140235e+00 +0.0000000000000000e+00 -6.4999995121634742e+00 +6.7102573344189728e-04 +0.0000000000000000e+00 +9.9999977486220770e-01
-6.5999999999999925e+00 +9.0427514384595398e+00 +0.0000000000000000e+00 -6.5999994893016156e+00 +6.8134734572947717e-04 +0.0000000000000000e+00 +9.9999976788287082e-01
-6.6999999999999922e+00 +9.0426827876469460e+00 +0.0000000000000000e+00 -6.6999994657364983e+00 +6.9166889593335733e-04 +0.0000000000000000e+00 +9.9999976079704112e-01
-6.7999999999999918e+00 +9.0426131046823617e+00 +0.0000000000000000e+00 -6.7999994414574738e+00 +7.0199038585845629e-04 +0.0000000000000000e+00 +9.9999975360471927e-01
-6.8999999999999915e+00 +9.0425423895717163e+00 +0.0000000000000000e+00 -6.8999994164538929e+00 +7.1231181750949183e-04 +0.0000000000000000e+00 +9.9999974630590571e-01
-6.9999999999999911e+00 +9.0424706423207279e+00 +0.0000000000000000e+00 -6.9999993907151055e+00 +7.2263319309093504e-04 +0.0000000000000000e+00 +9.9999973890060057e-01
-7.0999999999999908e+00 +9.0423978629348856e+00 +0.0000000000000000e+00 -7.0999993642304631e+00 +7.3295451500696347e-04 +0.0000000000000000e+00 +9.9999973138880394e-01
-7.1999999999999904e+00 +9.0423240514194276e+00 +0.0000000000000000e+00 -7.1999993369893165e+00 +7.4327578586141224e-04 +0.0000000000000000e+00 +9.9999972377051549e-01
-7.2999999999999901e+00 +9.0422492077793226e+00 +0.0000000000000000e+00 -7.2999993089810165e+00 +7.5359700845772470e-04 +0.0000000000000000e+00 +9.9999971604573468e-01
-7.3999999999999897e+00 +9.0421733320192459e+00 +0.0000000000000000e+00 -7.3999992801949137e+00 +7.6391818579890094e-04 +0.0000000000000000e+00 +9.9999970821446071e-01
-7.4999999999999893e+00 +9.0420964241435655e+00 +0.0000000000000000e+00 -7.4999992506203590e+00 +7.7423932108744518e-04 +0.0000000000000000e+00 +9.9999970027669249e-01
-7.5999999999999890e+00 +9.0420184841563174e+00 +0.0000000000000000e+00 -7.5999992202467022e+00 +7.8456041770586036e-04 +0.0000000000000000e+00 +9.9999969223242868e-01
-7.6999999999999886e+00 +9.0419395120612016e+00 +0.0000000000000000e+00 -7.6999991890632948e+00 +7.9488147900263291e-04 +0.0000000000000000e+00 +9.9999968408166784e-01
-7.7999999999999883e+00 +9.0418595078615915e+00 +0.0000000000000000e+00 -7.7999991570594860e+00 +8.0520250807827626e-04 +0.0000000000000000e+00 +9.9999967582440852e-01
-7.8999999999999879e+00 +9.0417784715605656e+00 +0.0000000000000000e+00 -7.8999991242246264e+00 +8.1552350776593495e-04 +0.0000000000000000e+00 +9.9999966746064939e-01
-7.9999999999999876e+00 +9.0416964031609321e+00 +0.0000000000000000e+00 -7.9999990905480658e+00 +8.2584448063144594e-04 +0.0000000000000000e+00 +9.9999965899038934e-01
-8.0999999999999872e+00 +9.0416133026652563e+00 +0.0000000000000000e+00 -8.0999990560191542e+00 +8.3616542897340252e-04 +0.0000000000000000e+00 +9.9999965041362715e-01
-8.1999999999999869e+00 +9.0415291700758864e+00 +0.0000000000000000e+00 -8.1999990206272404e+00 +8.4648635482322031e-04 +0.0000000000000000e+00 +9.9999964173036193e-01
-8.2999999999999865e+00 +9.0414440053949825e+00 +0.0000000000000000e+00 -8.2999989843616753e+00 +8.5680725994520556e-04 +0.0000000000000000e+00 +9.9999963294059280e-01
-8.3999999999999861e+00 +9.0413578086245394e+00 +0.0000000000000000e+00 -8.3999989472118077e+00 +8.6712814583662608e-04 +0.0000000000000000e+00 +9.9999962404431919e-01
-8.4999999999999858e+00 +9.0412705797664152e+00 +0.0000000000000000e+00 -8.4999989091669885e+00 +8.7744901372778462e-04 +0.0000000000000000e+00 +9.9999961504154056e-01
-8.5999999999999854e+00 +9.0411823188223615e+00 +0.0000000000000000e+00 -8.5999988702165666e+00 +8.8776986458209413e-04 +0.0000000000000000e+00 +9.9999960593225667e-01
-8.6999999999999851e+00 +9.0410930257940443e+00 +0.0000000000000000e+00 -8.6999988303498910e+00 +8.9809069909615568e-04 +0.0000000000000000e+00 +9.9999959671646732e-01
-8.7999999999999847e+00 +9.0410027006830731e+00 +0.0000000000000000e+00 -8.7999987895563105e+00 +9.0841151769983908e-04 +0.0000000000000000e+00 +9.9999958739417272e-01
-8.8999999999999844e+00 +9.0409113434910289e+00 +0.0000000000000000e+00 -8.8999987478251761e+00 +9.1873232055636510e-04 +0.0000000000000000e+00 +9.9999957796537309e-01
-8.9999999999999840e+00 +9.0408189542194890e+00 +0.0000000000000000e+00 -8.9999987051458366e+00 +9.2905310756239063e-04 +0.0000000000000000e+00 +9.9999956843006910e-01
-9.0999999999999837e+00 +9.0407255328700558e+00 +0.0000000000000000e+00 -9.0999986615076409e+00 +9.3937387834809637e-04 +0.0000000000000000e+00 +9.9999955878826152e-01
-9.1999999999999833e+00 +9.0406310794443812e+00 +0.0000000000000000e+00 -9.1999986168999399e+00 +9.4969463227727595e-04 +0.0000000000000000e+00 +9.9999954903995159e-01
-9.2999999999999829e+00 +9.0405355939441918e+00 +0.0000000000000000e+00 -9.2999985713120825e+00 +9.6001536844742864e-04 +0.0000000000000000e+00 +9.9999953918514051e-01
-9.3999999999999826e+00 +9.0404390763713209e+00 +0.0000000000000000e+00 -9.3999985247334177e+00 +9.7033608568985357e-04 +0.0000000000000000e+00 +9.9999952922383006e-01
-9.4999999999999822e+00 +9.0403415267277314e+00 +0.0000000000000000e+00 -9.4999984771532979e+00 +9.8065678256974652e-04 +0.0000000000000000e+00 +9.9999951915602225e-01
-9.5999999999999819e+00 +9.0402429450155424e+00 +0.0000000000000000e+00 -9.5999984285610722e+00 +9.9097745740569327e-04 +0.0000000000000000e+00 +9.9999950898171941e-01
-9.6999999999999815e+00 +9.0401433312370436e+00 +0.0000000000000000e+00 -9.6999983789460913e+00 +1.0012981084830987e-03 +0.0000000000000000e+00 +9.9999949870092386e-01
-9.7999999999999812e+00 +9.0400426853946900e+00 +0.0000000000000000e+00 -9.7999983282977077e+00 +1.0116187342675597e-03 +0.0000000000000000e+00 +9.9999948831363783e-01
-9.8999999999999808e+00 +9.0399410074910787e+00 +0.0000000000000000e+00 -9.8999982766052703e+00 +1.0219393334242493e-03 +0.0000000000000000e+00 +9.9999947781986354e-01
-9.9999999999999805e+00 +9.0398382975289309e+00 +0.0000000000000000e+00 -9.9999982238581318e+00 +1.0322599048179014e-03 +0.0000000000000000e+00 +9.9999946721960298e-01
-1.0099999999999980e+01 +9.0397345555110711e+00 +0.0000000000000000e+00 -1.0099998170045643e+01 +1.0425804475127950e-03 +0.0000000000000000e+00 +9.9999945651285804e-01
-1.0199999999999980e+01 +9.0396297814404090e+00 +0.0000000000000000e+00 -1.0199998115157154e+01 +1.0529009607727379e-03 +0.0000000000000000e+00 +9.9999944569963028e-01
-1.0299999999999979e+01 +9.0395239753199164e+00 +0.0000000000000000e+00 -1.0299998059182020e+01 +1.0632214440610490e-03 +0.0000000000000000e+00 +9.9999943477992126e-01
-1.0399999999999979e+01 +9.0394171371526078e+00 +0.0000000000000000e+00 -1.0399998002109589e+01 +1.0735418970405407e-03 +0.0000000000000000e+00 +9.9999942375373219e-01
-1.0499999999999979e+01 +9.0393092669415225e+00 +0.0000000000000000e+00 -1.0499997943929216e+01 +1.0838623195735004e-03 +0.0000000000000000e+00 +9.9999941262106418e-01
-1.0599999999999978e+01 +9.0392003646897052e+00 +0.0000000000000000e+00 -1.0599997884630252e+01 +1.0941827117216705e-03 +0.0000000000000000e+00 +9.9999940138191812e-01
-1.0699999999999978e+01 +9.0390904304001829e+00 +0.0000000000000000e+00 -1.0699997824202050e+01 +1.1045030737462291e-03 +0.0000000000000000e+00 +9.9999939003629457e-01
-1.0799999999999978e+01 +9.0389794640759451e+00 +0.0000000000000000e+00 -1.0799997762633962e+01 +1.1148234061077690e-03 +0.0000000000000000e+00 +9.9999937858419408e-01
-1.0899999999999977e+01 +9.0388674657199282e+00 +0.0000000000000000e+00 -1.0899997699915341e+01 +1.1251437094662760e-03 +0.0000000000000000e+00 +9.9999936702561676e-01
-1.0999999999999977e+01 +9.0387544353349902e+00 +0.0000000000000000e+00 -1.0999997636035538e+01 +1.1354639846811068e-03 +0.0000000000000000e+00 +9.9999935536056250e-01
-1.1099999999999977e+01 +9.0386403729238953e+00 +0.0000000000000000e+00 -1.1099997570983904e+01 +1.1457842328109664e-03 +0.0000000000000000e+00 +9.9999934358903098e-01
-1.1199999999999976e+01 +9.0385252784892902e+00 +0.0000000000000000e+00 -1.1199997504749794e+01 +1.1561044551138841e-03 +0.0000000000000000e+00 +9.9999933171102162e-01
-1.1299999999999976e+01 +9.0384091520336849e+00 +0.0000000000000000e+00 -1.1299997437322558e+01 +1.1664246530471893e-03 +0.0000000000000000e+00 +9.9999931972653344e-01
-1.1399999999999975e+01 +9.0382919935594366e+00 +0.0000000000000000e+00 -1.1399997368691551e+01 +1.1767448282674867e-03 +0.0000000000000000e+00 +9.9999930763556533e-01
-1.1499999999999975e+01 +9.0381738030687266e+00 +0.0000000000000000e+00 -1.1499997298846122e+01 +1.1870649826306303e-03 +0.0000000000000000e+00 +9.9999929543811572e-01
-1.1599999999999975e+01 +9.0380545805635375e+00 +0.0000000000000000e+00 -1.1599997227775624e+01 +1.1973851181786013e-03 +0.0000000000000000e+00 +9.9999928313418285e-01
-1.1699999999999974e+01 +9.0379343260456473e+00 +0.0000000000000000e+00 -1.1699997155469410e+01 +1.2077052369954156e-03 +0.0000000000000000e+00 +9.9999927072376471e-01
