# trajectory
# s[mm] rx[mm] ry[mm] rz[mm] px[rad] py[rad] pz[rad]
0.0000000000000000e+00 +9.1013000000000002e+00 +0.0000000000000000e+00 +0.0000000000000000e+00 +0.0000000000000000e+00 +0.0000000000000000e+00 +1.0000000000000000e+00
-1.0000000000000001e-01 +9.1012994842072175e+00 +0.0000000000000000e+00 -9.9999999998226383e-02 +1.0315853433043299e-05 +0.0000000000000000e+00 +9.9999999994679156e-01
-2.0000000000000001e-01 +9.1012979368297557e+00 +0.0000000000000000e+00 -1.9999999998581108e-01 +2.0631693575243529e-05 +0.0000000000000000e+00 +9.9999999978716658e-01
-3.0000000000000004e-01 +9.1012953578689491e+00 +0.0000000000000000e+00 -2.9999999995211246e-01 +3.0947520334806113e-05 +0.0000000000000000e+00 +9.9999999952112550e-01
-4.0000000000000002e-01 +9.1012917473261385e+00 +0.0000000000000000e+00 -3.9999999988648893e-01 +4.1263333631936485e-05 +0.0000000000000000e+00 +9.9999999914866866e-01
-5.0000000000000000e-01 +9.1012871052026743e+00 +0.0000000000000000e+00 -4.9999999977829895e-01 +5.1579133398838378e-05 +0.0000000000000000e+00 +9.9999999866979650e-01
-5.9999999999999998e-01 +9.1012814314999115e+00 +0.0000000000000000e+00 -5.9999999961690098e-01 +6.1894919579712020e-05 +0.0000000000000000e+00 +9.9999999808450946e-01
-6.9999999999999996e-01 +9.1012747262192129e+00 +0.0000000000000000e+00 -6.9999999939165369e-01 +7.2210692130752249e-05 +0.0000000000000000e+00 +9.9999999739280798e-01
-7.9999999999999993e-01 +9.1012669893619407e+00 +0.0000000000000000e+00 -7.9999999909191555e-01 +8.2526451020146498e-05 +0.0000000000000000e+00 +9.9999999659469241e-01
-8.9999999999999991e-01 +9.1012582209294646e+00 +0.0000000000000000e+00 -8.9999999870704506e-01 +9.2842196228072707e-05 +0.0000000000000000e+00 +9.9999999569016329e-01
-9.9999999999999989e-01 +9.1012484209231523e+00 +0.0000000000000000e+00 -9.9999999822640107e-01 +1.0315792774669716e-04 +0.0000000000000000e+00 +9.9999999467922096e-01
-1.0999999999999999e+00 +9.1012375893443718e+00 +0.0000000000000000e+00 -1.0999999976393422e+00 +1.1347364558017220e-04 +0.0000000000000000e+00 +9.9999999356186586e-01
-1.2000000000000000e+00 +9.1012257261944924e+00 +0.0000000000000000e+00 -1.1999999969352271e+00 +1.2378934974463380e-04 +0.0000000000000000e+00 +9.9999999233809844e-01
-1.3000000000000000e+00 +9.1012128314748786e+00 +0.0000000000000000e+00 -1.2999999961034148e+00 +1.3410504026819921e-04 +0.0000000000000000e+00 +9.9999999100791903e-01
-1.4000000000000001e+00 +9.1011989051868927e+00 +0.0000000000000000e+00 -1.3999999951332638e+00 +1.4442071719096431e-04 +0.0000000000000000e+00 +9.9999998957132819e-01
-1.5000000000000002e+00 +9.1011839473318918e+00 +0.0000000000000000e+00 -1.4999999940141333e+00 +1.5473638056500097e-04 +0.0000000000000000e+00 +9.9999998802832624e-01
-1.6000000000000003e+00 +9.1011679579112297e+00 +0.0000000000000000e+00 -1.5999999927353821e+00 +1.6505203045357101e-04 +0.0000000000000000e+00 +9.9999998637891352e-01
-1.7000000000000004e+00 +9.1011509369262491e+00 +0.0000000000000000e+00 -1.6999999912863690e+00 +1.7536766692250710e-04 +0.0000000000000000e+00 +9.9999998462309059e-01
-1.8000000000000005e+00 +9.1011328843782895e+00 +0.0000000000000000e+00 -1.7999999896564531e+00 +1.8568329003159552e-04 +0.0000000000000000e+00 +9.9999998276085778e-01
-1.9000000000000006e+00 +9.1011138002686849e+00 +0.0000000000000000e+00 -1.8999999878349936e+00 +1.9599889983379316e-04 +0.0000000000000000e+00 +9.9999998079221541e-01
-2.0000000000000004e+00 +9.1010936845987640e+00 +0.0000000000000000e+00 -1.9999999858113493e+00 +2.0631449637522844e-04 +0.0000000000000000e+00 +9.9999997871716406e-01
-2.1000000000000005e+00 +9.1010725373698502e+00 +0.0000000000000000e+00 -2.0999999835748793e+00 +2.1663007969520247e-04 +0.0000000000000000e+00 +9.9999997653570405e-01
-2.2000000000000006e+00 +9.1010503585832652e+00 +0.0000000000000000e+00 -2.1999999811149431e+00 +2.2694564982619068e-04 +0.0000000000000000e+00 +9.9999997424783571e-01
-2.3000000000000007e+00 +9.1010271482403251e+00 +0.0000000000000000e+00 -2.2999999784208995e+00 +2.3726120679384475e-04 +0.0000000000000000e+00 +9.9999997185355949e-01
-2.4000000000000008e+00 +9.1010029063423445e+00 +0.0000000000000000e+00 -2.3999999754821082e+00 +2.4757675061699499e-04 +0.0000000000000000e+00 +9.9999996935287583e-01
-2.5000000000000009e+00 +9.1009776328906398e+00 +0.0000000000000000e+00 -2.4999999722879278e+00 +2.5789228130765302e-04 +0.0000000000000000e+00 +9.9999996674578506e-01
-2.6000000000000010e+00 +9.1009513278865217e+00 +0.0000000000000000e+00 -2.5999999688277180e+00 +2.6820779887101482e-04 +0.0000000000000000e+00 +9.9999996403228764e-01
-2.7000000000000011e+00 +9.1009239913313031e+00 +0.0000000000000000e+00 -2.6999999650908384e+00 +2.7852330330546427e-04 +0.0000000000000000e+00 +9.9999996121238399e-01
-2.8000000000000012e+00 +9.1008956232262985e+00 +0.0000000000000000e+00 -2.7999999610666482e+00 +2.8883879460257691e-04 +0.0000000000000000e+00 +9.9999995828607446e-01
-2.9000000000000012e+00 +9.1008662235728206e+00 +0.0000000000000000e+00 -2.8999999567445065e+00 +2.9915427274712408e-04 +0.0000000000000000e+00 +9.9999995525335950e-01
-3.0000000000000013e+00 +9.1008357923721874e+00 +0.0000000000000000e+00 -2.9999999521137730e+00 +3.0946973771707768e-04 +0.0000000000000000e+00 +9.9999995211423953e-01
-3.1000000000000014e+00 +9.1008043296257171e+00 +0.0000000000000000e+00 -3.0999999471638073e+00 +3.1978518948361494e-04 +0.0000000000000000e+00 +9.9999994886871491e-01
-3.2000000000000015e+00 +9.1007718353347311e+00 +0.0000000000000000e+00 -3.1999999418839691e+00 +3.3010062801112379e-04 +0.0000000000000000e+00 +9.9999994551678617e-01
-3.3000000000000016e+00 +9.1007383095005565e+00 +0.0000000000000000e+00 -3.2999999362636179e+00 +3.4041605325720855e-04 +0.0000000000000000e+00 +9.9999994205845366e-01
-3.4000000000000017e+00 +9.1007037521245238e+00 +0.0000000000000000e+00 -3.3999999302921133e+00 +3.5073146517269595e-04 +0.0000000000000000e+00 +9.9999993849371782e-01
-3.5000000000000018e+00 +9.1006681632079687e+00 +0.0000000000000000e+00 -3.4999999239588151e+00 +3.6104686370164158e-04 +0.0000000000000000e+00 +9.9999993482257898e-01
-3.6000000000000019e+00 +9.1006315427522324e+00 +0.0000000000000000e+00 -3.5999999172530828e+00 +3.7136224878237830e-04 +0.0000000000000000e+00 +9.9999993104503770e-01
-3.7000000000000020e+00 +9.1005938907586632e+00 +0.0000000000000000e+00 -3.6999999101642760e+00 +3.8167762035897938e-04 +0.0000000000000000e+00 +9.9999992716109443e-01
-3.8000000000000020e+00 +9.1005552072286129e+00 +0.0000000000000000e+00 -3.7999999026817548e+00 +3.9199297839272049e-04 +0.0000000000000000e+00 +9.9999992317074948e-01
-3.9000000000000021e+00 +9.1005154921634368e+00 +0.0000000000000000e+00 -3.8999998947948793e+00 +4.0230832286312560e-04 +0.0000000000000000e+00 +9.9999991907400343e-01
-4.0000000000000018e+00 +9.1004747455644921e+00 +0.0000000000000000e+00 -3.9999998864930091e+00 +4.1262365376797149e-04 +0.0000000000000000e+00 +9.9999991487085660e-01
-4.1000000000000014e+00 +9.1004329674331341e+00 +0.0000000000000000e+00 -4.0999998777655042e+00 +4.2293897112329244e-04 +0.0000000000000000e+00 +9.9999991056130944e-01
-4.2000000000000011e+00 +9.1003901577707165e+00 +0.0000000000000000e+00 -4.1999998686017248e+00 +4.3325427496338512e-04 +0.0000000000000000e+00 +9.9999990614536227e-01
-4.3000000000000007e+00 +9.1003463165785892e+00 +0.0000000000000000e+00 -4.2999998589910300e+00 +4.4356956534081344e-04 +0.0000000000000000e+00 +9.9999990162301555e-01
-4.4000000000000004e+00 +9.1003014438580951e+00 +0.0000000000000000e+00 -4.3999998489227812e+00 +4.5388484232641374e-04 +0.0000000000000000e+00 +9.9999989699426972e-01
-4.5000000000000000e+00 +9.1002555396105684e+00 +0.0000000000000000e+00 -4.4999998383863380e+00 +4.6420010600930003e-04 +0.0000000000000000e+00 +9.9999989225912511e-01
-4.5999999999999996e+00 +9.1002086038373342e+00 +0.0000000000000000e+00 -4.5999998273710601e+00 +4.7451535649686936e-04 +0.0000000000000000e+00 +9.9999988741758206e-01
-4.6999999999999993e+00 +9.1001606365397052e+00 +0.0000000000000000e+00 -4.6999998158663079e+00 +4.8483059391480742e-04 +0.0000000000000000e+00 +9.9999988246964089e-01
-4.7999999999999989e+00 +9.1001116377189817e+00 +0.0000000000000000e+00 -4.7999998038614420e+00 +4.9514581840709416e-04 +0.0000000000000000e+00 +9.9999987741530194e-01
-4.8999999999999986e+00 +9.1000616073764498e+00 +0.0000000000000000e+00 -4.8999997913458220e+00 +5.0546103013600970e-04 +0.0000000000000000e+00 +9.9999987225456555e-01
-4.9999999999999982e+00 +9.1000105455133742e+00 +0.0000000000000000e+00 -4.9999997783088084e+00 +5.1577622928214017e-04 +0.0000000000000000e+00 +9.9999986698743204e-01
-5.0999999999999979e+00 +9.0999584521310055e+00 +0.0000000000000000e+00 -5.0999997647397617e+00 +5.2609141604438396e-04 +0.0000000000000000e+00 +9.9999986161390164e-01
-5.1999999999999975e+00 +9.0999053272305712e+00 +0.0000000000000000e+00 -5.1999997506280424e+00 +5.3640659063995796e-04 +0.0000000000000000e+00 +9.9999985613397468e-01
-5.2999999999999972e+00 +9.0998511708132757e+00 +0.0000000000000000e+00 -5.2999997359630102e+00 +5.4672175330440389e-04 +0.0000000000000000e+00 +9.9999985054765139e-01
-5.3999999999999968e+00 +9.0997959828803001e+00 +0.0000000000000000e+00 -5.3999997207340265e+00 +5.5703690429159485e-04 +0.0000000000000000e+00 +9.9999984485493187e-01
-5.4999999999999964e+00 +9.0997397634327974e+00 +0.0000000000000000e+00 -5.4999997049304508e+00 +5.6735204387374223e-04 +0.0000000000000000e+00 +9.9999983905581646e-01
-5.5999999999999961e+00 +9.0996825124718956e+00 +0.0000000000000000e+00 -5.5999996885416436e+00 +5.7766717233846731e-04 +0.0000000000000000e+00 +9.9999983315030538e-01
-5.6999999999999957e+00 +9.0996242299986907e+00 +0.0000000000000000e+00 -5.6999996715569656e+00 +5.8798228995652203e-04 +0.0000000000000000e+00 +9.9999982713839874e-01
-5.7999999999999954e+00 +9.0995649160142573e+00 +0.0000000000000000e+00 -5.7999996539657772e+00 +5.9829739694950606e-04 +0.0000000000000000e+00 +9.9999982102009677e-01
-5.8999999999999950e+00 +9.0995045705196489e+00 +0.0000000000000000e+00 -5.8999996357574389e+00 +6.0861249348693298e-04 +0.0000000000000000e+00 +9.9999981479539957e-01
-5.9999999999999947e+00 +9.0994431935159046e+00 +0.0000000000000000e+00 -5.9999996169213112e+00 +6.1892757968623068e-04 +0.0000000000000000e+00 +9.9999980846430758e-01
-6.0999999999999943e+00 +9.0993807850040547e+00 +0.0000000000000000e+00 -6.0999995974467547e+00 +6.2924265561274228e-04 +0.0000000000000000e+00 +9.9999980202682093e-01
-6.1999999999999940e+00 +9.0993173449851241e+00 +0.0000000000000000e+00 -6.1999995773231298e+00 +6.3955772127972639e-04 +0.0000000000000000e+00 +9.9999979548294005e-01
-6.2999999999999936e+00 +9.0992528734601414e+00 +0.0000000000000000e+00 -6.2999995565397970e+00 +6.4987277664835751e-04 +0.0000000000000000e+00 +9.9999978883266516e-01
-6.3999999999999932e+00 +9.0991873704301405e+00 +0.0000000000000000e+00 -6.3999995350861170e+00 +6.6018782162772637e-04 +0.0000000000000000e+00 +9.9999978207599671e-01
-6.4999999999999929e+00 +9.0991208358961675e+00 +0.0000000000000000e+00 -6.4999995129514501e+00 +6.7050285607484004e-04 +0.0000000000000000e+00 +9.9999977521293515e-01
-6.5999999999999925e+00 +9.0990532698592830e+00 +0.0000000000000000e+00 -6.5999994901251577e+00 +6.8081787979462193e-04 +0.0000000000000000e+00 +9.9999976824348080e-01
-6.6999999999999922e+00 +9.0989846723205741e+00 +0.0000000000000000e+00 -6.6999994665966005e+00 +6.9113289253991135e-04 +0.0000000000000000e+00 +9.9999976116763434e-01
-6.7999999999999918e+00 +9.0989150432811510e+00 +0.0000000000000000e+00 -6.7999994423551389e+00 +7.0144789401146383e-04 +0.0000000000000000e+00 +9.9999975398539620e-01
-6.8999999999999915e+00 +9.0988443827421595e+00 +0.0000000000000000e+00 -6.8999994173901333e+00 +7.1176288385795027e-04 +0.0000000000000000e+00 +9.9999974669676694e-01
-6.9999999999999911e+00 +9.0987726907047808e+00 +0.0000000000000000e+00 -6.9999993916909453e+00 +7.2207786167595661e-04 +0.0000000000000000e+00 +9.9999973930174735e-01
-7.0999999999999908e+00 +9.0986999671702407e+00 +0.0000000000000000e+00 -7.0999993652469362e+00 +7.3239282700998339e-04 +0.0000000000000000e+00 +9.9999973180033797e-01
-7.1999999999999904e+00 +9.0986262121398127e+00 +0.0000000000000000e+00 -7.1999993380474665e+00 +7.4270777935244467e-04 +0.0000000000000000e+00 +9.9999972419253969e-01
-7.2999999999999901e+00 +9.0985514256148221e+00 +0.0000000000000000e+00 -7.2999993100818976e+00 +7.5302271814366758e-04 +0.0000000000000000e+00 +9.9999971647835328e-01
-7.3999999999999897e+00 +9.0984756075966562e+00 +0.0000000000000000e+00 -7.3999992813395910e+00 +7.6333764277189094e-04 +0.0000000000000000e+00 +9.9999970865777965e-01
-7.4999999999999893e+00 +9.0983987580867627e+00 +0.0000000000000000e+00 -7.4999992518099079e+00 +7.7365255257326460e-04 +0.0000000000000000e+00 +9.9999970073081967e-01
-7.5999999999999890e+00 +9.0983208770866604e+00 +0.0000000000000000e+00 -7.5999992214822090e+00 +7.8396744683825997e-04 +0.0000000000000000e+00 +9.9999969269747446e-01
-7.6999999999999886e+00 +9.0982419645979373e+00 +0.0000000000000000e+00 -7.6999991903458564e+00 +7.9428232488220740e-04 +0.0000000000000000e+00 +9.9999968455774502e-01
-7.7999999999999883e+00 +9.0981620206222455e+00 +0.0000000000000000e+00 -7.7999991583902117e+00 +8.0459718611585016e-04 +0.0000000000000000e+00 +9.9999967631163222e-01
-7.8999999999999879e+00 +9.0980810451612921e+00 +0.0000000000000000e+00 -7.8999991256046371e+00 +8.1491203005178375e-04 +0.0000000000000000e+00 +9.9999966795913708e-01
-7.9999999999999876e+00 +9.0979990382168250e+00 +0.0000000000000000e+00 -7.9999990919784931e+00 +8.2522685630448389e-04 +0.0000000000000000e+00 +9.9999965950026037e-01
-8.0999999999999872e+00 +9.0979159997906294e+00 +0.0000000000000000e+00 -8.0999990575011420e+00 +8.3554166459033565e-04 +0.0000000000000000e+00 +9.9999965093500298e-01
-8.1999999999999869e+00 +9.0978319298845118e+00 +0.0000000000000000e+00 -8.1999990221619470e+00 +8.4585645472766272e-04 +0.0000000000000000e+00 +9.9999964226336557e-01
-8.2999999999999865e+00 +9.0977468285002914e+00 +0.0000000000000000e+00 -8.2999989859502694e+00 +8.5617122663675838e-04 +0.0000000000000000e+00 +9.9999963348534870e-01
-8.3999999999999861e+00 +9.0976606956397905e+00 +0.0000000000000000e+00 -8.3999989488554707e+00 +8.6648598033991641e-04 +0.0000000000000000e+00 +9.9999962460095304e-01
-8.4999999999999858e+00 +9.0975735313048247e+00 +0.0000000000000000e+00 -8.4999989108669141e+00 +8.7680071596146325e-04 +0.0000000000000000e+00 +9.9999961561017892e-01
-8.5999999999999854e+00 +9.0974853354971934e+00 +0.0000000000000000e+00 -8.5999988719739608e+00 +8.8711543372779083e-04 +0.0000000000000000e+00 +9.9999960651302677e-01
-8.6999999999999851e+00 +9.0973961082186641e+00 +0.0000000000000000e+00 -8.6999988321659742e+00 +8.9743013396739019e-04 +0.0000000000000000e+00 +9.9999959730949683e-01
-8.7999999999999847e+00 +9.0973058494709704e+00 +0.0000000000000000e+00 -8.7999987914323157e+00 +9.0774481711088594e-04 +0.0000000000000000e+00 +9.9999958799958921e-01
-8.8999999999999844e+00 +9.0972145592557947e+00 +0.0000000000000000e+00 -8.8999987497623465e+00 +9.1805948369107118e-04 +0.0000000000000000e+00 +9.9999957858330402e-01
-8.9999999999999840e+00 +9.0971222375747640e+00 +0.0000000000000000e+00 -8.9999987071454299e+00 +9.2837413434294371e-04 +0.0000000000000000e+00 +9.9999956906064114e-01
-9.0999999999999837e+00 +9.0970288844294327e+00 +0.0000000000000000e+00 -9.0999986635709291e+00 +9.3868876980374258e-04 +0.0000000000000000e+00 +9.9999955943160035e-01
-9.1999999999999833e+00 +9.0969344998212804e+00 +0.0000000000000000e+00 -9.1999986190282055e+00 +9.4900339091298592e-04 +0.0000000000000000e+00 +9.9999954969618132e-01
-9.2999999999999829e+00 +9.0968390837516964e+00 +0.0000000000000000e+00 -9.2999985735066204e+00 +9.5931799861250877e-04 +0.0000000000000000e+00 +9.9999953985438361e-01
-9.3999999999999826e+00 +9.0967426362219701e+00 +0.0000000000000000e+00 -9.3999985269955371e+00 +9.6963259394650255e-04 +0.0000000000000000e+00 +9.9999952990620655e-01
-9.4999999999999822e+00 +9.0966451572332812e+00 +0.0000000000000000e+00 -9.4999984794843169e+00 +9.7994717806155476e-04 +0.0000000000000000e+00 +9.9999951985164948e-01
-9.5999999999999819e+00 +9.0965466467866900e+00 +0.0000000000000000e+00 -9.5999984309623212e+00 +9.9026175220066231e-04 +0.0000000000000000e+00 +9.9999950969071150e-01
-9.6999999999999815e+00 +9.0964471048831310e+00 +0.0000000000000000e+00 -9.6999983814189132e+00 +1.0005763176369584e-03 +0.0000000000000000e+00 +9.9999949942339161e-01
-9.7999999999999812e+00 +9.0963465315234124e+00 +0.0000000000000000e+00 -9.7999983308434544e+00 +1.0108908756073949e-03 +0.0000000000000000e+00 +9.9999948904968883e-01
-9.8999999999999808e+00 +9.0962449267082199e+00 +0.0000000000000000e+00 -9.8999982792253061e+00 +1.0212054273066777e-03 +0.0000000000000000e+00 +9.9999947856960225e-01
-9.9999999999999805e+00 +9.0961422904381219e+00 +0.0000000000000000e+00 -9.9999982265538296e+00 +1.0315199738872285e-03 +0.0000000000000000e+00 +9.9999946798313077e-01
-1.0099999999999980e+01 +9.0960386227135750e+00 +0.0000000000000000e+00 -1.0099998172818387e+01 +1.0418345164591445e-03 +0.0000000000000000e+00 +9.9999945729027340e-01
-1.0199999999999980e+01 +9.0959339235349272e+00 +0.0000000000000000e+00 -1.0199998118008338e+01 +1.0521490560901571e-03 +0.0000000000000000e+00 +9.9999944649102923e-01
-1.0299999999999979e+01 +9.0958281929024203e+00 +0.0000000000000000e+00 -1.0299998062113046e+01 +1.0624635938055898e-03 +0.0000000000000000e+00 +9.9999943558539717e-01
-1.0399999999999979e+01 +9.0957214308161962e+00 +0.0000000000000000e+00 -1.0399998005121871e+01 +1.0727781305883146e-03 +0.0000000000000000e+00 +9.9999942457337621e-01
-1.0499999999999979e+01 +9.0956136372763012e+00 +0.0000000000000000e+00 -1.0499997947024175e+01 +1.0830926673787067e-03 +0.0000000000000000e+00 +9.9999941345496546e-01
-1.0599999999999978e+01 +9.0955048122826891e+00 +0.0000000000000000e+00 -1.0599997887809318e+01 +1.0934072050745982e-03 +0.0000000000000000e+00 +9.9999940223016381e-01
-1.0699999999999978e+01 +9.0953949558352267e+00 +0.0000000000000000e+00 -1.0699997827466660e+01 +1.1037217445312316e-03 +0.0000000000000000e+00 +9.9999939089897039e-01
-1.0799999999999978e+01 +9.0952840679336973e+00 +0.0000000000000000e+00 -1.0799997765985564e+01 +1.1140362865612100e-03 +0.0000000000000000e+00 +9.9999937946138417e-01
-1.0899999999999977e+01 +9.0951721485778041e+00 +0.0000000000000000e+00 -1.0899997703355391e+01 +1.1243508319344476e-03 +0.0000000000000000e+00 +9.9999936791740418e-01
-1.0999999999999977e+01 +9.0950591977671760e+00 +0.0000000000000000e+00 -1.0999997639565500e+01 +1.1346653813781194e-03 +0.0000000000000000e+00 +9.9999935626702952e-01
-1.1099999999999977e+01 +9.0949452155013706e+00 +0.0000000000000000e+00 -1.1099997574605251e+01 +1.1449799355766070e-03 +0.0000000000000000e+00 +9.9999934451025929e-01
-1.1199999999999976e+01 +9.0948302017798799e+00 +0.0000000000000000e+00 -1.1199997508464005e+01 +1.1552944951714467e-03 +0.0000000000000000e+00 +9.9999933264709262e-01
-1.1299999999999976e+01 +9.0947141566021354e+00 +0.0000000000000000e+00 -1.1299997441131122e+01 +1.1656090607612734e-03 +0.0000000000000000e+00 +9.9999932067752861e-01
-1.1399999999999975e+01 +9.0945970799675084e+00 +0.0000000000000000e+00 -1.1399997372595964e+01 +1.1759236329017652e-03 +0.0000000000000000e+00 +9.9999930860156638e-01
-1.1499999999999975e+01 +9.0944789718753185e+00 +0.0000000000000000e+00 -1.1499997302847889e+01 +1.1862382121055857e-03 +0.0000000000000000e+00 +9.9999929641920515e-01
-1.1599999999999975e+01 +9.0943598323248356e+00 +0.0000000000000000e+00 -1.1599997231876259e+01 +1.1965527988394863e-03 +0.0000000000000000e+00 +9.9999928413044414e-01
-1.1699999999999974e+01 +9.0942396613152869e+00 +0.0000000000000000e+00 -1.1699997159670431e+01 +1.2068673934930235e-03 +0.0000000000000000e+00 +9.9999927173528269e-01
