# trajectory
# s[mm] rx[mm] ry[mm] rz[mm] px[rad] py[rad] pz[rad]
0.0000000000000000e+00 +9.1013000000000002e+00 +0.0000000000000000e+00 +0.0000000000000000e+00 +0.0000000000000000e+00 +0.0000000000000000e+00 +1.0000000000000000e+00
-1.0000000000000001e-01 +9.1012994840786785e+00 +0.0000000000000000e+00 -9.9999999998225508e-02 +1.0318423291543318e-05 +0.0000000000000000e+00 +9.9999999994676503e-01
-2.0000000000000001e-01 +9.1012979363159694e+00 +0.0000000000000000e+00 -1.9999999998580403e-01 +2.0636827745575150e-05 +0.0000000000000000e+00 +9.9999999978706067e-01
-3.0000000000000004e-01 +9.1012953567137629e+00 +0.0000000000000000e+00 -2.9999999995208870e-01 +3.0955213230962087e-05 +0.0000000000000000e+00 +9.9999999952088736e-01
-4.0000000000000002e-01 +9.1012917452739597e+00 +0.0000000000000000e+00 -3.9999999988643259e-01 +4.1273579643592594e-05 +0.0000000000000000e+00 +9.9999999914824578e-01
-5.0000000000000000e-01 +9.1012871019984729e+00 +0.0000000000000000e+00 -4.9999999977818893e-01 +5.1591926906373081e-05 +0.0000000000000000e+00 +9.9999999866913647e-01
-5.9999999999999998e-01 +9.1012814268892193e+00 +0.0000000000000000e+00 -5.9999999961671102e-01 +6.1910254969224521e-05 +0.0000000000000000e+00 +9.9999999808356010e-01
-6.9999999999999996e-01 +9.1012747199481208e+00 +0.0000000000000000e+00 -6.9999999939135216e-01 +7.2228563809079597e-05 +0.0000000000000000e+00 +9.9999999739151724e-01
-7.9999999999999993e-01 +9.1012669811770994e+00 +0.0000000000000000e+00 -7.9999999909146569e-01 +8.2546853429880400e-05 +0.0000000000000000e+00 +9.9999999659300842e-01
-8.9999999999999991e-01 +9.1012582105780755e+00 +0.0000000000000000e+00 -8.9999999870640501e-01 +9.2865123862576635e-05 +0.0000000000000000e+00 +9.9999999568803433e-01
-9.9999999999999989e-01 +9.1012484081529657e+00 +0.0000000000000000e+00 -9.9999999822552366e-01 +1.0318337516512438e-04 +0.0000000000000000e+00 +9.9999999467659551e-01
-1.0999999999999999e+00 +9.1012375739036777e+00 +0.0000000000000000e+00 -1.0999999976381754e+00 +1.1350160742248539e-04 +0.0000000000000000e+00 +9.9999999355869251e-01
-1.2000000000000000e+00 +9.1012257078321124e+00 +0.0000000000000000e+00 -1.1999999969337134e+00 +1.2381982074662691e-04 +0.0000000000000000e+00 +9.9999999233432590e-01
-1.3000000000000000e+00 +9.1012128099401561e+00 +0.0000000000000000e+00 -1.2999999961014916e+00 +1.3413801527652203e-04 +0.0000000000000000e+00 +9.9999999100349635e-01
-1.4000000000000001e+00 +9.1011988802296795e+00 +0.0000000000000000e+00 -1.3999999951308639e+00 +1.4445619117815057e-04 +0.0000000000000000e+00 +9.9999998956620428e-01
-1.5000000000000002e+00 +9.1011839187025352e+00 +0.0000000000000000e+00 -1.4999999940111839e+00 +1.5477434864450058e-04 +0.0000000000000000e+00 +9.9999998802245038e-01
-1.6000000000000003e+00 +9.1011679253605582e+00 +0.0000000000000000e+00 -1.5999999927318054e+00 +1.6509248788615315e-04 +0.0000000000000000e+00 +9.9999998637223508e-01
-1.7000000000000004e+00 +9.1011509002055622e+00 +0.0000000000000000e+00 -1.6999999912820822e+00 +1.7541060902769742e-04 +0.0000000000000000e+00 +9.9999998461555895e-01
-1.8000000000000005e+00 +9.1011328432393590e+00 +0.0000000000000000e+00 -1.7999999896513685e+00 +1.8572871200414870e-04 +0.0000000000000000e+00 +9.9999998275242252e-01
-1.9000000000000006e+00 +9.1011137544637766e+00 +0.0000000000000000e+00 -1.8999999878290181e+00 +1.9604679655153969e-04 +0.0000000000000000e+00 +9.9999998078282648e-01
-2.0000000000000004e+00 +9.1010936338806783e+00 +0.0000000000000000e+00 -1.9999999858043851e+00 +2.0636486220693029e-04 +0.0000000000000000e+00 +9.9999997870677149e-01
-2.1000000000000005e+00 +9.1010724814919861e+00 +0.0000000000000000e+00 -2.0999999835668239e+00 +2.1668290830841822e-04 +0.0000000000000000e+00 +9.9999997652425821e-01
-2.2000000000000006e+00 +9.1010502972996967e+00 +0.0000000000000000e+00 -2.1999999811056883e+00 +2.2700093399515131e-04 +0.0000000000000000e+00 +9.9999997423528753e-01
-2.3000000000000007e+00 +9.1010270813059027e+00 +0.0000000000000000e+00 -2.2999999784103329e+00 +2.3731893820734052e-04 +0.0000000000000000e+00 +9.9999997183986022e-01
-2.4000000000000008e+00 +9.1010028335128119e+00 +0.0000000000000000e+00 -2.3999999754701120e+00 +2.4763691968627443e-04 +0.0000000000000000e+00 +9.9999996933797741e-01
-2.5000000000000009e+00 +9.1009775539227711e+00 +0.0000000000000000e+00 -2.4999999722743800e+00 +2.5795487697433491e-04 +0.0000000000000000e+00 +9.9999996672964009e-01
-2.6000000000000010e+00 +9.1009512425382795e+00 +0.0000000000000000e+00 -2.5999999688124915e+00 +2.6827280841501387e-04 +0.0000000000000000e+00 +9.9999996401484936e-01
-2.7000000000000011e+00 +9.1009238993620123e+00 +0.0000000000000000e+00 -2.6999999650738014e+00 +2.7859071215293108e-04 +0.0000000000000000e+00 +9.9999996119360668e-01
-2.8000000000000012e+00 +9.1008955243968401e+00 +0.0000000000000000e+00 -2.7999999610476642e+00 +2.8890858613385363e-04 +0.0000000000000000e+00 +9.9999995826591348e-01
-2.9000000000000012e+00 +9.1008661176458521e+00 +0.0000000000000000e+00 -2.8999999567234354e+00 +2.9922642810471610e-04 +0.0000000000000000e+00 +9.9999995523177132e-01
-3.0000000000000013e+00 +9.1008356791123681e+00 +0.0000000000000000e+00 -2.9999999520904699e+00 +3.0954423561364213e-04 +0.0000000000000000e+00 +9.9999995209118187e-01
-3.1000000000000014e+00 +9.1008042087999659e+00 +0.0000000000000000e+00 -3.0999999471381234e+00 +3.1986200600996723e-04 +0.0000000000000000e+00 +9.9999994884414711e-01
-3.2000000000000015e+00 +9.1007717067124982e+00 +0.0000000000000000e+00 -3.1999999418557512e+00 +3.3017973644426261e-04 +0.0000000000000000e+00 +9.9999994549066917e-01
-3.3000000000000016e+00 +9.1007381728541112e+00 +0.0000000000000000e+00 -3.2999999362327093e+00 +3.4049742386836032e-04 +0.0000000000000000e+00 +9.9999994203075038e-01
-3.4000000000000017e+00 +9.1007036072292671e+00 +0.0000000000000000e+00 -3.3999999302583532e+00 +3.5081506503537968e-04 +0.0000000000000000e+00 +9.9999993846439306e-01
-3.5000000000000018e+00 +9.1006680098427619e+00 +0.0000000000000000e+00 -3.4999999239220396e+00 +3.6113265649975464e-04 +0.0000000000000000e+00 +9.9999993479159999e-01
-3.6000000000000019e+00 +9.1006313806997454e+00 +0.0000000000000000e+00 -3.5999999172131254e+00 +3.7145019464047800e-04 +0.0000000000000000e+00 +9.9999993101237394e-01
-3.7000000000000020e+00 +9.1005937198057296e+00 +0.0000000000000000e+00 -3.6999999101209671e+00 +3.8176767591649566e-04 +0.0000000000000000e+00 +9.9999992712671804e-01
-3.8000000000000020e+00 +9.1005550271665641e+00 +0.0000000000000000e+00 -3.7999999026349216e+00 +3.9208509712207538e-04 +0.0000000000000000e+00 +9.9999992313463526e-01
-3.9000000000000021e+00 +9.1005153027884020e+00 +0.0000000000000000e+00 -3.8999998947443468e+00 +4.0240245541000392e-04 +0.0000000000000000e+00 +9.9999991903612861e-01
-4.0000000000000018e+00 +9.1004745466776633e+00 +0.0000000000000000e+00 -3.9999998864386002e+00 +4.1271974829156589e-04 +0.0000000000000000e+00 +9.9999991483120099e-01
-4.1000000000000014e+00 +9.1004327588409968e+00 +0.0000000000000000e+00 -4.0999998777070399e+00 +4.2303697363652026e-04 +0.0000000000000000e+00 +9.9999991051985537e-01
-4.2000000000000011e+00 +9.1003899392852468e+00 +0.0000000000000000e+00 -4.1999998685390239e+00 +4.3335412967307485e-04 +0.0000000000000000e+00 +9.9999990610209466e-01
-4.3000000000000007e+00 +9.1003460880174192e+00 +0.0000000000000000e+00 -4.2999998589239112e+00 +4.4367121498785865e-04 +0.0000000000000000e+00 +9.9999990157792162e-01
-4.4000000000000004e+00 +9.1003012050446426e+00 +0.0000000000000000e+00 -4.3999998488510608e+00 +4.5398822852589217e-04 +0.0000000000000000e+00 +9.9999989694733882e-01
-4.5000000000000000e+00 +9.1002552903741307e+00 +0.0000000000000000e+00 -4.4999998383098321e+00 +4.6430516959055539e-04 +0.0000000000000000e+00 +9.9999989221034891e-01
-4.5999999999999996e+00 +9.1002083440131525e+00 +0.0000000000000000e+00 -4.5999998272895839e+00 +4.7462203784355371e-04 +0.0000000000000000e+00 +9.9999988736695422e-01
-4.6999999999999993e+00 +9.1001603659689891e+00 +0.0000000000000000e+00 -4.6999998157796758e+00 +4.8493883330488188e-04 +0.0000000000000000e+00 +9.9999988241715698e-01
-4.7999999999999989e+00 +9.1001113562489060e+00 +0.0000000000000000e+00 -4.7999998037694684e+00 +4.9525555635278557e-04 +0.0000000000000000e+00 +9.9999987736095930e-01
-4.8999999999999986e+00 +9.1000613148601097e+00 +0.0000000000000000e+00 -4.8999997912483213e+00 +5.0557220772372107e-04 +0.0000000000000000e+00 +9.9999987219836306e-01
-4.9999999999999982e+00 +9.1000102418097146e+00 +0.0000000000000000e+00 -4.9999997782055949e+00 +5.1588878851231256e-04 +0.0000000000000000e+00 +9.9999986692936993e-01
-5.0999999999999979e+00 +9.0999581371047107e+00 +0.0000000000000000e+00 -5.0999997646306490e+00 +5.2620530017130759e-04 +0.0000000000000000e+00 +9.9999986155398124e-01
-5.1999999999999975e+00 +9.0999050007519244e+00 +0.0000000000000000e+00 -5.1999997505128448e+00 +5.3652174451153021e-04 +0.0000000000000000e+00 +9.9999985607219821e-01
-5.2999999999999972e+00 +9.0998508327579817e+00 +0.0000000000000000e+00 -5.2999997358415420e+00 +5.4683812370183188e-04 +0.0000000000000000e+00 +9.9999985048402185e-01
-5.3999999999999968e+00 +9.0997956331292720e+00 +0.0000000000000000e+00 -5.3999997206061021e+00 +5.5715444026904054e-04 +0.0000000000000000e+00 +9.9999984478945259e-01
-5.4999999999999964e+00 +9.0997394018719184e+00 +0.0000000000000000e+00 -5.4999997047958855e+00 +5.6747069709790733e-04 +0.0000000000000000e+00 +9.9999983898849076e-01
-5.5999999999999961e+00 +9.0996821389917368e+00 +0.0000000000000000e+00 -5.5999996884002536e+00 +5.7778689741196684e-04 +0.0000000000000000e+00 +9.9999983308113638e-01
-5.6999999999999957e+00 +9.0996238444942090e+00 +0.0000000000000000e+00 -5.6999996714085661e+00 +5.8810304456355812e-04 +0.0000000000000000e+00 +9.9999982706738921e-01
-5.7999999999999954e+00 +9.0995645183844864e+00 +0.0000000000000000e+00 -5.7999996538101843e+00 +5.9841914182387490e-04 +0.0000000000000000e+00 +9.9999982094724904e-01
-5.8999999999999950e+00 +9.0995041606674008e+00 +0.0000000000000000e+00 -5.8999996355944688e+00 +6.0873519236387917e-04 +0.0000000000000000e+00 +9.9999981472071531e-01
-5.9999999999999947e+00 +9.0994427713474693e+00 +0.0000000000000000e+00 -5.9999996167507810e+00 +6.1905119925430090e-04 +0.0000000000000000e+00 +9.9999980838778768e-01
-6.0999999999999943e+00 +9.0993803504289072e+00 +0.0000000000000000e+00 -6.0999995972684804e+00 +6.2936716546563830e-04 +0.0000000000000000e+00 +9.9999980194846561e-01
-6.1999999999999940e+00 +9.0993168979156369e+00 +0.0000000000000000e+00 -6.1999995771369276e+00 +6.3968309386815852e-04 +0.0000000000000000e+00 +9.9999979540274853e-01
-6.2999999999999936e+00 +9.0992524138113016e+00 +0.0000000000000000e+00 -6.2999995563454831e+00 +6.4999898723189882e-04 +0.0000000000000000e+00 +9.9999978875063578e-01
-6.3999999999999932e+00 +9.0991868981192692e+00 +0.0000000000000000e+00 -6.3999995348835075e+00 +6.6031484822666833e-04 +0.0000000000000000e+00 +9.9999978199212658e-01
-6.4999999999999929e+00 +9.0991203508426484e+00 +0.0000000000000000e+00 -6.4999995127403611e+00 +6.7063067942204984e-04 +0.0000000000000000e+00 +9.9999977512722038e-01
-6.5999999999999925e+00 +9.0990527719842955e+00 +0.0000000000000000e+00 -6.5999994899054046e+00 +6.8094648328740270e-04 +0.0000000000000000e+00 +9.9999976815591629e-01
-6.6999999999999922e+00 +9.0989841615468237e+00 +0.0000000000000000e+00 -6.6999994663679976e+00 +6.9126226219186565e-04 +0.0000000000000000e+00 +9.9999976107821364e-01
-6.7999999999999918e+00 +9.0989145195326131e+00 +0.0000000000000000e+00 -6.7999994421175005e+00 +7.0157801840436040e-04 +0.0000000000000000e+00 +9.9999975389411155e-01
-6.8999999999999915e+00 +9.0988438459438257e+00 +0.0000000000000000e+00 -6.8999994171432730e+00 +7.1189375409359574e-04 +0.0000000000000000e+00 +9.9999974660360913e-01
-6.9999999999999911e+00 +9.0987721407824083e+00 +0.0000000000000000e+00 -6.9999993914346756e+00 +7.2220947132807176e-04 +0.0000000000000000e+00 +9.9999973920670560e-01
-7.0999999999999908e+00 +9.0986994040501088e+00 +0.0000000000000000e+00 -7.0999993649810680e+00 +7.3252517207608497e-04 +0.0000000000000000e+00 +9.9999973170339995e-01
-7.1999999999999904e+00 +9.0986256357484798e+00 +0.0000000000000000e+00 -7.1999993377718097e+00 +7.4284085820573351e-04 +0.0000000000000000e+00 +9.9999972409369142e-01
-7.2999999999999901e+00 +9.0985508358788945e+00 +0.0000000000000000e+00 -7.2999993097962603e+00 +7.5315653148492318e-04 +0.0000000000000000e+00 +9.9999971637757912e-01
-7.3999999999999897e+00 +9.0984750044425553e+00 +0.0000000000000000e+00 -7.3999992810437787e+00 +7.6347219358137365e-04 +0.0000000000000000e+00 +9.9999970855506215e-01
-7.4999999999999893e+00 +9.0983981414404997e+00 +0.0000000000000000e+00 -7.4999992515037253e+00 +7.7378784606262530e-04 +0.0000000000000000e+00 +9.9999970062613963e-01
-7.5999999999999890e+00 +9.0983202468736142e+00 +0.0000000000000000e+00 -7.5999992211654597e+00 +7.8410349039598919e-04 +0.0000000000000000e+00 +9.9999969259081067e-01
-7.6999999999999886e+00 +9.0982413207426465e+00 +0.0000000000000000e+00 -7.6999991900183407e+00 +7.9441912794792850e-04 +0.0000000000000000e+00 +9.9999968444907450e-01
-7.7999999999999883e+00 +9.0981613630482094e+00 +0.0000000000000000e+00 -7.7999991580517278e+00 +8.0473475998345517e-04 +0.0000000000000000e+00 +9.9999967620093033e-01
-7.8999999999999879e+00 +9.0980803737907952e+00 +0.0000000000000000e+00 -7.8999991252549799e+00 +8.1505038766610874e-04 +0.0000000000000000e+00 +9.9999966784637728e-01
-7.9999999999999876e+00 +9.0979983529707855e+00 +0.0000000000000000e+00 -7.9999990916174566e+00 +8.2536601205799416e-04 +0.0000000000000000e+00 +9.9999965938541469e-01
-8.0999999999999872e+00 +9.0979153005884612e+00 +0.0000000000000000e+00 -8.0999990571285156e+00 +8.3568163411982068e-04 +0.0000000000000000e+00 +9.9999965081804187e-01
-8.1999999999999869e+00 +9.0978312166440105e+00 +0.0000000000000000e+00 -8.1999990217775167e+00 +8.4599725471094258e-04 +0.0000000000000000e+00 +9.9999964214425807e-01
-8.2999999999999865e+00 +9.0977461011375418e+00 +0.0000000000000000e+00 -8.2999989855538203e+00 +8.5631287458940071e-04 +0.0000000000000000e+00 +9.9999963336406283e-01
-8.3999999999999861e+00 +9.0976599540690941e+00 +0.0000000000000000e+00 -8.3999989484467825e+00 +8.6662849441196583e-04 +0.0000000000000000e+00 +9.9999962447745550e-01
-8.4999999999999858e+00 +9.0975727754386426e+00 +0.0000000000000000e+00 -8.4999989104457647e+00 +8.7694411473418325e-04 +0.0000000000000000e+00 +9.9999961548443561e-01
-8.5999999999999854e+00 +9.0974845652461145e+00 +0.0000000000000000e+00 -8.5999988715401230e+00 +8.8725973601041835e-04 +0.0000000000000000e+00 +9.9999960638500263e-01
-8.6999999999999851e+00 +9.0973953234913960e+00 +0.0000000000000000e+00 -8.6999988317192170e+00 +8.9757535859390409e-04 +0.0000000000000000e+00 +9.9999959717915632e-01
-8.7999999999999847e+00 +9.0973050501743433e+00 +0.0000000000000000e+00 -8.7999987909724062e+00 +9.0789098273678947e-04 +0.0000000000000000e+00 +9.9999958786689647e-01
-8.8999999999999844e+00 +9.0972137452947912e+00 +0.0000000000000000e+00 -8.8999987492890487e+00 +9.1820660859018950e-04 +0.0000000000000000e+00 +9.9999957844822274e-01
-8.9999999999999840e+00 +9.0971214088525656e+00 +0.0000000000000000e+00 -8.9999987066585039e+00 +9.2852223620423638e-04 +0.0000000000000000e+00 +9.9999956892313513e-01
-9.0999999999999837e+00 +9.0970280408474924e+00 +0.0000000000000000e+00 -9.0999986630701297e+00 +9.3883786552813244e-04 +0.0000000000000000e+00 +9.9999955929163364e-01
-9.1999999999999833e+00 +9.0969336412794082e+00 +0.0000000000000000e+00 -9.1999986185132840e+00 +9.4915349641020363e-04 +0.0000000000000000e+00 +9.9999954955371828e-01
-9.2999999999999829e+00 +9.0968382101481673e+00 +0.0000000000000000e+00 -9.2999985729773265e+00 +9.5946912859795532e-04 +0.0000000000000000e+00 +9.9999953970938926e-01
-9.3999999999999826e+00 +9.0967417474536560e+00 +0.0000000000000000e+00 -9.3999985264516148e+00 +9.6978476173812875e-04 +0.0000000000000000e+00 +9.9999952975864692e-01
-9.4999999999999822e+00 +9.0966442531958016e+00 +0.0000000000000000e+00 -9.4999984789255087e+00 +9.8010039537675914e-04 +0.0000000000000000e+00 +9.9999951970149170e-01
-9.5999999999999819e+00 +9.0965457273745809e+00 +0.0000000000000000e+00 -9.5999984303883661e+00 +9.9041602896394370e-04 +0.0000000000000000e+00 +9.9999950953792405e-01
-9.6999999999999815e+00 +9.0964461699900294e+00 +0.0000000000000000e+00 -9.6999983808295465e+00 +1.0007316619056910e-03 +0.0000000000000000e+00 +9.9999949926794462e-01
-9.7999999999999812e+00 +9.0963455810422413e+00 +0.0000000000000000e+00 -9.7999983302384077e+00 +1.0110472936157230e-03 +0.0000000000000000e+00 +9.9999948889155399e-01
-9.8999999999999808e+00 +9.0962439605313676e+00 +0.0000000000000000e+00 -9.8999982786043095e+00 +1.0213629235201610e-03 +0.0000000000000000e+00 +9.9999947840875281e-01
-9.9999999999999805e+00 +9.0961413084576161e+00 +0.0000000000000000e+00 -9.9999982259166114e+00 +1.0316785510574981e-03 +0.0000000000000000e+00 +9.9999946781954163e-01
-1.0099999999999980e+01 +9.0960376248212533e+00 +0.0000000000000000e+00 -1.0099998172164671e+01 +1.0419941756785722e-03 +0.0000000000000000e+00 +9.9999945712392113e-01
-1.0199999999999980e+01 +9.0959329096225954e+00 +0.0000000000000000e+00 -1.0199998117337849e+01 +1.0523097968465369e-03 +0.0000000000000000e+00 +9.9999944632189197e-01
-1.0299999999999979e+01 +9.0958271628620153e+00 +0.0000000000000000e+00 -1.0299998061425503e+01 +1.0626254140368321e-03 +0.0000000000000000e+00 +9.9999943541345482e-01
-1.0399999999999979e+01 +9.0957203845399377e+00 +0.0000000000000000e+00 -1.0399998004416993e+01 +1.0729410267371539e-03 +0.0000000000000000e+00 +9.9999942439861034e-01
-1.0499999999999979e+01 +9.0956125746568350e+00 +0.0000000000000000e+00 -1.0499997946301677e+01 +1.0832566344474227e-03 +0.0000000000000000e+00 +9.9999941327735931e-01
-1.0599999999999978e+01 +9.0955037332132314e+00 +0.0000000000000000e+00 -1.0599997887068918e+01 +1.0935722366797512e-03 +0.0000000000000000e+00 +9.9999940204970228e-01
-1.0699999999999978e+01 +9.0953938602096986e+00 +0.0000000000000000e+00 -1.0699997826708072e+01 +1.1038878329584115e-03 +0.0000000000000000e+00 +9.9999939071563992e-01
-1.0799999999999978e+01 +9.0952829556468551e+00 +0.0000000000000000e+00 -1.0799997765208500e+01 +1.1142034228198009e-03 +0.0000000000000000e+00 +9.9999937927517302e-01
-1.0899999999999977e+01 +9.0951710195253650e+00 +0.0000000000000000e+00 -1.0899997702559562e+01 +1.1245190058124068e-03 +0.0000000000000000e+00 +9.9999936772830222e-01
-1.0999999999999977e+01 +9.0950580518459372e+00 +0.0000000000000000e+00 -1.0999997638750616e+01 +1.1348345814967712e-03 +0.0000000000000000e+00 +9.9999935607502832e-01
-1.1099999999999977e+01 +9.0949440526093230e+00 +0.0000000000000000e+00 -1.1099997573771022e+01 +1.1451501494454536e-03 +0.0000000000000000e+00 +9.9999934431535198e-01
-1.1199999999999976e+01 +9.0948290218163184e+00 +0.0000000000000000e+00 -1.1199997507610140e+01 +1.1554657092429932e-03 +0.0000000000000000e+00 +9.9999933244927386e-01
-1.1299999999999976e+01 +9.0947129594677598e+00 +0.0000000000000000e+00 -1.1299997440257330e+01 +1.1657812604858706e-03 +0.0000000000000000e+00 +9.9999932047679474e-01
-1.1399999999999975e+01 +9.0945958655645196e+00 +0.0000000000000000e+00 -1.1399997371701952e+01 +1.1760968027824687e-03 +0.0000000000000000e+00 +9.9999930839791540e-01
-1.1499999999999975e+01 +9.0944777401075143e+00 +0.0000000000000000e+00 -1.1499997301933366e+01 +1.1864123357530315e-03 +0.0000000000000000e+00 +9.9999929621263639e-01
-1.1599999999999975e+01 +9.0943585830976925e+00 +0.0000000000000000e+00 -1.1599997230940932e+01 +1.1967278590314793e-03 +0.0000000000000000e+00 +9.9999928392095860e-01
-1.1699999999999974e+01 +9.0942383945360419e+00 +0.0000000000000000e+00 -1.1699997158714011e+01 +1.2070433722857906e-03 +0.0000000000000000e+00 +9.9999927152288270e-01
