# field on trajectory
# s[mm] rx[mm] ry[mm] rz[mm] bx[T] by[T] bz[T]
0.0000000000000000e+00 +9.1013000000000002e+00 +0.0000000000000000e+00 +0.0000000000000000e+00 +3.9639288385698787e-02 -7.4244855342443461e-01 +4.1235829930665515e-03
-1.0000000000000001e-01 +9.1012994846867912e+00 +0.0000000000000000e+00 -9.9999999998229686e-02 +3.9639918937702287e-02 -7.4244895367399100e-01 +4.1235316783535215e-03
-2.0000000000000001e-01 +9.1012979387467894e+00 +0.0000000000000000e+00 -1.9999999998583745e-01 +3.9640562522869037e-02 -7.4244936964358010e-01 +4.1234841020186342e-03
-3.0000000000000004e-01 +9.1012953621794175e+00 +0.0000000000000000e+00 -2.9999999995220139e-01 +3.9641218619137511e-02 -7.4244980102247760e-01 +4.1234397760210309e-03
-4.0000000000000002e-01 +9.1012917549840768e+00 +0.0000000000000000e+00 -3.9999999988669954e-01 +3.9641886704440917e-02 -7.4245024749998556e-01 +4.1233982123289976e-03
-5.0000000000000000e-01 +9.1012871171601475e+00 +0.0000000000000000e+00 -4.9999999977870990e-01 +3.9642566256708249e-02 -7.4245070876543129e-01 +4.1233589229203631e-03
-5.9999999999999998e-01 +9.1012814487069917e+00 +0.0000000000000000e+00 -5.9999999961761052e-01 +3.9643256753865194e-02 -7.4245118450816039e-01 +4.1233214197828900e-03
-6.9999999999999996e-01 +9.1012747496239470e+00 +0.0000000000000000e+00 -6.9999999939277935e-01 +3.9643957673835231e-02 -7.4245167441753268e-01 +4.1232852149146754e-03
-7.9999999999999993e-01 +9.1012670199103365e+00 +0.0000000000000000e+00 -7.9999999909359443e-01 +3.9644668494540472e-02 -7.4245217818291764e-01 +4.1232498203245364e-03
-8.9999999999999991e-01 +9.1012582595654603e+00 +0.0000000000000000e+00 -8.9999999870943359e-01 +3.9645388693902765e-02 -7.4245269549369008e-01 +4.1232147480324104e-03
-9.9999999999999989e-01 +9.1012484685886026e+00 +0.0000000000000000e+00 -9.9999999822967489e-01 +3.9646117749844639e-02 -7.4245322603922526e-01 +4.1231795100697488e-03
-1.0999999999999999e+00 +9.1012376469790262e+00 +0.0000000000000000e+00 -1.0999999976436960e+00 +3.9646855140290309e-02 -7.4245376950889408e-01 +4.1231436184799089e-03
-1.2000000000000000e+00 +9.1012257947359796e+00 +0.0000000000000000e+00 -1.1999999969408752e+00 +3.9647600343166646e-02 -7.4245432559205926e-01 +4.1231065853185589e-03
-1.3000000000000000e+00 +9.1012129118586920e+00 +0.0000000000000000e+00 -1.2999999961105899e+00 +3.9648352836404117e-02 -7.4245489397806974e-01 +4.1230679226540541e-03
-1.4000000000000001e+00 +9.1011989983463746e+00 +0.0000000000000000e+00 -1.3999999951422182e+00 +3.9649112097937936e-02 -7.4245547435625692e-01 +4.1230271425678556e-03
-1.5000000000000002e+00 +9.1011840541982227e+00 +0.0000000000000000e+00 -1.4999999940251378e+00 +3.9649877605708844e-02 -7.4245606641592998e-01 +4.1229837571549041e-03
-1.6000000000000003e+00 +9.1011680794134175e+00 +0.0000000000000000e+00 -1.5999999927487265e+00 +3.9650648837664219e-02 -7.4245666984636982e-01 +4.1229372785240226e-03
-1.7000000000000004e+00 +9.1011510739911241e+00 +0.0000000000000000e+00 -1.6999999913023620e+00 +3.9651425271759098e-02 -7.4245728433682678e-01 +4.1228872187983245e-03
-1.8000000000000005e+00 +9.1011330379304898e+00 +0.0000000000000000e+00 -1.7999999896754220e+00 +3.9652206385957012e-02 -7.4245790957651470e-01 +4.1228330901155871e-03
-1.9000000000000006e+00 +9.1011139712306477e+00 +0.0000000000000000e+00 -1.8999999878572842e+00 +3.9652991658231142e-02 -7.4245854525460697e-01 +4.1227744046286674e-03
-2.0000000000000004e+00 +9.1010938738907186e+00 +0.0000000000000000e+00 -1.9999999858373263e+00 +3.9653780566565162e-02 -7.4245919106023028e-01 +4.1227106745058799e-03
-2.1000000000000005e+00 +9.1010727459098089e+00 +0.0000000000000000e+00 -2.0999999836049259e+00 +3.9654572611168067e-02 -7.4245984667441012e-01 +4.1226415552478319e-03
-2.2000000000000006e+00 +9.1010505872870109e+00 +0.0000000000000000e+00 -2.1999999811494604e+00 +3.9655367381112507e-02 -7.4246051174591621e-01 +4.1225672756299110e-03
-2.3000000000000007e+00 +9.1010273980214027e+00 +0.0000000000000000e+00 -2.2999999784603076e+00 +3.9656164487688071e-02 -7.4246118591543164e-01 +4.1224882077391311e-03
-2.4000000000000008e+00 +9.1010031781120517e+00 +0.0000000000000000e+00 -2.3999999755268449e+00 +3.9656963542186591e-02 -7.4246186882360321e-01 +4.1224047236536766e-03
-2.5000000000000009e+00 +9.1009779275580112e+00 +0.0000000000000000e+00 -2.4999999723384496e+00 +3.9657764155901803e-02 -7.4246256011104217e-01 +4.1223171954407004e-03
-2.6000000000000010e+00 +9.1009516463583253e+00 +0.0000000000000000e+00 -2.5999999688844997e+00 +3.9658565940129148e-02 -7.4246325941832103e-01 +4.1222259951541407e-03
-2.7000000000000011e+00 +9.1009243345120261e+00 +0.0000000000000000e+00 -2.6999999651543725e+00 +3.9659368506165533e-02 -7.4246396638597134e-01 +4.1221314948325207e-03
-2.8000000000000012e+00 +9.1008959920181347e+00 +0.0000000000000000e+00 -2.7999999611374449e+00 +3.9660171465309070e-02 -7.4246468065448368e-01 +4.1220340664967570e-03
-2.9000000000000012e+00 +9.1008666188756635e+00 +0.0000000000000000e+00 -2.8999999568230947e+00 +3.9660974428858839e-02 -7.4246540186430443e-01 +4.1219340821479636e-03
-3.0000000000000013e+00 +9.1008362150836142e+00 +0.0000000000000000e+00 -2.9999999522006990e+00 +3.9661777008114574e-02 -7.4246612965583458e-01 +4.1218319137652643e-03
-3.1000000000000014e+00 +9.1008047806409795e+00 +0.0000000000000000e+00 -3.0999999472596356e+00 +3.9662578814376619e-02 -7.4246686366942860e-01 +4.1217279333035902e-03
-3.2000000000000015e+00 +9.1007723155467435e+00 +0.0000000000000000e+00 -3.1999999419892813e+00 +3.9663379458945408e-02 -7.4246760354539154e-01 +4.1216225126914910e-03
-3.3000000000000016e+00 +9.1007388197998829e+00 +0.0000000000000000e+00 -3.2999999363790131e+00 +3.9664178553121425e-02 -7.4246834892397784e-01 +4.1215160238289323e-03
-3.4000000000000017e+00 +9.1007042933993674e+00 +0.0000000000000000e+00 -3.3999999304182085e+00 +3.9664975708204882e-02 -7.4246909944539041e-01 +4.1214088385851120e-03
-3.5000000000000018e+00 +9.1006687363441578e+00 +0.0000000000000000e+00 -3.4999999240962447e+00 +3.9665770535495505e-02 -7.4246985474977789e-01 +4.1213013287962619e-03
-3.6000000000000019e+00 +9.1006321486332098e+00 +0.0000000000000000e+00 -3.5999999174024988e+00 +3.9666562646292217e-02 -7.4247061447723306e-01 +4.1211938662634338e-03
-3.7000000000000020e+00 +9.1005945302654734e+00 +0.0000000000000000e+00 -3.6999999103263481e+00 +3.9667351651892981e-02 -7.4247137826779130e-01 +4.1210868227503309e-03
-3.8000000000000020e+00 +9.1005558812398917e+00 +0.0000000000000000e+00 -3.7999999028571692e+00 +3.9668137163594477e-02 -7.4247214576142917e-01 +4.1209805699810934e-03
-3.9000000000000021e+00 +9.1005162015554042e+00 +0.0000000000000000e+00 -3.8999998949843393e+00 +3.9668918792691965e-02 -7.4247291659806203e-01 +4.1208754796381022e-03
-4.0000000000000018e+00 +9.1004754912109451e+00 +0.0000000000000000e+00 -3.9999998866972355e+00 +3.9669696150478911e-02 -7.4247369041754230e-01 +4.1207719233597867e-03
-4.1000000000000014e+00 +9.1004337502054433e+00 +0.0000000000000000e+00 -4.0999998779852351e+00 +3.9670468858954575e-02 -7.4247446684200746e-01 +4.1206702017560761e-03
-4.2000000000000011e+00 +9.1003909785378259e+00 +0.0000000000000000e+00 -4.1999998688377147e+00 +3.9671236582946204e-02 -7.4247524542297338e-01 +4.1205703314817141e-03
-4.3000000000000007e+00 +9.1003471762070181e+00 +0.0000000000000000e+00 -4.2999998592440507e+00 +3.9671998997983599e-02 -7.4247602569438542e-01 +4.1204722582246639e-03
-4.4000000000000004e+00 +9.1003023432119399e+00 +0.0000000000000000e+00 -4.3999998491936205e+00 +3.9672755779590528e-02 -7.4247680719028730e-01 +4.1203759276966703e-03
-4.5000000000000000e+00 +9.1002564795515113e+00 +0.0000000000000000e+00 -4.4999998386758007e+00 +3.9673506603284350e-02 -7.4247758944483233e-01 +4.1202812856353105e-03
-4.5999999999999996e+00 +9.1002095852246523e+00 +0.0000000000000000e+00 -4.5999998276799676e+00 +3.9674251144575561e-02 -7.4247837199228861e-01 +4.1201882778060563e-03
-4.6999999999999993e+00 +9.1001616602302811e+00 +0.0000000000000000e+00 -4.6999998161954988e+00 +3.9674989078967375e-02 -7.4247915436704837e-01 +4.1200968500043336e-03
-4.7999999999999989e+00 +9.1001127045673176e+00 +0.0000000000000000e+00 -4.7999998042117706e+00 +3.9675720081955274e-02 -7.4247993610363361e-01 +4.1200069480575620e-03
-4.8999999999999986e+00 +9.1000627182346800e+00 +0.0000000000000000e+00 -4.8999997917181597e+00 +3.9676443829026652e-02 -7.4248071673670690e-01 +4.1199185178272361e-03
-4.9999999999999982e+00 +9.1000117012312920e+00 +0.0000000000000000e+00 -4.9999997787040433e+00 +3.9677159995660294e-02 -7.4248149580107592e-01 +4.1198315052109660e-03
-5.0999999999999979e+00 +9.0999596535560769e+00 +0.0000000000000000e+00 -5.0999997651587972e+00 +3.9677868257325985e-02 -7.4248227283170287e-01 +4.1197458561445435e-03
-5.1999999999999975e+00 +9.0999065752079620e+00 +0.0000000000000000e+00 -5.1999997510717986e+00 +3.9678568289484094e-02 -7.4248304736371218e-01 +4.1196615166039924e-03
-5.2999999999999972e+00 +9.0998524661858760e+00 +0.0000000000000000e+00 -5.2999997364324232e+00 +3.9679259767585191e-02 -7.4248381893239812e-01 +4.1195784326076377e-03
-5.3999999999999968e+00 +9.0997973264887566e+00 +0.0000000000000000e+00 -5.3999997212300483e+00 +3.9679942367069475e-02 -7.4248458707323162e-01 +4.1194965502181560e-03
-5.4999999999999964e+00 +9.0997411561155417e+00 +0.0000000000000000e+00 -5.4999997054540506e+00 +3.9680615763366525e-02 -7.4248535132186977e-01 +4.1194158155446357e-03
-5.5999999999999961e+00 +9.0996839550651760e+00 +0.0000000000000000e+00 -5.5999996890938055e+00 +3.9681279631894717e-02 -7.4248611121416119e-01 +4.1193361747446297e-03
-5.6999999999999957e+00 +9.0996257233366116e+00 +0.0000000000000000e+00 -5.6999996721386905e+00 +3.9681933648060906e-02 -7.4248686628615601e-01 +4.1192575740262357e-03
-5.7999999999999954e+00 +9.0995664609288056e+00 +0.0000000000000000e+00 -5.7999996545780812e+00 +3.9682577487259951e-02 -7.4248761607411262e-01 +4.1191799596501264e-03
-5.8999999999999950e+00 +9.0995061678407243e+00 +0.0000000000000000e+00 -5.8999996364013549e+00 +3.9683210824874263e-02 -7.4248836011450470e-01 +4.1191032779316341e-03
-5.9999999999999947e+00 +9.0994448440713427e+00 +0.0000000000000000e+00 -5.9999996175978874e+00 +3.9683833336273421e-02 -7.4248909794402984e-01 +4.1190274752427973e-03
-6.0999999999999943e+00 +9.0993824896196411e+00 +0.0000000000000000e+00 -6.0999995981570549e+00 +3.9684444679384319e-02 -7.4248982919773854e-01 +4.1189524674147583e-03
-6.1999999999999940e+00 +9.0993191044846125e+00 +0.0000000000000000e+00 -6.1999995780682333e+00 +3.9685044442410701e-02 -7.4249055390330065e-01 +4.1188780479096895e-03
-6.2999999999999936e+00 +9.0992546886652566e+00 +0.0000000000000000e+00 -6.2999995573207999e+00 +3.9685632196137709e-02 -7.4249127218645772e-01 +4.1188039795688478e-03
-6.3999999999999932e+00 +9.0991892421605822e+00 +0.0000000000000000e+00 -6.3999995359041302e+00 +3.9686207511364556e-02 -7.4249198417286832e-01 +4.1187300252041297e-03
-6.4999999999999929e+00 +9.0991227649696107e+00 +0.0000000000000000e+00 -6.4999995138076008e+00 +3.9686769958905257e-02 -7.4249268998810380e-01 +4.1186559475964836e-03
-6.5999999999999925e+00 +9.0990552570913668e+00 +0.0000000000000000e+00 -6.5999994910205873e+00 +3.9687319109589204e-02 -7.4249338975764156e-01 +4.1185815094943604e-03
-6.6999999999999922e+00 +9.0989867185248876e+00 +0.0000000000000000e+00 -6.6999994675324661e+00 +3.9687854534261935e-02 -7.4249408360686098e-01 +4.1185064736121270e-03
-6.7999999999999918e+00 +9.0989171492692176e+00 +0.0000000000000000e+00 -6.7999994433326139e+00 +3.9688375803785793e-02 -7.4249477166103761e-01 +4.1184306026285141e-03
-6.8999999999999915e+00 +9.0988465493234081e+00 +0.0000000000000000e+00 -6.8999994184104061e+00 +3.9688882489040532e-02 -7.4249545404533812e-01 +4.1183536591850346e-03
-6.9999999999999911e+00 +9.0987749186865194e+00 +0.0000000000000000e+00 -6.9999993927552193e+00 +3.9689374160924135e-02 -7.4249613088481492e-01 +4.1182754058844183e-03
-7.0999999999999908e+00 +9.0987022573576191e+00 +0.0000000000000000e+00 -7.0999993663564300e+00 +3.9689850390353318e-02 -7.4249680230440074e-01 +4.1181956052890462e-03
-7.1999999999999904e+00 +9.0986285653357832e+00 +0.0000000000000000e+00 -7.1999993392034130e+00 +3.9690310748264374e-02 -7.4249746842890418e-01 +4.1181140199193804e-03
-7.2999999999999901e+00 +9.0985538426200954e+00 +0.0000000000000000e+00 -7.2999993112855455e+00 +3.9690754805613689e-02 -7.4249812938300386e-01 +4.1180304122523980e-03
-7.3999999999999897e+00 +9.0984780892096460e+00 +0.0000000000000000e+00 -7.3999992825922023e+00 +3.9691182133378557e-02 -7.4249878529124269e-01 +4.1179445447200140e-03
-7.4999999999999893e+00 +9.0984013051035326e+00 +0.0000000000000000e+00 -7.4999992531127608e+00 +3.9691592302557789e-02 -7.4249943627802362e-01 +4.1178561797075271e-03
-7.5999999999999890e+00 +9.0983234903008601e+00 +0.0000000000000000e+00 -7.5999992228365958e+00 +3.9691984884172367e-02 -7.4250008246760379e-01 +4.1177650795520349e-03
-7.6999999999999886e+00 +9.0982446448007384e+00 +0.0000000000000000e+00 -7.6999991917530837e+00 +3.9692359449266239e-02 -7.4250072398408962e-01 +4.1176710065408883e-03
-7.7999999999999883e+00 +9.0981647686022864e+00 +0.0000000000000000e+00 -7.7999991598516001e+00 +3.9692715568906814e-02 -7.4250136095143127e-01 +4.1175737229100940e-03
-7.8999999999999879e+00 +9.0980838617046267e+00 +0.0000000000000000e+00 -7.8999991271215215e+00 +3.9693052814185822e-02 -7.4250199349341750e-01 +4.1174729908427790e-03
-7.9999999999999876e+00 +9.0980019241068923e+00 +0.0000000000000000e+00 -7.9999990935522236e+00 +3.9693370756219891e-02 -7.4250262173367099e-01 +4.1173685724675965e-03
-8.0999999999999872e+00 +9.0979189558082183e+00 +0.0000000000000000e+00 -8.0999990591330828e+00 +3.9693669072871265e-02 -7.4250324578315763e-01 +4.1172603500640561e-03
-8.1999999999999869e+00 +9.0978349568077483e+00 +0.0000000000000000e+00 -8.1999990238534739e+00 +3.9693947868899050e-02 -7.4250386570279248e-01 +4.1171486867196076e-03
-8.2999999999999865e+00 +9.0977499271046298e+00 +0.0000000000000000e+00 -8.2999989877027733e+00 +3.9694207355756232e-02 -7.4250448154099058e-01 +4.1170340657455673e-03
-8.3999999999999861e+00 +9.0976638666980172e+00 +0.0000000000000000e+00 -8.3999989506703567e+00 +3.9694447744857426e-02 -7.4250509334616899e-01 +4.1169169704705442e-03
-8.4999999999999858e+00 +9.0975767755870702e+00 +0.0000000000000000e+00 -8.4999989127455997e+00 +3.9694669247577599e-02 -7.4250570116674641e-01 +4.1167978842411570e-03
-8.5999999999999854e+00 +9.0974886537709541e+00 +0.0000000000000000e+00 -8.5999988739178779e+00 +3.9694872075250777e-02 -7.4250630505114257e-01 +4.1166772904227657e-03
-8.6999999999999851e+00 +9.0973995012488391e+00 +0.0000000000000000e+00 -8.6999988341765668e+00 +3.9695056439168777e-02 -7.4250690504777894e-01 +4.1165556724001920e-03
-8.7999999999999847e+00 +9.0973093180199029e+00 +0.0000000000000000e+00 -8.7999987935110422e+00 +3.9695222550579980e-02 -7.4250750120508080e-01 +4.1164335135784463e-03
-8.8999999999999844e+00 +9.0972181040833284e+00 +0.0000000000000000e+00 -8.8999987519106796e+00 +3.9695370620687981e-02 -7.4250809357147451e-01 +4.1163112973834478e-03
-8.9999999999999840e+00 +9.0971258594383020e+00 +0.0000000000000000e+00 -8.9999987093648546e+00 +3.9695500860650386e-02 -7.4250868219538968e-01 +4.1161895072627484e-03
-9.0999999999999837e+00 +9.0970325840840172e+00 +0.0000000000000000e+00 -9.0999986658629446e+00 +3.9695613481577546e-02 -7.4250926712525933e-01 +4.1160686266862555e-03
-9.1999999999999833e+00 +9.0969382780196710e+00 +0.0000000000000000e+00 -9.1999986213943235e+00 +3.9695708694531137e-02 -7.4250984840951950e-01 +4.1159491391469603e-03
-9.2999999999999829e+00 +9.0968429412444660e+00 +0.0000000000000000e+00 -9.2999985759483668e+00 +3.9695786710523109e-02 -7.4251042609661055e-01 +4.1158315281616528e-03
-9.3999999999999826e+00 +9.0967465737576116e+00 +0.0000000000000000e+00 -9.3999985295144501e+00 +3.9695847740514240e-02 -7.4251100023497629e-01 +4.1157162772716546e-03
-9.4999999999999822e+00 +9.0966491755583210e+00 +0.0000000000000000e+00 -9.4999984820819492e+00 +3.9695891995412957e-02 -7.4251157087306574e-01 +4.1156038700435327e-03
-9.5999999999999819e+00 +9.0965507466458124e+00 +0.0000000000000000e+00 -9.5999984336402413e+00 +3.9695919686073979e-02 -7.4251213805933092e-01 +4.1154947900698211e-03
-9.6999999999999815e+00 +9.0964512870193079e+00 +0.0000000000000000e+00 -9.6999983841787003e+00 +3.9695931023297118e-02 -7.4251270184222984e-01 +4.1153895209697505e-03
-9.7999999999999812e+00 +9.0963507966780366e+00 +0.0000000000000000e+00 -9.7999983336867018e+00 +3.9695926217825951e-02 -7.4251326227022585e-01 +4.1152885463899705e-03
-9.8999999999999808e+00 +9.0962492756212310e+00 +0.0000000000000000e+00 -9.8999982821536214e+00 +3.9695905480346558e-02 -7.4251381939178673e-01 +4.1151923500052619e-03
-9.9999999999999805e+00 +9.0961467238481273e+00 +0.0000000000000000e+00 -9.9999982295688348e+00 +3.9695869021486259e-02 -7.4251437325538694e-01 +4.1151014155192634e-03
-1.0099999999999980e+01 +9.0960431413579688e+00 +0.0000000000000000e+00 -1.0099998175921716e+01 +3.9695816989675954e-02 -7.4251492384357587e-01 +4.1150160687277561e-03
-1.0199999999999980e+01 +9.0959385281500023e+00 +0.0000000000000000e+00 -1.0199998121201642e+01 +3.9695749284755957e-02 -7.4251547087519498e-01 +4.1149360036695816e-03
-1.0299999999999979e+01 +9.0958328842234799e+00 +0.0000000000000000e+00 -1.0299998065397988e+01 +3.9695665744442998e-02 -7.4251601400321487e-01 +4.1148607564494635e-03
-1.0399999999999979e+01 +9.0957262095776574e+00 +0.0000000000000000e+00 -1.0399998008500129e+01 +3.9695566206481334e-02 -7.4251655288068275e-01 +4.1147898631916958e-03
-1.0499999999999979e+01 +9.0956185042117994e+00 +0.0000000000000000e+00 -1.0499997950497439e+01 +3.9695450508643627e-02 -7.4251708716072073e-01 +4.1147228600405834e-03
-1.0599999999999978e+01 +9.0955097681251758e+00 +0.0000000000000000e+00 -1.0599997891379296e+01 +3.9695318488731882e-02 -7.4251761649653047e-01 +4.1146592831608790e-03
-1.0699999999999978e+01 +9.0954000013170617e+00 +0.0000000000000000e+00 -1.0699997831135073e+01 +3.9695169984578386e-02 -7.4251814054139387e-01 +4.1145986687382121e-03
-1.0799999999999978e+01 +9.0952892037867432e+00 +0.0000000000000000e+00 -1.0799997769754148e+01 +3.9695004834046616e-02 -7.4251865894867575e-01 +4.1145405529795388e-03
-1.0899999999999977e+01 +9.0951773755335115e+00 +0.0000000000000000e+00 -1.0899997707225895e+01 +3.9694822875032058e-02 -7.4251917137182466e-01 +4.1144844721135677e-03
-1.0999999999999977e+01 +9.0950645165566684e+00 +0.0000000000000000e+00 -1.0999997643539688e+01 +3.9694623945463248e-02 -7.4251967746437575e-01 +4.1144299623912016e-03
-1.1099999999999977e+01 +9.0949506268555211e+00 +0.0000000000000000e+00 -1.1099997578684905e+01 +3.9694407883302640e-02 -7.4252017687995231e-01 +4.1143765600859770e-03
-1.1199999999999976e+01 +9.0948357064293912e+00 +0.0000000000000000e+00 -1.1199997512650919e+01 +3.9694174526547457e-02 -7.4252066927226734e-01 +4.1143238014944997e-03
-1.1299999999999976e+01 +9.0947197552776053e+00 +0.0000000000000000e+00 -1.1299997445427106e+01 +3.9693923713230710e-02 -7.4252115429512622e-01 +4.1142712229368826e-03
-1.1399999999999975e+01 +9.0946027733995045e+00 +0.0000000000000000e+00 -1.1399997377002840e+01 +3.9693655281422005e-02 -7.4252163160242779e-01 +4.1142183607571822e-03
-1.1499999999999975e+01 +9.0944847607944368e+00 +0.0000000000000000e+00 -1.1499997307367499e+01 +3.9693369069228580e-02 -7.4252210084816650e-01 +4.1141647513238408e-03
-1.1599999999999975e+01 +9.0943657174617645e+00 +0.0000000000000000e+00 -1.1599997236510456e+01 +3.9693064914796086e-02 -7.4252256168643516e-01 +4.1141099310301231e-03
-1.1699999999999974e+01 +9.0942456434008605e+00 +0.0000000000000000e+00 -1.1699997164421086e+01 +3.9692742656309635e-02 -7.4252301377142549e-01 +4.1140534362945512e-03
