# multipoles
# s[mm] polynom_b[n=0][T/m^n] polynom_b[n=1][T/m^n] polynom_b[n=2][T/m^n] polynom_b[n=3][T/m^n] polynom_b[n=4][T/m^n] polynom_b[n=5][T/m^n] polynom_b[n=6][T/m^n] 
+0.0000000000000000e+00 -1.7053096692802591e-01 +3.8080713078093220e-01 +3.3309278941065390e+00 +1.3213613781981024e+01 +8.4266412562493826e+02 +1.5930911962889435e+04 -2.1246354432304967e+06 
+1.0000000000000001e-01 -1.7053091070566312e-01 +3.8081431965463486e-01 +3.3308666206490214e+00 +1.3081624770135861e+01 +8.4452509660123462e+02 +1.6518229527832271e+04 -2.1265660646401723e+06 
+2.0000000000000001e-01 -1.7053085382217084e-01 +3.8082149310581759e-01 +3.3310766910376706e+00 +1.2954934775349578e+01 +8.4072868063456758e+02 +1.7059479820656219e+04 -2.1001151894549327e+06 
+3.0000000000000004e-01 -1.7053079612531299e-01 +3.8082862766070474e-01 +3.3315406347975127e+00 +1.2833788075264417e+01 +8.3163933613022050e+02 +1.7553883134213884e+04 -2.0471251209801335e+06 
+4.0000000000000002e-01 -1.7053073746285383e-01 +3.8083569984634863e-01 +3.3322409813850640e+00 +1.2718428918508165e+01 +8.1762152357073444e+02 +1.8000659956902713e+04 -1.9694381707431104e+06 
+5.0000000000000000e-01 -1.7053067768255303e-01 +3.8084268619069750e-01 +3.3331602597237819e+00 +1.2609101526341522e+01 +7.9903971253940097e+02 +1.8399030952172303e+04 -1.8688966868468893e+06 
+5.9999999999999998e-01 -1.7053061663216937e-01 +3.8084956322037522e-01 +3.3342809983932016e+00 +1.2506050156838064e+01 +7.7625838085028556e+02 +1.8748216580307111e+04 -1.7473430588539247e+06 
+6.9999999999999996e-01 -1.7053055415945492e-01 +3.8085630746394805e-01 +3.3355857250699850e+00 +1.2409519012969593e+01 +7.4964202444202670e+02 +1.9047437624115355e+04 -1.6066197639510280e+06 
+7.9999999999999993e-01 -1.7053049011216209e-01 +3.8086289544894858e-01 +3.3370569674140507e+00 +1.2319752327616149e+01 +7.1955514052574893e+02 +1.9295914693410003e+04 -1.4485692875249891e+06 
+8.9999999999999991e-01 -1.7053042433804078e-01 +3.8086930370353511e-01 +3.3386772526545903e+00 +1.2236994317242488e+01 +6.8636223651882028e+02 +1.9492868488660541e+04 -1.2750341698608138e+06 
+9.9999999999999989e-01 -1.7053035668483280e-01 +3.8087550875473331e-01 +3.3404291068887630e+00 +1.2161489238941851e+01 +6.5042784353082777e+02 +1.9637519444882768e+04 -1.0878570715535395e+06 
+1.0999999999999999e+00 -1.7053028700026890e-01 +3.8088148712984982e-01 +3.3422950547571157e+00 +1.2093481343501358e+01 +6.1211652288783421e+02 +1.9729088022851862e+04 -8.8888080688795820e+05 
+1.2000000000000000e+00 -1.7053021513208649e-01 +3.8088721535492936e-01 +3.3442576215443189e+00 +1.2033214926369316e+01 +5.7179282685010389e+02 +1.9766794388994382e+04 -6.7994815924153884e+05 
+1.3000000000000000e+00 -1.7053014092800362e-01 +3.8089266995603638e-01 +3.3462993300994506e+00 +1.1980934290289703e+01 +5.2982135673907385e+02 +1.9749858631690109e+04 -4.6290215813632827e+05 
+1.4000000000000001e+00 -1.7053006423573697e-01 +3.8089782745766126e-01 +3.3484027028770655e+00 +1.1936883792795351e+01 +4.8656672584936905e+02 +1.9677500477295744e+04 -2.3958590800175234e+05 
+1.5000000000000002e+00 -1.7052998490298790e-01 +3.8090266438380427e-01 +3.3505502603213473e+00 +1.1901307815980683e+01 +4.4239358949838214e+02 +1.9548939460176804e+04 -1.1842730711234251e+04 
+1.6000000000000003e+00 -1.7052990277745722e-01 +3.8090715725704360e-01 +3.3527245227431490e+00 +1.1874450794377111e+01 +3.9766660949565437e+02 +1.9363394755462119e+04 +2.1848400224393350e+05 
+1.7000000000000004e+00 -1.7052981770683290e-01 +3.8091128259880036e-01 +3.3549080086317455e+00 +1.1856557210568322e+01 +3.5275048778467414e+02 +1.9120085190658818e+04 +4.4955070433364547e+05 
+1.8000000000000005e+00 -1.7052972953878415e-01 +3.8091501692856244e-01 +3.3570832340320305e+00 +1.1847871616988625e+01 +3.0800997791598178e+02 +1.8818229119345393e+04 +6.7951351910944341e+05 
+1.9000000000000006e+00 -1.7052963812098068e-01 +3.8091833676441006e-01 +3.3592327148778383e+00 +1.1848638621917837e+01 +2.6380984101919199e+02 +1.8457044495131133e+04 +9.0652852845373785e+05 
+2.0000000000000004e+00 -1.7052954330107248e-01 +3.8092121862295297e-01 +3.3613389645147476e+00 +1.1859102893845582e+01 +2.2051489372891226e+02 +1.8035748838083658e+04 +1.1287515204321370e+06 
+2.1000000000000005e+00 -1.7052944495273037e-01 +3.8092364467196754e-01 +3.3633874532527970e+00 +1.1879344174846697e+01 +1.7842537004621161e+02 +1.7554884565411714e+04 +1.3446653839937381e+06 
+2.2000000000000006e+00 -1.7052934306133349e-01 +3.8092561815172321e-01 +3.3653764253844778e+00 +1.1908840263324294e+01 +1.3756516143833815e+02 +1.7019956505717466e+04 +1.5541382126140129e+06 
+2.3000000000000007e+00 -1.7052923764206024e-01 +3.8092714716794257e-01 +3.3673075532743120e+00 +1.1946933384998637e+01 +9.7884568815386160e+01 +1.6437625001364184e+04 +1.7574036748562860e+06 
+2.4000000000000008e+00 -1.7052912871008402e-01 +3.8092823982400392e-01 +3.3691825092180405e+00 +1.1992965850696365e+01 +5.9333887878352549e+01 +1.5814549855888639e+04 +1.9546954808160951e+06 
+2.5000000000000009e+00 -1.7052901628059111e-01 +3.8092890422374071e-01 +3.3710029676392659e+00 +1.2046279972877745e+01 +2.1863367652832274e+01 +1.5157390824857870e+04 +2.1462475790990698e+06 
+2.6000000000000010e+00 -1.7052890036876428e-01 +3.8092914846974574e-01 +3.3727706032724165e+00 +1.2106218113172956e+01 -1.4576757655435317e+01 +1.4472807345171574e+04 +2.3322940135003682e+06 
+2.7000000000000011e+00 -1.7052878098979232e-01 +3.8092898066396208e-01 +3.3744870923217616e+00 +1.2172122670760524e+01 -5.0036290369919818e+01 +1.3767458590880446e+04 +2.5130690254491852e+06 
+2.8000000000000012e+00 -1.7052865815887569e-01 +3.8092840890758484e-01 +3.3761541132886013e+00 +1.2243336081445838e+01 -8.4565086998356847e+01 +1.3048003488545150e+04 +2.6888071441111327e+06 
+2.9000000000000012e+00 -1.7052853189122219e-01 +3.8092744130090389e-01 +3.3777733464045698e+00 +1.2319200826566471e+01 -1.1821304752500065e+02 +1.2321100656103261e+04 +2.8597431360270726e+06 
+3.0000000000000013e+00 -1.7052840220204607e-01 +3.8092608594388766e-01 +3.3793464737128085e+00 +1.2399059411922787e+01 -1.5103011876177888e+02 +1.1593408539930977e+04 +3.0261120265186680e+06 
+3.1000000000000014e+00 -1.7052826910657437e-01 +3.8092435093506249e-01 +3.3808751798180299e+00 +1.2482254406348625e+01 -1.8306630909944928e+02 +1.0871585172985664e+04 +3.1881491716917413e+06 
+3.2000000000000015e+00 -1.7052813262004424e-01 +3.8092224437320266e-01 +3.3823611516993659e+00 +1.2568128388050653e+01 -2.1437168618643827e+02 +1.0162288503927439e+04 +3.3460902511836346e+06 
+3.3000000000000016e+00 -1.7052799275770381e-01 +3.8091977435582280e-01 +3.3838060787979582e+00 +1.2656023992575928e+01 -2.4499637915571185e+02 +9.4721761069532404e+03 +3.5001712810401651e+06 
+3.4000000000000017e+00 -1.7052784953481848e-01 +3.8091694897945338e-01 +3.3852116539798902e+00 +1.2745283902873258e+01 -2.7499059886246710e+02 +8.8079052468176305e+03 +3.6506287156432904e+06 
+3.5000000000000018e+00 -1.7052770296666275e-01 +3.8091377634062989e-01 +3.3865795725163288e+00 +1.2835250824294638e+01 -3.0440461863579310e+02 +8.1761330155745864e+03 +3.7976993569203583e+06 
+3.6000000000000019e+00 -1.7052755306853104e-01 +3.8091026453478910e-01 +3.3879115334317831e+00 +1.2925267512130814e+01 -3.3328880029205436e+02 +7.5835161882840730e+03 +3.9416204796782192e+06 
+3.7000000000000020e+00 -1.7052739985573273e-01 +3.8090642165696215e-01 +3.3892092390979611e+00 +1.3014676757862034e+01 -3.6169358938027119e+02 +7.0367112846263344e+03 +4.0826298178896331e+06 
+3.8000000000000020e+00 -1.7052724334359518e-01 +3.8090225580136161e-01 +3.3904743956062973e+00 +1.3102821397596127e+01 -3.8966952164916404e+02 +6.5423745334971063e+03 +4.2209655938565563e+06 
+3.9000000000000021e+00 -1.7052708354746315e-01 +3.8089777506149597e-01 +3.3917087127152534e+00 +1.3189044309381146e+01 -4.1726722313643154e+02 +6.1071618879108892e+03 +4.3568665223925272e+06 
+4.0000000000000018e+00 -1.7052692048270507e-01 +3.8089298753068906e-01 +3.3929139048234114e+00 +1.3272688406161386e+01 -4.4453743046801208e+02 +5.7377290316838889e+03 +4.4905719114110321e+06 
+4.1000000000000014e+00 -1.7052675417114407e-01 +3.8088790621908464e-01 +3.3940907002369158e+00 +1.3353211761551988e+01 -4.7151370822074591e+02 +5.4389072250089775e+03 +4.6222741937871007e+06 
+4.2000000000000011e+00 -1.7052658464222364e-01 +3.8088256491491240e-01 +3.3952330473914301e+00 +1.3430545018280434e+01 -4.9811427826018706e+02 +5.2078956996775241e+03 +4.7518109698385429e+06 
+4.3000000000000007e+00 -1.7052641192268592e-01 +3.8087700295777205e-01 +3.3963324790462415e+00 +1.3504740448144414e+01 -5.2421674717487042e+02 +5.0398810272328628e+03 +4.8788896914563654e+06 
+4.4000000000000004e+00 -1.7052623603926692e-01 +3.8087125969516789e-01 +3.3973805261981354e+00 +1.3575850069271127e+01 -5.4969867845228816e+02 +4.9300512240871094e+03 +5.0032175862558493e+06 
+4.5000000000000000e+00 -1.7052605701870097e-01 +3.8086537448045477e-01 +3.3983687183562399e+00 +1.3643925695101634e+01 -5.7443759469612587e+02 +4.8735955343891692e+03 +5.1245016551610054e+06 
+4.5999999999999996e+00 -1.7052587488772397e-01 +3.8085938667495423e-01 +3.3992885839704434e+00 +1.3709018869432173e+01 -5.9831098588470820e+02 +4.8657048166428904e+03 +5.2424487122885371e+06 
+4.6999999999999993e+00 -1.7052568967306111e-01 +3.8085333564847706e-01 +3.4001316487396749e+00 +1.3771180847521737e+01 -6.2119627516506080e+02 +4.9015716602398888e+03 +5.3567652165379012e+06 
+4.7999999999999989e+00 -1.7052550140143818e-01 +3.8084726077811049e-01 +3.4008894369756271e+00 +1.3830462631944901e+01 -6.4297084457596782e+02 +4.9763901709726279e+03 +5.4671573938101493e+06 
+4.8999999999999986e+00 -1.7052531009957470e-01 +3.8084120144974853e-01 +3.4015534705633916e+00 +1.3886914920059089e+01 -6.6351201347324002e+02 +5.0853562962236774e+03 +5.5733311294501834e+06 
+4.9999999999999982e+00 -1.7052511579418828e-01 +3.8083519705944546e-01 +3.4021152694979855e+00 +1.3940588068308930e+01 -6.8269704794878442e+02 +5.2236680201086965e+03 +5.6749920106433267e+06 
+5.0999999999999979e+00 -1.7052491851198576e-01 +3.8082928701104701e-01 +3.4025663506810226e+00 +1.3991532155021517e+01 -7.0040313753206897e+02 +5.3865250098683591e+03 +5.7718452150708670e+06 
+5.1999999999999975e+00 -1.7052471827967847e-01 +3.8082351071964393e-01 +3.4028982296018024e+00 +1.4039796874081480e+01 -7.1650742490768266e+02 +5.5691292504027551e+03 +5.8635956461775796e+06 
+5.2999999999999972e+00 -1.7052451512396188e-01 +3.8081790761027151e-01 +3.4031024178786655e+00 +1.4085431576539442e+01 -7.3088695912487788e+02 +5.7666847854997350e+03 +5.9499477101125428e+06 
+5.3999999999999968e+00 -1.7052430907153041e-01 +3.8081251711849079e-01 +3.4031704247653165e+00 +1.4128485248319647e+01 -7.4341872204815274e+02 +5.9743978609287369e+03 +6.0306054362798603e+06 
+5.4999999999999964e+00 -1.7052410014907049e-01 +3.8080737869147702e-01 +3.4030937565714972e+00 +1.4169006472985815e+01 -7.5397961826529581e+02 +6.1874771540483953e+03 +6.1052724314622432e+06 
+5.5999999999999961e+00 -1.7052388838326174e-01 +3.8080253178723089e-01 +3.4028639162477274e+00 +1.4207043456015390e+01 -7.6244646356075577e+02 +6.4011336234845021e+03 +6.1736518155869227e+06 
+5.6999999999999957e+00 -1.7052367380077649e-01 +3.8079801587644996e-01 +3.4024724035599734e+00 +1.4242643966545574e+01 -7.6869598932455438e+02 +6.6105808571579346e+03 +6.2354462456864445e+06 
+5.7999999999999954e+00 -1.7052345642827885e-01 +3.8079387044181606e-01 +3.4019107148170828e+00 +1.4275855352793482e+01 -7.7260483536418656e+02 +6.8110349941234845e+03 +6.2903578759522540e+06 
+5.8999999999999950e+00 -1.7052323629242561e-01 +3.8079013497933661e-01 +3.4011703427173527e+00 +1.4306724505835414e+01 -7.7404954545879480e+02 +6.9977149228829476e+03 +6.3380883329908866e+06 
+5.9999999999999947e+00 -1.7052301341986514e-01 +3.8078684899737480e-01 +3.4002427763747121e+00 +1.4335297888047130e+01 -7.7290656733804440e+02 +7.1658420783673118e+03 +6.3783387101419438e+06 
+6.0999999999999943e+00 -1.7052278785773337e-01 +3.8078404345079031e-01 +3.3991236878900737e+00 +1.4361648763295928e+01 -7.6910313773377754e+02 +7.3110787339797589e+03 +6.4109220029973751e+06 
+6.1999999999999940e+00 -1.7052255974145453e-01 +3.8078171430304886e-01 +3.3978270321658126e+00 +1.4385774717995046e+01 -7.6278839905694520e+02 +7.4327015902663316e+03 +6.4361402620561449e+06 
+6.2999999999999936e+00 -1.7052232923068936e-01 +3.8077984856132047e-01 +3.3963718061336547e+00 +1.4407603794957707e+01 -7.5417238791846967e+02 +7.5314023423396957e+03 +6.4544272714356370e+06 
+6.3999999999999932e+00 -1.7052209648509964e-01 +3.8077843322042926e-01 +3.3947770069366703e+00 +1.4427064344178449e+01 -7.4346513800835135e+02 +7.6078712737772521e+03 +6.4662167732523577e+06 
+6.4999999999999929e+00 -1.7052186166434369e-01 +3.8077745526145368e-01 +3.3930616314676363e+00 +1.4444085113816568e+01 -7.3087667604852470e+02 +7.6627965075762022e+03 +6.4719424728561128e+06 
+6.5999999999999925e+00 -1.7052162492808218e-01 +3.8077690165099382e-01 +3.3912446771171192e+00 +1.4458595261264799e+01 -7.1661703636306197e+02 +7.6968639779570249e+03 +6.4720381092792228e+06 
+6.6999999999999922e+00 -1.7052138643596645e-01 +3.8077675934102384e-01 +3.3893451401925527e+00 +1.4470524365875894e+01 -7.0089622966414345e+02 +7.7107573392352424e+03 +6.4669373035500282e+06 
+6.7999999999999918e+00 -1.7052114634765864e-01 +3.8077701526706964e-01 +3.3873820186221613e+00 +1.4479802481271806e+01 -6.8392429639461739e+02 +7.7051576691518976e+03 +6.4570738180721812e+06 
+6.8999999999999915e+00 -1.7052090482280699e-01 +3.8077765634883015e-01 +3.3853743087779775e+00 +1.4486360113577593e+01 -6.6591124455672718e+02 +7.6807436149474943e+03 +6.4428812557501979e+06 
+6.9999999999999911e+00 -1.7052066202106911e-01 +3.8077866948904965e-01 +3.3833410085760613e+00 +1.4490128259168198e+01 -6.4706711074681709e+02 +7.6381911646323661e+03 +6.4247933562272461e+06 
+7.0999999999999908e+00 -1.7052041810209045e-01 +3.8078004157245987e-01 +3.3813011145468024e+00 +1.4491038433797247e+01 -6.2760190246419586e+02 +7.5781734912360125e+03 +6.4032437161203148e+06 
+7.1999999999999904e+00 -1.7052017322552676e-01 +3.8078175946571147e-01 +3.3792736249096218e+00 +1.4489022673820607e+01 -6.0772565811411016e+02 +7.5013609524159128e+03 +6.3786660785349077e+06 
+7.2999999999999901e+00 -1.7051992755102421e-01 +3.8078381001625233e-01 +3.3772775369627701e+00 +1.4484013572317885e+01 -5.8764839685252878e+02 +7.4084208789912955e+03 +6.3514940932922950e+06 
+7.3999999999999897e+00 -1.7051968123822805e-01 +3.8078618005238363e-01 +3.3753318482509806e+00 +1.4475944274890454e+01 -5.6758014087564868e+02 +7.3000176129430884e+03 +6.3221614230845151e+06 
+7.4999999999999893e+00 -1.7051943444678280e-01 +3.8078885638079485e-01 +3.3734555566209732e+00 +1.4464748553233399e+01 -5.4773091691783554e+02 +7.1768120806366269e+03 +6.2911017518453980e+06 
+7.5999999999999890e+00 -1.7051918733633084e-01 +3.8079182578863574e-01 +3.3716676600296962e+00 +1.4450360744189288e+01 -5.2831075257017858e+02 +7.0394621570405725e+03 +6.2587487676529456e+06 
+7.6999999999999886e+00 -1.7051894006651616e-01 +3.8079507504054733e-01 +3.3699871571023707e+00 +1.4432715838156756e+01 -5.0952968673847283e+02 +6.8886221519813371e+03 +6.2255362112408699e+06 
+7.7999999999999883e+00 -1.7051869279697607e-01 +3.8079859087927476e-01 +3.3684330460142933e+00 +1.4411749460133445e+01 -4.9159774862750618e+02 +6.7249429305940657e+03 +6.1918977775987899e+06 
+7.8999999999999879e+00 -1.7051844568734664e-01 +3.8080236002412854e-01 +3.3670243253213816e+00 +1.4387397915868462e+01 -4.7472497378877620e+02 +6.5490716469847239e+03 +6.1582671924784239e+06 
+7.9999999999999876e+00 -1.7051819889726305e-01 +3.8080636917219735e-01 +3.3657799938383421e+00 +1.4359598087949681e+01 -4.5912140818772320e+02 +6.3616527158210220e+03 +6.1250782711366052e+06 
+8.0999999999999872e+00 -1.7051795252566587e-01 +3.8081060136985706e-01 +3.3647139535931827e+00 +1.4328246073870439e+01 -4.4494541406848481e+02 +6.1642968754308768e+03 +6.0926695977814412e+06 
+8.1999999999999869e+00 -1.7051770644293132e-01 +3.8081502136094103e-01 +3.3638221395990962e+00 +1.4293421246854619e+01 -4.3218982386311069e+02 +5.9597440992946613e+03 +6.0611407478267541e+06 
+8.2999999999999865e+00 -1.7051746046517033e-01 +3.8081958820310668e-01 +3.3630965307569411e+00 +1.4255337292758378e+01 -4.2081658350263081e+02 +5.7503552652746075e+03 +6.0305736567034218e+06 
+8.3999999999999861e+00 -1.7051721440848722e-01 +3.8082426095805066e-01 +3.3625291071118393e+00 +1.4214207873325806e+01 -4.1078767910071150e+02 +5.5384912037249514e+03 +6.0010504728595158e+06 
+8.4999999999999858e+00 -1.7051696808898414e-01 +3.8082899869269465e-01 +3.3621118503483700e+00 +1.4170246563456478e+01 -4.0206514273660724e+02 +5.3265130462825209e+03 +5.9726535795448096e+06 
+8.5999999999999854e+00 -1.7051672132274889e-01 +3.8083376047917189e-01 +3.3618367423362625e+00 +1.4123666851116358e+01 -3.9461102434390153e+02 +5.1167822237922283e+03 +5.9454654587092251e+06 
+8.6999999999999851e+00 -1.7051647392586972e-01 +3.8083850539535918e-01 +3.3616957669608185e+00 +1.4074682126891570e+01 -3.8838742689962777e+02 +4.9116605126250197e+03 +5.9195688588145813e+06 
+8.7999999999999847e+00 -1.7051622571441924e-01 +3.8084319252591964e-01 +3.3616809082172479e+00 +1.4023505653170558e+01 -3.8335647072920972e+02 +4.7135102128296157e+03 +5.8950466254948433e+06 
+8.8999999999999844e+00 -1.7051597650446673e-01 +3.8084778096111360e-01 +3.3617841518299860e+00 +1.3970350601995225e+01 -3.7948032551548164e+02 +4.5246939167831197e+03 +5.8719818569071162e+06 
+8.9999999999999840e+00 -1.7051572611208085e-01 +3.8085222979792988e-01 +3.3619974856589834e+00 +1.3915430025069870e+01 -3.7672121780280054e+02 +4.3475746735682796e+03 +5.8504579375661714e+06 
+9.0999999999999837e+00 -1.7051547435330947e-01 +3.8085649814046751e-01 +3.3623128971555944e+00 +1.3858956842684437e+01 -3.7504138314437614e+02 +4.1845160514668869e+03 +5.8305583117495188e+06 
+9.1999999999999833e+00 -1.7051522104420000e-01 +3.8086054509992917e-01 +3.3627223760782985e+00 +1.3801143848302452e+01 -3.7440311882264217e+02 +4.0378820968224222e+03 +5.8123667361182291e+06 
+9.2999999999999829e+00 -1.7051496600079072e-01 +3.8086432979451051e-01 +3.3632179133766158e+00 +1.3742203712583855e+01 -3.7476876245015666e+02 +3.9100373072080470e+03 +5.7959671771598747e+06 
+9.3999999999999826e+00 -1.7051470903911381e-01 +3.8086781135031339e-01 +3.3637915016671376e+00 +1.3682348960986682e+01 -3.7610070172256894e+02 +3.8033467454180927e+03 +5.7814438581301793e+06 
+9.4999999999999822e+00 -1.7051444997518861e-01 +3.8087094890080658e-01 +3.3644351344262851e+00 +1.3621791989114893e+01 -3.7836135967082168e+02 +3.7201759526747114e+03 +5.7688811903883535e+06 
+9.5999999999999819e+00 -1.7051418862502626e-01 +3.8087370158894834e-01 +3.3651408067373065e+00 +1.3560745003256409e+01 -3.8151320970814544e+02 +3.6628912848525933e+03 +5.7583638459850745e+06 
+9.6999999999999815e+00 -1.7051392480463107e-01 +3.8087602856431080e-01 +3.3659005153734394e+00 +1.3499420109620711e+01 -3.8551877703724062e+02 +3.6338593737392202e+03 +5.7499767635941021e+06 
+9.7999999999999812e+00 -1.7051365832999646e-01 +3.8087788898659053e-01 +3.3667062583583292e+00 +1.3438029210033116e+01 -3.9034063060644246e+02 +3.6354477412861002e+03 +5.7438051099914275e+06 
+9.8999999999999808e+00 -1.7051338901710839e-01 +3.8087924202341561e-01 +3.3675500356644243e+00 +1.3376784071314084e+01 -3.9594139853141428e+02 +3.6700243762125015e+03 +5.7399343586575715e+06 
+9.9999999999999805e+00 -1.7051311668193994e-01 +3.8088004684938120e-01 +3.3684238479330513e+00 +1.3315896413105090e+01 -4.0228373211472166e+02 +3.7399570327114511e+03 +5.7384500775703648e+06 
+1.0099999999999980e+01 -1.7051284119412130e-01 +3.8088026892291987e-01 +3.3693208617814752e+00 +1.3255665277708433e+01 -4.0933519362343679e+02 +3.8464617856920536e+03 +5.7394291854549265e+06 
