# trajectory
# s[mm] rx[mm] ry[mm] rz[mm] px[rad] py[rad] pz[rad]
0.0000000000000000e+00 +9.1013000000000002e+00 +0.0000000000000000e+00 +0.0000000000000000e+00 +0.0000000000000000e+00 +0.0000000000000000e+00 +1.0000000000000000e+00
1.0000000000000001e-01 +9.1012994845450041e+00 +0.0000000000000000e+00 +9.9999999998228700e-02 -1.0309099785031624e-05 +0.0000000000000000e+00 +9.9999999994686128e-01
2.0000000000000001e-01 +9.1012979381800729e+00 +0.0000000000000000e+00 +1.9999999998582965e-01 -2.0618198714719126e-05 +0.0000000000000000e+00 +9.9999999978744503e-01
3.0000000000000004e-01 +9.1012953609052865e+00 +0.0000000000000000e+00 +2.9999999995217513e-01 -3.0927296877641594e-05 +0.0000000000000000e+00 +9.9999999952175123e-01
4.0000000000000002e-01 +9.1012917527207211e+00 +0.0000000000000000e+00 +3.9999999988663737e-01 -4.1236394325030375e-05 +0.0000000000000000e+00 +9.9999999914977999e-01
5.0000000000000000e-01 +9.1012871136264462e+00 +0.0000000000000000e+00 +4.9999999977858856e-01 -5.1545491070768510e-05 +0.0000000000000000e+00 +9.9999999867153133e-01
5.9999999999999998e-01 +9.1012814436225327e+00 +0.0000000000000000e+00 +5.9999999961740103e-01 -6.1854587091389834e-05 +0.0000000000000000e+00 +9.9999999808700524e-01
6.9999999999999996e-01 +9.1012747427090552e+00 +0.0000000000000000e+00 +6.9999999939244706e-01 -7.2163682326077794e-05 +0.0000000000000000e+00 +9.9999999739620171e-01
7.9999999999999993e-01 +9.1012670108860974e+00 +0.0000000000000000e+00 +7.9999999909309882e-01 -8.2472776676663947e-05 +0.0000000000000000e+00 +9.9999999659912076e-01
8.9999999999999991e-01 +9.1012582481537532e+00 +0.0000000000000000e+00 +8.9999999870872860e-01 -9.2781870007626181e-05 +0.0000000000000000e+00 +9.9999999569576248e-01
9.9999999999999989e-01 +9.1012484545121346e+00 +0.0000000000000000e+00 +9.9999999822870866e-01 -1.0309096214608660e-04 +0.0000000000000000e+00 +9.9999999468612688e-01
1.0999999999999999e+00 +9.1012376299613713e+00 +0.0000000000000000e+00 +1.0999999976424113e+00 -1.1340005288180911e-04 +0.0000000000000000e+00 +9.9999999357021407e-01
1.2000000000000000e+00 +9.1012257745016143e+00 +0.0000000000000000e+00 +1.1999999969392088e+00 -1.2370914196719674e-04 +0.0000000000000000e+00 +9.9999999234802417e-01
1.3000000000000000e+00 +9.1012128881330430e+00 +0.0000000000000000e+00 +1.2999999961084734e+00 -1.3401822911728855e-04 +0.0000000000000000e+00 +9.9999999101955717e-01
1.4000000000000001e+00 +9.1011989708558669e+00 +0.0000000000000000e+00 +1.3999999951395776e+00 -1.4432731400975640e-04 +0.0000000000000000e+00 +9.9999998958481329e-01
1.5000000000000002e+00 +9.1011840226703296e+00 +0.0000000000000000e+00 +1.4999999940218935e+00 -1.5463639628490126e-04 +0.0000000000000000e+00 +9.9999998804379253e-01
1.6000000000000003e+00 +9.1011680435767115e+00 +0.0000000000000000e+00 +1.5999999927447937e+00 -1.6494547554564930e-04 +0.0000000000000000e+00 +9.9999998639649512e-01
1.7000000000000004e+00 +9.1011510335753361e+00 +0.0000000000000000e+00 +1.6999999912976500e+00 -1.7525455135754763e-04 +0.0000000000000000e+00 +9.9999998464292117e-01
1.8000000000000005e+00 +9.1011329926665709e+00 +0.0000000000000000e+00 +1.7999999896698353e+00 -1.8556362324875984e-04 +0.0000000000000000e+00 +9.9999998278307090e-01
1.9000000000000006e+00 +9.1011139208508336e+00 +0.0000000000000000e+00 +1.8999999878507217e+00 -1.9587269071006102e-04 +0.0000000000000000e+00 +9.9999998081694452e-01
2.0000000000000004e+00 +9.1010938181285947e+00 +0.0000000000000000e+00 +1.9999999858296815e+00 -2.0618175319483270e-04 +0.0000000000000000e+00 +9.9999997874454227e-01
2.1000000000000005e+00 +9.1010726845003802e+00 +0.0000000000000000e+00 +2.0999999835960876e+00 -2.1649081012193184e-04 +0.0000000000000000e+00 +9.9999997656586448e-01
2.2000000000000006e+00 +9.1010505199667744e+00 +0.0000000000000000e+00 +2.1999999811393121e+00 -2.2679986090730434e-04 +0.0000000000000000e+00 +9.9999997428091136e-01
2.3000000000000007e+00 +9.1010273245284203e+00 +0.0000000000000000e+00 +2.2999999784487275e+00 -2.3710890499560179e-04 +0.0000000000000000e+00 +9.9999997188968337e-01
2.4000000000000008e+00 +9.1010030981860144e+00 +0.0000000000000000e+00 +2.3999999755137065e+00 -2.4741794186305575e-04 +0.0000000000000000e+00 +9.9999996939218072e-01
2.5000000000000009e+00 +9.1009778409403044e+00 +0.0000000000000000e+00 +2.4999999723236215e+00 -2.5772697101747802e-04 +0.0000000000000000e+00 +9.9999996678840386e-01
2.6000000000000010e+00 +9.1009515527920843e+00 +0.0000000000000000e+00 +2.5999999688678450e+00 -2.6803599199826149e-04 +0.0000000000000000e+00 +9.9999996407835301e-01
2.7000000000000011e+00 +9.1009242337421927e+00 +0.0000000000000000e+00 +2.6999999651357496e+00 -2.7834500437638109e-04 +0.0000000000000000e+00 +9.9999996126202872e-01
2.8000000000000012e+00 +9.1008958837915088e+00 +0.0000000000000000e+00 +2.7999999611167081e+00 -2.8865400775439533e-04 +0.0000000000000000e+00 +9.9999995833943123e-01
2.9000000000000012e+00 +9.1008665029409528e+00 +0.0000000000000000e+00 +2.8999999568000931e+00 -2.9896300176644812e-04 +0.0000000000000000e+00 +9.9999995531056096e-01
3.0000000000000013e+00 +9.1008360911914785e+00 +0.0000000000000000e+00 +2.9999999521752776e+00 -3.0927198607827081e-04 +0.0000000000000000e+00 +9.9999995217541837e-01
3.1000000000000014e+00 +9.1008046485440701e+00 +0.0000000000000000e+00 +3.0999999472316344e+00 -3.1958096038718484e-04 +0.0000000000000000e+00 +9.9999994893400379e-01
3.2000000000000015e+00 +9.1007721749997437e+00 +0.0000000000000000e+00 +3.1999999419585361e+00 -3.2988992442210471e-04 +0.0000000000000000e+00 +9.9999994558631766e-01
3.3000000000000016e+00 +9.1007386705595366e+00 +0.0000000000000000e+00 +3.2999999363453556e+00 -3.4019887794354100e-04 +0.0000000000000000e+00 +9.9999994213236032e-01
3.4000000000000017e+00 +9.1007041352245128e+00 +0.0000000000000000e+00 +3.3999999303814659e+00 -3.5050782074360422e-04 +0.0000000000000000e+00 +9.9999993857213221e-01
3.5000000000000018e+00 +9.1006685689957525e+00 +0.0000000000000000e+00 +3.4999999240562398e+00 -3.6081675264600875e-04 +0.0000000000000000e+00 +9.9999993490563366e-01
3.6000000000000019e+00 +9.1006319718743516e+00 +0.0000000000000000e+00 +3.5999999173590504e+00 -3.7112567350607717e-04 +0.0000000000000000e+00 +9.9999993113286512e-01
3.7000000000000020e+00 +9.1005943438614221e+00 +0.0000000000000000e+00 +3.6999999102792707e+00 -3.8143458321074505e-04 +0.0000000000000000e+00 +9.9999992725382703e-01
3.8000000000000020e+00 +9.1005556849580831e+00 +0.0000000000000000e+00 +3.7999999028062734e+00 -3.9174348167856586e-04 +0.0000000000000000e+00 +9.9999992326851961e-01
3.9000000000000021e+00 +9.1005159951654626e+00 +0.0000000000000000e+00 +3.8999998949294321e+00 -4.0205236885971661e-04 +0.0000000000000000e+00 +9.9999991917694331e-01
4.0000000000000018e+00 +9.1004752744846886e+00 +0.0000000000000000e+00 +3.9999998866381197e+00 -4.1236124473600358e-04 +0.0000000000000000e+00 +9.9999991497909857e-01
4.1000000000000014e+00 +9.1004335229168927e+00 +0.0000000000000000e+00 +4.0999998779217091e+00 -4.2267010931934843e-04 +0.0000000000000000e+00 +9.9999991067498561e-01
4.2000000000000011e+00 +9.1003907404632010e+00 +0.0000000000000000e+00 +4.1999998687695745e+00 -4.3297896263507364e-04 +0.0000000000000000e+00 +9.9999990626460478e-01
4.3000000000000007e+00 +9.1003469271247397e+00 +0.0000000000000000e+00 +4.2999998591710877e+00 -4.4328780470518514e-04 +0.0000000000000000e+00 +9.9999990174795650e-01
4.4000000000000004e+00 +9.1003020829026333e+00 +0.0000000000000000e+00 +4.3999998491156234e+00 -4.5359663554685403e-04 +0.0000000000000000e+00 +9.9999989712504100e-01
4.5000000000000000e+00 +9.1002562077980045e+00 +0.0000000000000000e+00 +4.4999998385925535e+00 -4.6390545517241872e-04 +0.0000000000000000e+00 +9.9999989239585874e-01
4.5999999999999996e+00 +9.1002093018119723e+00 +0.0000000000000000e+00 +4.5999998275912528e+00 -4.7421426358938652e-04 +0.0000000000000000e+00 +9.9999988756041003e-01
4.6999999999999993e+00 +9.1001613649456594e+00 +0.0000000000000000e+00 +4.6999998161010934e+00 -4.8452306080043581e-04 +0.0000000000000000e+00 +9.9999988261869510e-01
4.7999999999999989e+00 +9.1001123972001849e+00 +0.0000000000000000e+00 +4.7999998041114491e+00 -4.9483184680341791e-04 +0.0000000000000000e+00 +9.9999987757071440e-01
4.8999999999999986e+00 +9.1000623985766715e+00 +0.0000000000000000e+00 +4.8999997916116937e+00 -5.0514062159135906e-04 +0.0000000000000000e+00 +9.9999987241646826e-01
4.9999999999999982e+00 +9.1000113690762401e+00 +0.0000000000000000e+00 +4.9999997785912003e+00 -5.1544938515246284e-04 +0.0000000000000000e+00 +9.9999986715595701e-01
5.0999999999999979e+00 +9.0999593087000150e+00 +0.0000000000000000e+00 +5.0999997650393425e+00 -5.2575813747011198e-04 +0.0000000000000000e+00 +9.9999986178918110e-01
5.1999999999999975e+00 +9.0999062174491208e+00 +0.0000000000000000e+00 +5.1999997509454943e+00 -5.3606687852287074e-04 +0.0000000000000000e+00 +9.9999985631614074e-01
5.2999999999999972e+00 +9.0998520953246853e+00 +0.0000000000000000e+00 +5.2999997362990285e+00 -5.4637560828448711e-04 +0.0000000000000000e+00 +9.9999985073683639e-01
5.3999999999999968e+00 +9.0997969423278402e+00 +0.0000000000000000e+00 +5.3999997210893191e+00 -5.5668432672389522e-04 +0.0000000000000000e+00 +9.9999984505126838e-01
5.4999999999999964e+00 +9.0997407584597187e+00 +0.0000000000000000e+00 +5.4999997053057399e+00 -5.6699303380521753e-04 +0.0000000000000000e+00 +9.9999983925943703e-01
5.5999999999999961e+00 +9.0996835437214596e+00 +0.0000000000000000e+00 +5.5999996889376646e+00 -5.7730172948776740e-04 +0.0000000000000000e+00 +9.9999983336134279e-01
5.6999999999999957e+00 +9.0996252981142032e+00 +0.0000000000000000e+00 +5.6999996719744663e+00 -5.8761041372605138e-04 +0.0000000000000000e+00 +9.9999982735698600e-01
5.7999999999999954e+00 +9.0995660216390970e+00 +0.0000000000000000e+00 +5.7999996544055197e+00 -5.9791908646977191e-04 +0.0000000000000000e+00 +9.9999982124636710e-01
5.8999999999999950e+00 +9.0995057142972939e+00 +0.0000000000000000e+00 +5.8999996362201976e+00 -6.0822774766382975e-04 +0.0000000000000000e+00 +9.9999981502948643e-01
5.9999999999999947e+00 +9.0994443760899522e+00 +0.0000000000000000e+00 +5.9999996174078749e+00 -6.1853639724832672e-04 +0.0000000000000000e+00 +9.9999980870634442e-01
6.0999999999999943e+00 +9.0993820070182334e+00 +0.0000000000000000e+00 +6.0999995979579245e+00 -6.2884503515847211e-04 +0.0000000000000000e+00 +9.9999980227694141e-01
6.1999999999999940e+00 +9.0993186070833119e+00 +0.0000000000000000e+00 +6.1999995778597210e+00 -6.3915366132352681e-04 +0.0000000000000000e+00 +9.9999979574127784e-01
6.2999999999999936e+00 +9.0992541762863635e+00 +0.0000000000000000e+00 +6.2999995571026384e+00 -6.4946227566574474e-04 +0.0000000000000000e+00 +9.9999978909935405e-01
6.3999999999999932e+00 +9.0991887146285748e+00 +0.0000000000000000e+00 +6.3999995356760504e+00 -6.5977087810027506e-04 +0.0000000000000000e+00 +9.9999978235117060e-01
6.4999999999999929e+00 +9.0991222221111432e+00 +0.0000000000000000e+00 +6.4999995135693309e+00 -6.7007946853516007e-04 +0.0000000000000000e+00 +9.9999977549672781e-01
6.5999999999999925e+00 +9.0990546987352712e+00 +0.0000000000000000e+00 +6.5999994907718538e+00 -6.8038804687133296e-04 +0.0000000000000000e+00 +9.9999976853602612e-01
6.6999999999999922e+00 +9.0989861445021756e+00 +0.0000000000000000e+00 +6.6999994672729937e+00 -6.9069661300261544e-04 +0.0000000000000000e+00 +9.9999976146906600e-01
6.7999999999999918e+00 +9.0989165594130821e+00 +0.0000000000000000e+00 +6.7999994430621244e+00 -7.0100516681571553e-04 +0.0000000000000000e+00 +9.9999975429584786e-01
6.8999999999999915e+00 +9.0988459434692270e+00 +0.0000000000000000e+00 +6.8999994181286208e+00 -7.1131370819022476e-04 +0.0000000000000000e+00 +9.9999974701637229e-01
6.9999999999999911e+00 +9.0987742966718628e+00 +0.0000000000000000e+00 +6.9999993924618567e+00 -7.2162223699861572e-04 +0.0000000000000000e+00 +9.9999973963063971e-01
7.0999999999999908e+00 +9.0987016190222505e+00 +0.0000000000000000e+00 +7.0999993660512066e+00 -7.3193075310623882e-04 +0.0000000000000000e+00 +9.9999973213865057e-01
7.1999999999999904e+00 +9.0986279105216692e+00 +0.0000000000000000e+00 +7.1999993388860446e+00 -7.4223925637131969e-04 +0.0000000000000000e+00 +9.9999972454040531e-01
7.2999999999999901e+00 +9.0985531711714103e+00 +0.0000000000000000e+00 +7.2999993109557453e+00 -7.5254774664495583e-04 +0.0000000000000000e+00 +9.9999971683590450e-01
7.3999999999999897e+00 +9.0984774009727793e+00 +0.0000000000000000e+00 +7.3999992822496834e+00 -7.6285622377111353e-04 +0.0000000000000000e+00 +9.9999970902514868e-01
7.4999999999999893e+00 +9.0984005999270998e+00 +0.0000000000000000e+00 +7.4999992527572328e+00 -7.7316468758662437e-04 +0.0000000000000000e+00 +9.9999970110813829e-01
7.5999999999999890e+00 +9.0983227680357111e+00 +0.0000000000000000e+00 +7.5999992224677690e+00 -7.8347313792118188e-04 +0.0000000000000000e+00 +9.9999969308487402e-01
7.6999999999999886e+00 +9.0982439052999702e+00 +0.0000000000000000e+00 +7.6999991913706660e+00 -7.9378157459733761e-04 +0.0000000000000000e+00 +9.9999968495535629e-01
7.7999999999999883e+00 +9.0981640117212521e+00 +0.0000000000000000e+00 +7.7999991594552984e+00 -8.0408999743049759e-04 +0.0000000000000000e+00 +9.9999967671958578e-01
7.8999999999999879e+00 +9.0980830873009513e+00 +0.0000000000000000e+00 +7.8999991267110410e+00 -8.1439840622891837e-04 +0.0000000000000000e+00 +9.9999966837756304e-01
7.9999999999999876e+00 +9.0980011320404799e+00 +0.0000000000000000e+00 +7.9999990931272693e+00 -8.2470680079370297e-04 +0.0000000000000000e+00 +9.9999965992928863e-01
8.0999999999999872e+00 +9.0979181459412732e+00 +0.0000000000000000e+00 +8.0999990586933581e+00 -8.3501518091925997e-04 +0.0000000000000000e+00 +9.9999965137476310e-01
8.1999999999999869e+00 +9.0978341290047844e+00 +0.0000000000000000e+00 +8.1999990233986804e+00 -8.4532354639839553e-04 +0.0000000000000000e+00 +9.9999964271398722e-01
8.2999999999999865e+00 +9.0977490812324877e+00 +0.0000000000000000e+00 +8.2999989872326125e+00 -8.5563189702740660e-04 +0.0000000000000000e+00 +9.9999963394696145e-01
8.3999999999999861e+00 +9.0976630026258789e+00 +0.0000000000000000e+00 +8.3999989501845302e+00 -8.6594023260654150e-04 +0.0000000000000000e+00 +9.9999962507368656e-01
8.4999999999999858e+00 +9.0975758931864732e+00 +0.0000000000000000e+00 +8.4999989122438073e+00 -8.7624855293999765e-04 +0.0000000000000000e+00 +9.9999961609416310e-01
8.5999999999999854e+00 +9.0974877529158054e+00 +0.0000000000000000e+00 +8.5999988733998212e+00 -8.8655685783591866e-04 +0.0000000000000000e+00 +9.9999960700839174e-01
8.6999999999999851e+00 +9.0973985818154279e+00 +0.0000000000000000e+00 +8.6999988336419456e+00 -8.9686514710639157e-04 +0.0000000000000000e+00 +9.9999959781637315e-01
8.7999999999999847e+00 +9.0973083798869112e+00 +0.0000000000000000e+00 +8.7999987929595545e+00 -9.0717342056744399e-04 +0.0000000000000000e+00 +9.9999958851810788e-01
8.8999999999999844e+00 +9.0972171471318468e+00 +0.0000000000000000e+00 +8.8999987513420251e+00 -9.1748167803904130e-04 +0.0000000000000000e+00 +9.9999957911359671e-01
8.9999999999999840e+00 +9.0971248835518423e+00 +0.0000000000000000e+00 +8.9999987087787332e+00 -9.2778991934508383e-04 +0.0000000000000000e+00 +9.9999956960284020e-01
9.0999999999999837e+00 +9.0970315891485232e+00 +0.0000000000000000e+00 +9.0999986652590525e+00 -9.3809814431340341e-04 +0.0000000000000000e+00 +9.9999955998583900e-01
9.1999999999999833e+00 +9.0969372639235306e+00 +0.0000000000000000e+00 +9.1999986207723587e+00 -9.4840635277576059e-04 +0.0000000000000000e+00 +9.9999955026259391e-01
9.2999999999999829e+00 +9.0968419078785239e+00 +0.0000000000000000e+00 +9.2999985753080292e+00 -9.5871454456784128e-04 +0.0000000000000000e+00 +9.9999954043310546e-01
9.3999999999999826e+00 +9.0967455210151780e+00 +0.0000000000000000e+00 +9.3999985288554377e+00 -9.6902271952925361e-04 +0.0000000000000000e+00 +9.9999953049737433e-01
9.4999999999999822e+00 +9.0966481033351840e+00 +0.0000000000000000e+00 +9.4999984814039617e+00 -9.7933087750352453e-04 +0.0000000000000000e+00 +9.9999952045540119e-01
9.5999999999999819e+00 +9.0965496548402491e+00 +0.0000000000000000e+00 +9.5999984329429768e+00 -9.8963901833809629e-04 +0.0000000000000000e+00 +9.9999951030718681e-01
9.6999999999999815e+00 +9.0964501755320928e+00 +0.0000000000000000e+00 +9.6999983834618586e+00 -9.9994714188432303e-04 +0.0000000000000000e+00 +9.9999950005273175e-01
9.7999999999999812e+00 +9.0963496654124523e+00 +0.0000000000000000e+00 +9.7999983329499827e+00 -1.0102552479974672e-03 +0.0000000000000000e+00 +9.9999948969203678e-01
9.8999999999999808e+00 +9.0962481244830791e+00 +0.0000000000000000e+00 +9.8999982813967247e+00 -1.0205633365366960e-03 +0.0000000000000000e+00 +9.9999947922510246e-01
9.9999999999999805e+00 +9.0961455527457353e+00 +0.0000000000000000e+00 +9.9999982287914619e+00 -1.0308714073650777e-03 +0.0000000000000000e+00 +9.9999946865192957e-01
1.0099999999999980e+01 +9.0960419502022010e+00 +0.0000000000000000e+00 +1.0099998175123570e+01 -1.0411794603497188e-03 +0.0000000000000000e+00 +9.9999945797251877e-01
1.0199999999999980e+01 +9.0959373168542648e+00 +0.0000000000000000e+00 +1.0199998120382425e+01 -1.0514874953633179e-03 +0.0000000000000000e+00 +9.9999944718687073e-01
1.0299999999999979e+01 +9.0958316527037315e+00 +0.0000000000000000e+00 +1.0299998064557403e+01 -1.0617955122857233e-03 +0.0000000000000000e+00 +9.9999943629498611e-01
1.0399999999999979e+01 +9.0957249577524149e+00 +0.0000000000000000e+00 +1.0399998007637882e+01 -1.0721035110040817e-03 +0.0000000000000000e+00 +9.9999942529686570e-01
1.0499999999999979e+01 +9.0956172320021409e+00 +0.0000000000000000e+00 +1.0499997949613235e+01 -1.0824114914128444e-03 +0.0000000000000000e+00 +9.9999941419251004e-01
1.0599999999999978e+01 +9.0955084754547464e+00 +0.0000000000000000e+00 +1.0599997890472842e+01 -1.0927194534137744e-03 +0.0000000000000000e+00 +9.9999940298191980e-01
1.0699999999999978e+01 +9.0953986881120752e+00 +0.0000000000000000e+00 +1.0699997830206078e+01 -1.1030273969159538e-03 +0.0000000000000000e+00 +9.9999939166509577e-01
1.0799999999999978e+01 +9.0952878699759818e+00 +0.0000000000000000e+00 +1.0799997768802319e+01 -1.1133353218357905e-03 +0.0000000000000000e+00 +9.9999938024203849e-01
1.0899999999999977e+01 +9.0951760210483297e+00 +0.0000000000000000e+00 +1.0899997706250943e+01 -1.1236432280970262e-03 +0.0000000000000000e+00 +9.9999936871274864e-01
1.0999999999999977e+01 +9.0950631413309875e+00 +0.0000000000000000e+00 +1.0999997642541327e+01 -1.1339511156307437e-03 +0.0000000000000000e+00 +9.9999935707722698e-01
1.1099999999999977e+01 +9.0949492308258311e+00 +0.0000000000000000e+00 +1.1099997577662847e+01 -1.1442589843753753e-03 +0.0000000000000000e+00 +9.9999934533547397e-01
1.1199999999999976e+01 +9.0948342895347416e+00 +0.0000000000000000e+00 +1.1199997511604881e+01 -1.1545668342767097e-03 +0.0000000000000000e+00 +9.9999933348749037e-01
1.1299999999999976e+01 +9.0947183174596056e+00 +0.0000000000000000e+00 +1.1299997444356805e+01 -1.1648746652879016e-03 +0.0000000000000000e+00 +9.9999932153327686e-01
1.1399999999999975e+01 +9.0946013146023148e+00 +0.0000000000000000e+00 +1.1399997375907995e+01 -1.1751824773694791e-03 +0.0000000000000000e+00 +9.9999930947283400e-01
1.1499999999999975e+01 +9.0944832809647629e+00 +0.0000000000000000e+00 +1.1499997306247831e+01 -1.1854902704893529e-03 +0.0000000000000000e+00 +9.9999929730616233e-01
1.1599999999999975e+01 +9.0943642165488487e+00 +0.0000000000000000e+00 +1.1599997235365688e+01 -1.1957980446228242e-03 +0.0000000000000000e+00 +9.9999928503326263e-01
1.1699999999999974e+01 +9.0942441213564713e+00 +0.0000000000000000e+00 +1.1699997163250943e+01 -1.2061057997525947e-03 +0.0000000000000000e+00 +9.9999927265413535e-01
1.1799999999999974e+01 +9.0941229953895313e+00 +0.0000000000000000e+00 +1.1799997089892974e+01 -1.2164135358687751e-03 +0.0000000000000000e+00 +9.9999926016878116e-01
