# multipoles
# s[mm] polynom_b[n=0][T/m^n] polynom_b[n=1][T/m^n] polynom_b[n=2][T/m^n] polynom_b[n=3][T/m^n] polynom_b[n=4][T/m^n] polynom_b[n=5][T/m^n] polynom_b[n=6][T/m^n] 
+0.0000000000000000e+00 -1.0314924825046994e+00 +2.2909055552740942e+00 +1.7952264588137062e+01 +2.5397164268164042e+02 +6.5257212765046410e+04 -7.2480029934335290e+05 -3.2358123344693172e+08 
+1.0000000000000001e-01 -1.0314948741305534e+00 +2.2907699721924550e+00 +1.7967257613405888e+01 +2.5884490673371124e+02 +6.4868191140237846e+04 -7.5735476476348692e+05 -3.2187650476569027e+08 
+2.0000000000000001e-01 -1.0314972377442559e+00 +2.2906471319556827e+00 +1.7982561736757269e+01 +2.6312880734842514e+02 +6.4415397890964916e+04 -7.8655634762450925e+05 -3.1973798748826230e+08 
+3.0000000000000004e-01 -1.0314995726637288e+00 +2.2905384981336616e+00 +1.7998180689191212e+01 +2.6677277138124089e+02 +6.3895495990042182e+04 -8.1209964636072563e+05 -3.1713907468528509e+08 
+4.0000000000000002e-01 -1.0315018782070686e+00 +2.2904455343572283e+00 +1.8014118228309680e+01 +2.6972622483334300e+02 +6.3305147964943164e+04 -8.3367925832595199e+05 -3.1405315761878788e+08 
+5.0000000000000000e-01 -1.0315041536925551e+00 +2.2903697043270075e+00 +1.8030378138019209e+01 +2.7193859261565984e+02 +6.2641015912218238e+04 -8.5098977858561045e+05 -3.1045362583839673e+08 
+5.9999999999999998e-01 -1.0315063989597313e+00 +2.2903121367138364e+00 +1.8046981401382627e+01 +2.7337183411158594e+02 +6.1900969171114855e+04 -8.6379838287729048e+05 -3.0632380658076352e+08 
+6.9999999999999996e-01 -1.0315086159414411e+00 +2.2902726391629931e+00 +1.8064021017459883e+01 +2.7403696132276025e+02 +6.1087605613037311e+04 -8.7215538264882704e+05 -3.0168621586391544e+08 
+7.9999999999999993e-01 -1.0315108070962478e+00 +2.2902506938760836e+00 +1.8081608835200580e+01 +2.7395697862590816e+02 +6.0204679700738510e+04 -8.7618008415019559e+05 -2.9657302552103436e+08 
+8.9999999999999991e-01 -1.0315129748828480e+00 +2.2902457830904752e+00 +1.8099856724993966e+01 +2.7315488970413418e+02 +5.9255945516364518e+04 -8.7599179102605546e+05 -2.9101640575295866e+08 
+9.9999999999999989e-01 -1.0315151217601084e+00 +2.2902573890715447e+00 +1.8118876582924219e+01 +2.7165369764086483e+02 +5.8245156675014528e+04 -8.7170980425227131e+05 -2.8504852468895012e+08 
+1.0999999999999999e+00 -1.0315172501870427e+00 +2.2902849940937080e+00 +1.8138780327386367e+01 +2.6947640530373224e+02 +5.7176066384769911e+04 -8.6345342364940851e+05 -2.7870154865100086e+08 
+1.2000000000000000e+00 -1.0315193626228552e+00 +2.2903280804480781e+00 +1.8159679905873990e+01 +2.6664601500966921e+02 +5.6052427296907990e+04 -8.5134194539339119e+05 -2.7200764137037098e+08 
+1.3000000000000000e+00 -1.0315214615268584e+00 +2.2903861304198587e+00 +1.8181687282856217e+01 +2.6318552901020712e+02 +5.4877991744136314e+04 -8.3549466410067421e+05 -2.6499896513356727e+08 
+1.4000000000000001e+00 -1.0315235493585497e+00 +2.2904586262865241e+00 +1.8204914451569834e+01 +2.5911794941006519e+02 +5.3656511490593548e+04 -8.1603087174088915e+05 -2.5770767950931153e+08 
+1.5000000000000002e+00 -1.0315256285775571e+00 +2.2905450503049818e+00 +1.8229473425491534e+01 +2.5446627840051562e+02 +5.2391737897445571e+04 -7.9306985836644867e+05 -2.5016594213513830e+08 
+1.6000000000000003e+00 -1.0315277016436297e+00 +2.2906448847065777e+00 +1.8255476237382712e+01 +2.4925351825411602e+02 +5.1087421933071091e+04 -7.6673091140866687e+05 -2.4240590873232272e+08 
+1.7000000000000004e+00 -1.0315297710166751e+00 +2.2907576116812720e+00 +1.8283034945495984e+01 +2.4350267163576197e+02 +4.9747314034654759e+04 -7.3713331683212135e+05 -2.3445973238184032e+08 
+1.8000000000000005e+00 -1.0315318391567307e+00 +2.2908827133752596e+00 +1.8312261627624494e+01 +2.3723674154576912e+02 +4.8375164226697125e+04 -7.0439635821356450e+05 -2.2635956408703583e+08 
+1.9000000000000006e+00 -1.0315339085239466e+00 +2.2910196718787685e+00 +1.8343268381199167e+01 +2.3047873150566019e+02 +4.6974722101676409e+04 -6.6863931709907670e+05 -2.1813755263008317e+08 
+2.0000000000000004e+00 -1.0315359815786214e+00 +2.2911679692195293e+00 +1.8376167326474111e+01 +2.2325164562770505e+02 +4.5549736753802244e+04 -6.2998147283286706e+05 -2.0982584422156459e+08 
+2.1000000000000005e+00 -1.0315380607811457e+00 +2.2913270873484888e+00 +1.8411070599891438e+01 +2.1557848887120718e+02 +4.4103956896492688e+04 -5.8854210336468241e+05 -2.0145658302987692e+08 
+2.2000000000000006e+00 -1.0315401485920324e+00 +2.2914965081387919e+00 +1.8448090357818423e+01 +2.0748226692345850e+02 +4.2641130783065193e+04 -5.4444048389021098e+05 -1.9306191076824665e+08 
+2.3000000000000007e+00 -1.0315422474718980e+00 +2.2916757133688925e+00 +1.8487338773997614e+01 +1.9898598656359690e+02 +4.1165006248288621e+04 -4.9779588837625098e+05 -1.8467396686088943e+08 
+2.4000000000000008e+00 -1.0315443598815206e+00 +2.2918641847201431e+00 +1.8528928047688048e+01 +1.9011265557216547e+02 +3.9679330538165319e+04 -4.4872758834240964e+05 -1.7632488758230299e+08 
+2.5000000000000009e+00 -1.0315464882817016e+00 +2.2920614037618940e+00 +1.8572970385717866e+01 +1.8088528301673429e+02 +3.8187850645091334e+04 -3.9735485404651146e+05 -1.6804680763486528e+08 
+2.6000000000000010e+00 -1.0315486349003133e+00 +2.2922665961714785e+00 +1.8619587578090492e+01 +1.7133218109565300e+02 +3.6693291459646083e+04 -3.4383054252569698e+05 -1.5986532455322769e+08 
+2.7000000000000011e+00 -1.0315508008751149e+00 +2.2924779043855219e+00 +1.8668925434565804e+01 +1.6150580789639761e+02 +3.5194568903442043e+04 -2.8845861236528272e+05 -1.5178103510926589e+08 
+2.8000000000000012e+00 -1.0315529870337730e+00 +2.2926931851610513e+00 +1.8721132600974418e+01 +1.5146538879796771e+02 +3.3689704844908920e+04 -2.3158501683140462e+05 -1.4378851034309182e+08 
+2.9000000000000012e+00 -1.0315551942036119e+00 +2.2929102951333231e+00 +1.8776357684282100e+01 +1.4127015235152382e+02 +3.2176721863015886e+04 -1.7355572513273687e+05 -1.3588232458147755e+08 
+3.0000000000000013e+00 -1.0315574232115450e+00 +2.2931270908154859e+00 +1.8834749243351158e+01 +1.3097933029419659e+02 +3.0653643429495558e+04 -1.1471672252827254e+05 -1.2805705631613882e+08 
+3.1000000000000014e+00 -1.0315596748841085e+00 +2.2933414285900819e+00 +1.8896455793815928e+01 +1.2065215782320357e+02 +2.9118493816153135e+04 -5.5414011989013277e+04 -1.2030728776486416e+08 
+3.2000000000000015e+00 -1.0315619500473701e+00 +2.2935511647043789e+00 +1.8961625796767308e+01 +1.1034787377661524e+02 +2.7569298304722368e+04 +4.0063846067939867e+03 -1.1262760584859940e+08 
+3.3000000000000016e+00 -1.0315642495268955e+00 +2.2937541552579095e+00 +1.9030407653520026e+01 +1.0012572100639088e+02 +2.6004083298515648e+04 +6.3198424292383803e+04 -1.0501260275576782e+08 
+3.4000000000000017e+00 -1.0315665741477236e+00 +2.2939482562004589e+00 +1.9102949703244850e+01 +9.0044946502447800e+01 +2.4420876362811632e+04 +1.2181604209155457e+05 -9.7456876120124757e+07 
+3.5000000000000018e+00 -1.0315689247343152e+00 +2.2941313233260052e+00 +1.9179400216390011e+01 +8.0164801577023979e+01 +2.2817706349334960e+04 +1.7951314992899619e+05 -8.9955029604994312e+07 
+3.6000000000000019e+00 -1.0315713021105399e+00 +2.2943012122626945e+00 +1.9259907392935336e+01 +7.0544542205797029e+01 +2.1192603433356187e+04 +2.3594363450288714e+05 -8.2501673092569634e+07 
+3.7000000000000020e+00 -1.0315737070995705e+00 +2.2944557784690156e+00 +1.9344619348919075e+01 +6.1243429153838981e+01 +1.9543599371034597e+04 +2.9076135651356063e+05 -7.5091423904224619e+07 
+3.8000000000000020e+00 -1.0315761405239263e+00 +2.2945928772273594e+00 +1.9433684121860050e+01 +5.2320728217403001e+01 +1.7868727396993465e+04 +3.4362014910639607e+05 -6.7718906315507025e+07 
+3.9000000000000021e+00 -1.0315786032053809e+00 +2.2947103636322947e+00 +1.9527249659353654e+01 +4.3835710579493380e+01 +1.6166022441634917e+04 +3.9417381575178902e+05 -6.0378752587493986e+07 
+4.0000000000000018e+00 -1.0315810959649454e+00 +2.2948060925918128e+00 +1.9625463817192358e+01 +3.5847652830327370e+01 +1.4433521166620558e+04 +4.4207612997331331e+05 -5.3065603132761255e+07 
+4.1000000000000014e+00 -1.0315836196227766e+00 +2.2948779188156205e+00 +1.9728474347209524e+01 +2.8415837314113045e+01 +1.2669262199883569e+04 +4.8698083331323107e+05 -4.5774107641628996e+07 
+4.2000000000000011e+00 -1.0315861749982802e+00 +2.2949236968084707e+00 +1.9836428909746537e+01 +2.1599552374331552e+01 +1.0871285902740487e+04 +5.2854163376211445e+05 -3.8498923981174909e+07 
+4.3000000000000007e+00 -1.0315887629098643e+00 +2.2949412808647027e+00 +1.9949475044406817e+01 +1.5458092540936521e+01 +9.0376349167549724e+03 +5.6641220457872539e+05 -3.1234720771783963e+07 
+4.4000000000000004e+00 -1.0315913841750575e+00 +2.2949285250622822e+00 +2.0067760183449622e+01 +1.0050758736520621e+01 +7.1663539183311450e+03 +6.0024618301768962e+05 -2.3976176239715841e+07 
+4.5000000000000000e+00 -1.0315940396104357e+00 +2.2948832832612580e+00 +2.0191431642894411e+01 +5.4368580294307618e+00 +5.2554897519468723e+03 +6.2969717313013598e+05 -1.6717978670181775e+07 
+4.5999999999999996e+00 -1.0315967293204540e+00 +2.2948042430138060e+00 +2.0320506594063257e+01 +1.6557562658326497e+00 +3.3044396052182697e+03 +6.5453173877772666e+05 -9.4573190494233519e+06 
+4.6999999999999993e+00 -1.0315994509033690e+00 +2.2946934293558088e+00 +2.0454483675620260e+01 -1.3281226508034814e+00 +1.3180960213764158e+03 +6.7492793578193721e+05 -2.2025398078421433e+06 
+4.7999999999999989e+00 -1.0316022014107702e+00 +2.2945537044851418e+00 +2.0592731569443444e+01 -3.5679430815314190e+00 -6.9725078446056295e+02 +6.9115712315901904e+05 +5.0349968184597390e+06 
+4.8999999999999986e+00 -1.0316049778948033e+00 +2.2943879308631216e+00 +2.0734619007971116e+01 -5.1168761751237204e+00 -2.7353115941586557e+03 +7.0349069352807489e+05 +1.2243933672224266e+07 
+4.9999999999999982e+00 -1.0316077774082264e+00 +2.2941989712284907e+00 +2.0879514779009920e+01 -6.0281005043590676e+00 -4.7897982352915888e+03 +7.1220007665435551e+05 +1.9412918817757059e+07 
+5.0999999999999979e+00 -1.0316105970044447e+00 +2.2939896886243889e+00 +2.1026787729990247e+01 -6.3548027991673628e+00 -6.8544236689673226e+03 +7.1755674329901068e+05 +2.6530605992450897e+07 
+5.1999999999999975e+00 -1.0316134337375829e+00 +2.2937629464138904e+00 +2.1175806774983698e+01 -6.1501783407065282e+00 -8.9229021163697107e+03 +7.1983220708379138e+05 +3.3585655199937902e+07 
+5.2999999999999972e+00 -1.0316162846624410e+00 +2.2935216082960856e+00 +2.1325940889039835e+01 -5.4674313855015653e+00 -1.0988948953609541e+04 +7.1929802655462502e+05 +4.0566732227695502e+07 
+5.3999999999999968e+00 -1.0316191468346445e+00 +2.2932685383308531e+00 +2.1476559123731487e+01 -4.3597758294057529e+00 -1.3046280996016469e+04 +7.1622580862312764e+05 +4.7462509982600503e+07 
+5.4999999999999964e+00 -1.0316220173106294e+00 +2.2930066009549313e+00 +2.1627030607321135e+01 -2.8804356370515687e+00 -1.5088616518806257e+04 +7.1088721068863804e+05 +5.4261668647756241e+07 
+5.5999999999999961e+00 -1.0316248931477343e+00 +2.2927386609996239e+00 +2.1776724551865716e+01 -1.0826452883855637e+00 -1.7109675369440494e+04 +7.0355394276051782e+05 +6.0952896165328167e+07 
+5.6999999999999957e+00 -1.0316277714042279e+00 +2.2924675837118955e+00 +2.1925010257817103e+01 +9.8034963320276935e-01 -1.9103179070984952e+04 +6.9449777055091853e+05 +6.7524888787648991e+07 
+5.7999999999999954e+00 -1.0316306491392555e+00 +2.2921962347745524e+00 +2.2071257104617505e+01 +3.2552919362563957e+00 -2.1062850629088211e+04 +6.8399051789455325e+05 +7.3966350126916289e+07 
+5.8999999999999950e+00 -1.0316335234130463e+00 +2.2919274803198095e+00 +2.2214834576078307e+01 +5.6889124433903788e+00 -2.2982415018823755e+04 +6.7230406864435237e+05 +8.0265993497786075e+07 
+5.9999999999999947e+00 -1.0316363912868571e+00 +2.2916641869562255e+00 +2.2355112252638527e+01 +8.2279292831547313e+00 -2.4855599039097327e+04 +6.5971037029077800e+05 +8.6412541240426913e+07 
+6.0999999999999943e+00 -1.0316392498230440e+00 +2.2914092217793391e+00 +2.2491459818434382e+01 +1.0819047613649976e+01 -2.6676131439716679e+04 +6.4648143521855818e+05 +9.2394725315927595e+07 
+6.1999999999999940e+00 -1.0316420960851087e+00 +2.2911654523978751e+00 +2.2623247066003636e+01 +1.3408958925541347e+01 -2.8437743012382252e+04 +6.3288934430334438e+05 +9.8201287755947411e+07 
+6.2999999999999936e+00 -1.0316449271377492e+00 +2.2909357469467739e+00 +2.2749843901778053e+01 +1.5944340697202644e+01 -3.0134166692801984e+04 +6.1920624854561279e+05 +1.0382098115287881e+08 
+6.3999999999999932e+00 -1.0316477400468609e+00 +2.2907229741120587e+00 +2.2870620344478009e+01 +1.8371855737902219e+01 -3.1759137527585237e+04 +6.0570437244443374e+05 +1.0924256850908753e+08 
+6.4999999999999929e+00 -1.0316505318797327e+00 +2.2905300031426621e+00 +2.2984946551150124e+01 +2.0638152872246263e+01 -3.3306393069745085e+04 +5.9265600550938223e+05 +1.1445482463208695e+08 
+6.5999999999999925e+00 -1.0316533004331907e+00 +2.2903592235498120e+00 +2.3092404440665394e+01 +2.2699580030247180e+01 -3.4772266611191364e+04 +5.8027778844440961e+05 +1.1945385394685081e+08 
+6.6999999999999922e+00 -1.0316560458478192e+00 +2.2902110125461377e+00 +2.3193381286897544e+01 +2.4543524044369761e+01 -3.6162528904010105e+04 +5.6863205632071418e+05 +1.2426069942041574e+08 
+6.7999999999999918e+00 -1.0316587687174901e+00 +2.2900852244322008e+00 +2.3288457213497654e+01 +2.6163002654676276e+01 -3.7485064525585229e+04 +5.5776049110461876e+05 +1.2890135332235490e+08 
+6.8999999999999915e+00 -1.0316614696359765e+00 +2.2899817132614930e+00 +2.3378212317624133e+01 +2.7551039745203664e+01 -3.8747757063684359e+04 +5.4770474116983486e+05 +1.3340180155024773e+08 
+6.9999999999999911e+00 -1.0316641491969998e+00 +2.2899003327719392e+00 +2.3463226678786871e+01 +2.8700668797123516e+01 -3.9958489494124289e+04 +5.3850639989848505e+05 +1.3778802591436628e+08 
+7.0999999999999908e+00 -1.0316668079941576e+00 +2.2898409363790591e+00 +2.3544080349287952e+01 +2.9604933103272337e+01 -4.1125143985573115e+04 +5.3020700453599007e+05 +1.4208600315252218e+08 
+7.1999999999999904e+00 -1.0316694466210048e+00 +2.2898033771474808e+00 +2.3621353365646637e+01 +3.0256886615883992e+01 -4.2255602116036876e+04 +5.2284803132063162e+05 +1.4632170593735769e+08 
+7.2999999999999901e+00 -1.0316720656710034e+00 +2.2897875077899452e+00 +2.3695625741049614e+01 +3.0649593973478723e+01 -4.3357744711183332e+04 +5.1647089547343709e+05 +1.5052110203758597e+08 
+7.3999999999999897e+00 -1.0316746657374898e+00 +2.2897931806475187e+00 +2.3767477461787959e+01 +3.0776131087372143e+01 -4.4439451771011598e+04 +5.1111694788787462e+05 +1.5471015393515036e+08 
+7.4999999999999893e+00 -1.0316772474137019e+00 +2.2898202476698639e+00 +2.3837488490665979e+01 +3.0629585720728290e+01 -4.5508602523297108e+04 +5.0682747187022818e+05 +1.5891481902624103e+08 
+7.5999999999999890e+00 -1.0316798112927450e+00 +2.2898685604107465e+00 +2.3906238762406147e+01 +3.0203057636958704e+01 -4.6573075326492493e+04 +5.0364368236738024e+05 +1.6316104911549616e+08 
+7.6999999999999886e+00 -1.0316823579675991e+00 +2.2899379700039932e+00 +2.3974308184561423e+01 +2.9489659287884606e+01 -4.7640747677237232e+04 +5.0160672212403541e+05 +1.6747479040182415e+08 
+7.7999999999999883e+00 -1.0316848880311107e+00 +2.2900283271547970e+00 +2.4042276637276661e+01 +2.8482516094816344e+01 -4.8719496200100009e+04 +5.0075766009344923e+05 +1.7188198339695051e+08 
+7.8999999999999879e+00 -1.0316874020759810e+00 +2.2901394821232590e+00 +2.4110723970168362e+01 +2.7174766925365578e+01 -4.9817196569842541e+04 +5.0113748881143710e+05 +1.7640856248353511e+08 
+7.9999999999999876e+00 -1.0316899006947144e+00 +2.2902712847062170e+00 +2.4180229997286894e+01 +2.5559564636323987e+01 -5.0941723412852305e+04 +5.0278712132014940e+05 +1.8108045541958871e+08 
+8.0999999999999872e+00 -1.0316923844796984e+00 +2.2904235842320730e+00 +2.4251374506815772e+01 +2.3630076215053119e+01 -5.2100950483799876e+04 +5.0574739050804725e+05 +1.8592358413743803e+08 
+8.1999999999999869e+00 -1.0316948540231159e+00 +2.2905962295318987e+00 +2.4324737249522475e+01 +2.1379483652134962e+01 -5.3302750427237035e+04 +5.1005904407578503e+05 +1.9096386353714752e+08 
+8.2999999999999865e+00 -1.0316973099169591e+00 +2.2907890689411388e+00 +2.4400897940973749e+01 +1.8800983885508160e+01 -5.4554994818096682e+04 +5.1576274500490120e+05 +1.9622720165699542e+08 
+8.3999999999999861e+00 -1.0316997527530305e+00 +2.2910019502684000e+00 +2.4480436261026551e+01 +1.5887789719261558e+01 -5.5865554137296531e+04 +5.2289906631542061e+05 +2.0173949949701396e+08 
+8.4999999999999858e+00 -1.0317021831226361e+00 +2.2912347206839980e+00 +2.4563931797708321e+01 +1.2633131641420423e+01 -5.7242296736846954e+04 +5.3150848463788279e+05 +2.0752664630946976e+08 
+8.5999999999999854e+00 -1.0317046012046727e+00 +2.2914867771978340e+00 +2.4651738557572241e+01 +9.0380578753575680e+00 -5.8689523165087172e+04 +5.4160162404107535e+05 +2.1360049284500989e+08 
+8.6999999999999851e+00 -1.0317070063660612e+00 +2.2917560196221252e+00 +2.4743470000905962e+01 +5.1359837440403453e+00 -6.0200501945685661e+04 +5.5304182194490405e+05 +2.1993215067817995e+08 
+8.7999999999999847e+00 -1.0317093979477872e+00 +2.2920400293685588e+00 +2.4838588681703090e+01 +9.6925806262549152e-01 -6.1766475624687562e+04 +5.6564559181856737e+05 +2.2648616069544590e+08 
+8.8999999999999844e+00 -1.0317117752903475e+00 +2.2923363881253338e+00 +2.4936557169515737e+01 -3.4197779203703078e+00 -6.3378688055778322e+04 +5.7922949227601301e+05 +2.3322707330627063e+08 
+8.9999999999999840e+00 -1.0317141377336883e+00 +2.2926426779573652e+00 +2.5036838036895158e+01 -7.9887953684840705e+00 -6.5028383889092322e+04 +5.9361015822507406e+05 +2.4011944528464669e+08 
+9.0999999999999837e+00 -1.0317164846171623e+00 +2.2929564813195999e+00 +2.5138893856197686e+01 -1.2695478283424876e+01 -6.6706808535337783e+04 +6.0860430346705276e+05 +2.4712783968766981e+08 
+9.1999999999999833e+00 -1.0317188152795400e+00 +2.2932753810577791e+00 +2.5242187202830152e+01 -1.7497523572548186e+01 -6.8405208247075861e+04 +6.2402872121217509e+05 +2.5421682631227091e+08 
+9.2999999999999829e+00 -1.0317211290589854e+00 +2.2935969604300137e+00 +2.5346180654659115e+01 -2.2352641742605275e+01 -7.0114830133113937e+04 +6.3970028832004149e+05 +2.6135098184966466e+08 
+9.3999999999999826e+00 -1.0317234252930125e+00 +2.2939188031213096e+00 +2.5450336789033710e+01 -2.7218557346841873e+01 -7.1826922122803822e+04 +6.5543596796245140e+05 +2.6849488979066104e+08 
+9.4999999999999822e+00 -1.0317257033184672e+00 +2.2942384932455759e+00 +2.5554118182693642e+01 -3.2053009105949059e+01 -7.3532732992996549e+04 +6.7105281051559513e+05 +2.7561314064957476e+08 
+9.5999999999999819e+00 -1.0317279624715872e+00 +2.2945536153610457e+00 +2.5656987421139014e+01 -3.6813750387739198e+01 -7.5223512560357092e+04 +6.8636795643953385e+05 +2.8267033293464231e+08 
+9.6999999999999815e+00 -1.0317302020878609e+00 +2.2948617544919050e+00 +2.5758407083213186e+01 -4.1458549905512967e+01 -7.6890511414443754e+04 +7.0119864053886256e+05 +2.8963107196585703e+08 
+9.7999999999999812e+00 -1.0317324215021397e+00 +2.2951604961207916e+00 +2.5857839758009337e+01 -4.5945191521323743e+01 -7.8524981267663752e+04 +7.1536219088997506e+05 +2.9645997163911152e+08 
+9.8999999999999808e+00 -1.0317346200485165e+00 +2.2954474262216200e+00 +2.5954748031360634e+01 -5.0231475276370169e+01 -8.0118174715296525e+04 +7.2867603504734463e+05 +3.0312165334242129e+08 
+9.9999999999999805e+00 -1.0317367970603468e+00 +2.2957201312563691e+00 +2.6048594490585810e+01 -5.4275217314236080e+01 -8.1661345346839953e+04 +7.4095769965061313e+05 +3.0958074656350386e+08 
+1.0099999999999980e+01 -1.0317389518702595e+00 +2.2959761981947495e+00 +2.6138841728398194e+01 -5.8034250524396043e+01 -8.3145747850622516e+04 +7.5202481437254790e+05 +3.1580188948786330e+08 
