# trajectory
# s[mm] rx[mm] ry[mm] rz[mm] px[rad] py[rad] pz[rad]
0.0000000000000000e+00 +9.0449999999999999e+00 +0.0000000000000000e+00 +0.0000000000000000e+00 +0.0000000000000000e+00 +0.0000000000000000e+00 +1.0000000000000000e+00
-1.0000000000000001e-01 +9.0449994842780033e+00 +0.0000000000000000e+00 -9.9999999998226868e-02 +1.0314444228331525e-05 +0.0000000000000000e+00 +9.9999999994680611e-01
-2.0000000000000001e-01 +9.0449979371102600e+00 +0.0000000000000000e+00 -1.9999999998581494e-01 +2.0628915260448627e-05 +0.0000000000000000e+00 +9.9999999978722387e-01
-3.0000000000000004e-01 +9.0449953584939973e+00 +0.0000000000000000e+00 -2.9999999995212534e-01 +3.0943414935412471e-05 +0.0000000000000000e+00 +9.9999999952125251e-01
-4.0000000000000002e-01 +9.0449917484262592e+00 +0.0000000000000000e+00 -3.9999999988651908e-01 +4.1257945038443180e-05 +0.0000000000000000e+00 +9.9999999914889093e-01
-5.0000000000000000e-01 +9.0449871069039176e+00 +0.0000000000000000e+00 -4.9999999977835713e-01 +5.1572507300929631e-05 +0.0000000000000000e+00 +9.9999999867013822e-01
-5.9999999999999998e-01 +9.0449814339236720e+00 +0.0000000000000000e+00 -5.9999999961700035e-01 +6.1887103400440430e-05 +0.0000000000000000e+00 +9.9999999808499318e-01
-6.9999999999999996e-01 +9.0449747294820568e+00 +0.0000000000000000e+00 -6.9999999939180935e-01 +7.2201734960736078e-05 +0.0000000000000000e+00 +9.9999999739345469e-01
-7.9999999999999993e-01 +9.0449669935754464e+00 +0.0000000000000000e+00 -7.9999999909214481e-01 +8.2516403551782222e-05 +0.0000000000000000e+00 +9.9999999659552152e-01
-8.9999999999999991e-01 +9.0449582262000625e+00 +0.0000000000000000e+00 -8.9999999870736713e-01 +9.2831110689764151e-05 +0.0000000000000000e+00 +9.9999999569119236e-01
-9.9999999999999989e-01 +9.0449484273519758e+00 +0.0000000000000000e+00 -9.9999999822683672e-01 +1.0314585783710246e-04 +0.0000000000000000e+00 +9.9999999468046596e-01
-1.0999999999999999e+00 +9.0449375970271149e+00 +0.0000000000000000e+00 -1.0999999976399137e+00 +1.1346064640246980e-04 +0.0000000000000000e+00 +9.9999999356334079e-01
-1.2000000000000000e+00 +9.0449257352212697e+00 +0.0000000000000000e+00 -1.1999999969359583e+00 +1.2377547774080887e-04 +0.0000000000000000e+00 +9.9999999233981551e-01
-1.3000000000000000e+00 +9.0449128419300973e+00 +0.0000000000000000e+00 -1.2999999961043303e+00 +1.3409035315335152e-04 +0.0000000000000000e+00 +9.9999999100988857e-01
-1.4000000000000001e+00 +9.0448989171491281e+00 +0.0000000000000000e+00 -1.3999999951343893e+00 +1.4440527388763909e-04 +0.0000000000000000e+00 +9.9999998957355840e-01
-1.5000000000000002e+00 +9.0448839608737686e+00 +0.0000000000000000e+00 -1.4999999940154951e+00 +1.5472024113754383e-04 +0.0000000000000000e+00 +9.9999998803082346e-01
-1.6000000000000003e+00 +9.0448679730993113e+00 +0.0000000000000000e+00 -1.5999999927370072e+00 +1.6503525604111068e-04 +0.0000000000000000e+00 +9.9999998638168208e-01
-1.7000000000000004e+00 +9.0448509538209372e+00 +0.0000000000000000e+00 -1.6999999912882846e+00 +1.7535031965658867e-04 +0.0000000000000000e+00 +9.9999998462613260e-01
-1.8000000000000005e+00 +9.0448329030337256e+00 +0.0000000000000000e+00 -1.7999999896586867e+00 +1.8566543293845110e-04 +0.0000000000000000e+00 +9.9999998276417335e-01
-1.9000000000000006e+00 +9.0448138207326654e+00 +0.0000000000000000e+00 -1.8999999878375722e+00 +1.9598059673521675e-04 +0.0000000000000000e+00 +9.9999998079580266e-01
-2.0000000000000004e+00 +9.0447937069126692e+00 +0.0000000000000000e+00 -1.9999999858143001e+00 +2.0629581178944944e-04 +0.0000000000000000e+00 +9.9999997872101876e-01
-2.1000000000000005e+00 +9.0447725615685783e+00 +0.0000000000000000e+00 -2.0999999835782286e+00 +2.1661107873775559e-04 +0.0000000000000000e+00 +9.9999997653981998e-01
-2.2000000000000006e+00 +9.0447503846951740e+00 +0.0000000000000000e+00 -2.1999999811187165e+00 +2.2692639811077966e-04 +0.0000000000000000e+00 +9.9999997425220455e-01
-2.3000000000000007e+00 +9.0447271762871946e+00 +0.0000000000000000e+00 -2.2999999784251219e+00 +2.3724177033319745e-04 +0.0000000000000000e+00 +9.9999997185817080e-01
-2.4000000000000008e+00 +9.0447029363393359e+00 +0.0000000000000000e+00 -2.3999999754868031e+00 +2.4755719572370740e-04 +0.0000000000000000e+00 +9.9999996935771696e-01
-2.5000000000000009e+00 +9.0446776648462706e+00 +0.0000000000000000e+00 -2.4999999722931179e+00 +2.5787267449501976e-04 +0.0000000000000000e+00 +9.9999996675084135e-01
-2.6000000000000010e+00 +9.0446513618026536e+00 +0.0000000000000000e+00 -2.5999999688334241e+00 +2.6818820675384358e-04 +0.0000000000000000e+00 +9.9999996403754221e-01
-2.7000000000000011e+00 +9.0446240272031364e+00 +0.0000000000000000e+00 -2.6999999650970792e+00 +2.7850379250087182e-04 +0.0000000000000000e+00 +9.9999996121781798e-01
-2.8000000000000012e+00 +9.0445956610423739e+00 +0.0000000000000000e+00 -2.7999999610734405e+00 +2.8881943163076417e-04 +0.0000000000000000e+00 +9.9999995829166699e-01
-2.9000000000000012e+00 +9.0445662633150370e+00 +0.0000000000000000e+00 -2.8999999567518651e+00 +2.9913512393212781e-04 +0.0000000000000000e+00 +9.9999995525908769e-01
-3.0000000000000013e+00 +9.0445358340158251e+00 +0.0000000000000000e+00 -2.9999999521217102e+00 +3.0945086908749626e-04 +0.0000000000000000e+00 +9.9999995212007853e-01
-3.1000000000000014e+00 +9.0445043731394712e+00 +0.0000000000000000e+00 -3.0999999471723330e+00 +3.1976666667330578e-04 +0.0000000000000000e+00 +9.9999994887463795e-01
-3.2000000000000015e+00 +9.0444718806807600e+00 +0.0000000000000000e+00 -3.1999999418930902e+00 +3.3008251615987015e-04 +0.0000000000000000e+00 +9.9999994552276461e-01
-3.3000000000000016e+00 +9.0444383566345312e+00 +0.0000000000000000e+00 -3.2999999362733381e+00 +3.4039841691135299e-04 +0.0000000000000000e+00 +9.9999994206445708e-01
-3.4000000000000017e+00 +9.0444038009956937e+00 +0.0000000000000000e+00 -3.3999999303024335e+00 +3.5071436818573805e-04 +0.0000000000000000e+00 +9.9999993849971391e-01
-3.5000000000000018e+00 +9.0443682137592383e+00 +0.0000000000000000e+00 -3.4999999239697330e+00 +3.6103036913479758e-04 +0.0000000000000000e+00 +9.9999993482853400e-01
-3.6000000000000019e+00 +9.0443315949202425e+00 +0.0000000000000000e+00 -3.5999999172645927e+00 +3.7134641880909449e-04 +0.0000000000000000e+00 +9.9999993105091611e-01
-3.7000000000000020e+00 +9.0442939444738855e+00 +0.0000000000000000e+00 -3.6999999101763685e+00 +3.8166251621334719e-04 +0.0000000000000000e+00 +9.9999992716685904e-01
-3.8000000000000020e+00 +9.0442552624154420e+00 +0.0000000000000000e+00 -3.7999999026944167e+00 +3.9197866036181175e-04 +0.0000000000000000e+00 +9.9999992317636177e-01
-3.9000000000000021e+00 +9.0442155487402864e+00 +0.0000000000000000e+00 -3.8999998948080927e+00 +4.0229485028331336e-04 +0.0000000000000000e+00 +9.9999991907942321e-01
-4.0000000000000018e+00 +9.0441748034438909e+00 +0.0000000000000000e+00 -3.9999998865067532e+00 +4.1261108502124282e-04 +0.0000000000000000e+00 +9.9999991487604245e-01
-4.1000000000000014e+00 +9.0441330265218198e+00 +0.0000000000000000e+00 -4.0999998777797533e+00 +4.2292736363355314e-04 +0.0000000000000000e+00 +9.9999991056621840e-01
-4.2000000000000011e+00 +9.0440902179697318e+00 +0.0000000000000000e+00 -4.1999998686164490e+00 +4.3324368519275625e-04 +0.0000000000000000e+00 +9.9999990614995005e-01
-4.3000000000000007e+00 +9.0440463777833795e+00 +0.0000000000000000e+00 -4.2999998590061956e+00 +4.4356004878592031e-04 +0.0000000000000000e+00 +9.9999990162723651e-01
-4.4000000000000004e+00 +9.0440015059586027e+00 +0.0000000000000000e+00 -4.3999998489383483e+00 +4.5387645351466688e-04 +0.0000000000000000e+00 +9.9999989699807701e-01
-4.5000000000000000e+00 +9.0439556024913337e+00 +0.0000000000000000e+00 -4.4999998384022630e+00 +4.6419289849516856e-04 +0.0000000000000000e+00 +9.9999989226247055e-01
-4.5999999999999996e+00 +9.0439086673775915e+00 +0.0000000000000000e+00 -4.5999998273872942e+00 +4.7450938285814695e-04 +0.0000000000000000e+00 +9.9999988742041634e-01
-4.6999999999999993e+00 +9.0438607006134788e+00 +0.0000000000000000e+00 -4.6999998158827978e+00 +4.8482590574887053e-04 +0.0000000000000000e+00 +9.9999988247191351e-01
-4.7999999999999989e+00 +9.0438117021951854e+00 +0.0000000000000000e+00 -4.7999998038781282e+00 +4.9514246632715306e-04 +0.0000000000000000e+00 +9.9999987741696139e-01
-4.8999999999999986e+00 +9.0437616721189844e+00 +0.0000000000000000e+00 -4.8999997913626414e+00 +5.0545906376735239e-04 +0.0000000000000000e+00 +9.9999987225555920e-01
-4.9999999999999982e+00 +9.0437106103812308e+00 +0.0000000000000000e+00 -4.9999997783256918e+00 +5.1577569725836877e-04 +0.0000000000000000e+00 +9.9999986698770615e-01
-5.0999999999999979e+00 +9.0436585169783577e+00 +0.0000000000000000e+00 -5.0999997647566344e+00 +5.2609236600364463e-04 +0.0000000000000000e+00 +9.9999986161340160e-01
-5.1999999999999975e+00 +9.0436053919068797e+00 +0.0000000000000000e+00 -5.1999997506448237e+00 +5.3640906922116315e-04 +0.0000000000000000e+00 +9.9999985613264486e-01
-5.2999999999999972e+00 +9.0435512351633900e+00 +0.0000000000000000e+00 -5.2999997359796147e+00 +5.4672580614344840e-04 +0.0000000000000000e+00 +9.9999985054543528e-01
-5.3999999999999968e+00 +9.0434960467445542e+00 +0.0000000000000000e+00 -5.3999997207503618e+00 +5.5704257601756481e-04 +0.0000000000000000e+00 +9.9999984485177218e-01
-5.4999999999999964e+00 +9.0434398266471128e+00 +0.0000000000000000e+00 -5.4999997049464202e+00 +5.6735937810511745e-04 +0.0000000000000000e+00 +9.9999983905165502e-01
-5.5999999999999961e+00 +9.0433825748678824e+00 +0.0000000000000000e+00 -5.5999996885571441e+00 +5.7767621168697226e-04 +0.0000000000000000e+00 +9.9999983314508323e-01
-5.6999999999999957e+00 +9.0433242914037475e+00 +0.0000000000000000e+00 -5.6999996715718879e+00 +5.8799307611517632e-04 +0.0000000000000000e+00 +9.9999982713205615e-01
-5.7999999999999954e+00 +9.0432649762516490e+00 +0.0000000000000000e+00 -5.7999996539800067e+00 +5.9830997086487373e-04 +0.0000000000000000e+00 +9.9999982101257323e-01
-5.8999999999999950e+00 +9.0432046294085762e+00 +0.0000000000000000e+00 -5.8999996357708540e+00 +6.0862689553901656e-04 +0.0000000000000000e+00 +9.9999981478663369e-01
-5.9999999999999947e+00 +9.0431432508715517e+00 +0.0000000000000000e+00 -5.9999996169337848e+00 +6.1894384986835641e-04 +0.0000000000000000e+00 +9.9999980845423686e-01
-6.0999999999999943e+00 +9.0430808406376180e+00 +0.0000000000000000e+00 -6.0999995974581527e+00 +6.2926083371143483e-04 +0.0000000000000000e+00 +9.9999980201538186e-01
-6.1999999999999940e+00 +9.0430173987038263e+00 +0.0000000000000000e+00 -6.1999995773333128e+00 +6.3957784705457406e-04 +0.0000000000000000e+00 +9.9999979547006779e-01
-6.2999999999999936e+00 +9.0429529250672207e+00 +0.0000000000000000e+00 -6.2999995565486184e+00 +6.4989489001186752e-04 +0.0000000000000000e+00 +9.9999978881829354e-01
-6.3999999999999932e+00 +9.0428874197248295e+00 +0.0000000000000000e+00 -6.3999995350934231e+00 +6.6021196282517003e-04 +0.0000000000000000e+00 +9.9999978206005824e-01
-6.4999999999999929e+00 +9.0428208826736487e+00 +0.0000000000000000e+00 -6.4999995129570811e+00 +6.7052906586408795e-04 +0.0000000000000000e+00 +9.9999977519536054e-01
-6.5999999999999925e+00 +9.0427533139106320e+00 +0.0000000000000000e+00 -6.5999994901289467e+00 +6.8084619962596900e-04 +0.0000000000000000e+00 +9.9999976822419923e-01
-6.6999999999999922e+00 +9.0426847134326778e+00 +0.0000000000000000e+00 -6.6999994665983724e+00 +6.9116336473589216e-04 +0.0000000000000000e+00 +9.9999976114657296e-01
-6.7999999999999918e+00 +9.0426150812366153e+00 +0.0000000000000000e+00 -6.7999994423547125e+00 +7.0148056194665716e-04 +0.0000000000000000e+00 +9.9999975396248020e-01
-6.8999999999999915e+00 +9.0425444173191902e+00 +0.0000000000000000e+00 -6.8999994173873196e+00 +7.1179779213877386e-04 +0.0000000000000000e+00 +9.9999974667191938e-01
-6.9999999999999911e+00 +9.0424727216770560e+00 +0.0000000000000000e+00 -6.9999993916855470e+00 +7.2211505632045151e-04 +0.0000000000000000e+00 +9.9999973927488861e-01
-7.0999999999999908e+00 +9.0423999943067557e+00 +0.0000000000000000e+00 -7.0999993652387481e+00 +7.3243235562758769e-04 +0.0000000000000000e+00 +9.9999973177138612e-01
-7.1999999999999904e+00 +9.0423262352047171e+00 +0.0000000000000000e+00 -7.1999993380362755e+00 +7.4274969132375726e-04 +0.0000000000000000e+00 +9.9999972416140981e-01
-7.2999999999999901e+00 +9.0422514443672313e+00 +0.0000000000000000e+00 -7.2999993100674807e+00 +7.5306706480020107e-04 +0.0000000000000000e+00 +9.9999971644495755e-01
-7.3999999999999897e+00 +9.0421756217904470e+00 +0.0000000000000000e+00 -7.3999992813217172e+00 +7.6338447757581438e-04 +0.0000000000000000e+00 +9.9999970862202703e-01
-7.4999999999999893e+00 +9.0420987674703515e+00 +0.0000000000000000e+00 -7.4999992517883367e+00 +7.7370193129713523e-04 +0.0000000000000000e+00 +9.9999970069261579e-01
-7.5999999999999890e+00 +9.0420208814027632e+00 +0.0000000000000000e+00 -7.5999992214566907e+00 +7.8401942772847574e-04 +0.0000000000000000e+00 +9.9999969265672106e-01
-7.6999999999999886e+00 +9.0419419635833229e+00 +0.0000000000000000e+00 -7.6999991903161309e+00 +7.9433696864348875e-04 +0.0000000000000000e+00 +9.9999968451434018e-01
-7.7999999999999883e+00 +9.0418620140074957e+00 +0.0000000000000000e+00 -7.7999991583560089e+00 +8.0465455571674977e-04 +0.0000000000000000e+00 +9.9999967626547037e-01
-7.8999999999999879e+00 +9.0417810326705883e+00 +0.0000000000000000e+00 -7.8999991255656754e+00 +8.1497219051391949e-04 +0.0000000000000000e+00 +9.9999966791010897e-01
-7.9999999999999876e+00 +9.0416990195677531e+00 +0.0000000000000000e+00 -7.9999990919344812e+00 +8.2528987449176523e-04 +0.0000000000000000e+00 +9.9999965944825331e-01
-8.0999999999999872e+00 +9.0416159746940057e+00 +0.0000000000000000e+00 -8.0999990574517771e+00 +8.3560760899818265e-04 +0.0000000000000000e+00 +9.9999965087990073e-01
-8.1999999999999869e+00 +9.0415318980442283e+00 +0.0000000000000000e+00 -8.1999990221069119e+00 +8.4592539527221901e-04 +0.0000000000000000e+00 +9.9999964220504856e-01
-8.2999999999999865e+00 +9.0414467896131878e+00 +0.0000000000000000e+00 -8.2999989858892373e+00 +8.5624323444409697e-04 +0.0000000000000000e+00 +9.9999963342369425e-01
-8.3999999999999861e+00 +9.0413606493955427e+00 +0.0000000000000000e+00 -8.3999989487881006e+00 +8.6656112753523906e-04 +0.0000000000000000e+00 +9.9999962453583535e-01
-8.4999999999999858e+00 +9.0412734773858539e+00 +0.0000000000000000e+00 -8.4999989107928542e+00 +8.7687907545829348e-04 +0.0000000000000000e+00 +9.9999961554146932e-01
-8.5999999999999854e+00 +9.0411852735785967e+00 +0.0000000000000000e+00 -8.5999988718928453e+00 +8.8719707901716049e-04 +0.0000000000000000e+00 +9.9999960644059371e-01
-8.6999999999999851e+00 +9.0410960379681722e+00 +0.0000000000000000e+00 -8.6999988320774229e+00 +8.9751513890701945e-04 +0.0000000000000000e+00 +9.9999959723320631e-01
-8.7999999999999847e+00 +9.0410057705489173e+00 +0.0000000000000000e+00 -8.7999987913359359e+00 +9.0783325571435706e-04 +0.0000000000000000e+00 +9.9999958791930466e-01
-8.8999999999999844e+00 +9.0409144713151157e+00 +0.0000000000000000e+00 -8.8999987496577333e+00 +9.1815142991699661e-04 +0.0000000000000000e+00 +9.9999957849888665e-01
-8.9999999999999840e+00 +9.0408221402610085e+00 +0.0000000000000000e+00 -8.9999987070321623e+00 +9.2846966188412749e-04 +0.0000000000000000e+00 +9.9999956897195019e-01
-9.0999999999999837e+00 +9.0407287773808047e+00 +0.0000000000000000e+00 -9.0999986634485719e+00 +9.3878795187633617e-04 +0.0000000000000000e+00 +9.9999955933849327e-01
-9.1999999999999833e+00 +9.0406343826686939e+00 +0.0000000000000000e+00 -9.1999986188963092e+00 +9.4910630004563777e-04 +0.0000000000000000e+00 +9.9999954959851378e-01
-9.2999999999999829e+00 +9.0405389561188549e+00 +0.0000000000000000e+00 -9.2999985733647232e+00 +9.5942470643550835e-04 +0.0000000000000000e+00 +9.9999953975201006e-01
-9.3999999999999826e+00 +9.0404424977254685e+00 +0.0000000000000000e+00 -9.3999985268431612e+00 +9.6974317098091857e-04 +0.0000000000000000e+00 +9.9999952979898021e-01
-9.4999999999999822e+00 +9.0403450074827258e+00 +0.0000000000000000e+00 -9.4999984793209684e+00 +9.8006169350836744e-04 +0.0000000000000000e+00 +9.9999951973942269e-01
-9.5999999999999819e+00 +9.0402464853848432e+00 +0.0000000000000000e+00 -9.5999984307874939e+00 +9.9038027373802738e-04 +0.0000000000000000e+00 +9.9999950957333594e-01
-9.6999999999999815e+00 +9.0401469314260670e+00 +0.0000000000000000e+00 -9.6999983812320849e+00 +1.0006989113069801e-03 +0.0000000000000000e+00 +9.9999949930071863e-01
-9.7999999999999812e+00 +9.0400463456006843e+00 +0.0000000000000000e+00 -9.7999983306440868e+00 +1.0110176057924422e-03 +0.0000000000000000e+00 +9.9999948892156931e-01
-9.8999999999999808e+00 +9.0399447279030269e+00 +0.0000000000000000e+00 -9.8999982790128467e+00 +1.0213363567138859e-03 +0.0000000000000000e+00 +9.9999947843588677e-01
-9.9999999999999805e+00 +9.0398420783274780e+00 +0.0000000000000000e+00 -9.9999982263277118e+00 +1.0316551635330532e-03 +0.0000000000000000e+00 +9.9999946784366978e-01
-1.0099999999999980e+01 +9.0397383968684775e+00 +0.0000000000000000e+00 -1.0099998172578029e+01 +1.0419740256539668e-03 +0.0000000000000000e+00 +9.9999945714491723e-01
-1.0199999999999980e+01 +9.0396336835205258e+00 +0.0000000000000000e+00 -1.0199998117753145e+01 +1.0522929424229440e-03 +0.0000000000000000e+00 +9.9999944633962801e-01
-1.0299999999999979e+01 +9.0395279382781943e+00 +0.0000000000000000e+00 -1.0299998061842404e+01 +1.0626119131286092e-03 +0.0000000000000000e+00 +9.9999943542780123e-01
-1.0399999999999979e+01 +9.0394211611361275e+00 +0.0000000000000000e+00 -1.0399998004835153e+01 +1.0729309370019074e-03 +0.0000000000000000e+00 +9.9999942440943612e-01
-1.0499999999999979e+01 +9.0393133520890494e+00 +0.0000000000000000e+00 -1.0499997946720740e+01 +1.0832500132161177e-03 +0.0000000000000000e+00 +9.9999941328453190e-01
-1.0599999999999978e+01 +9.0392045111317696e+00 +0.0000000000000000e+00 -1.0599997887488508e+01 +1.0935691408868664e-03 +0.0000000000000000e+00 +9.9999940205308790e-01
-1.0699999999999978e+01 +9.0390946382591881e+00 +0.0000000000000000e+00 -1.0699997827127804e+01 +1.1038883190721421e-03 +0.0000000000000000e+00 +9.9999939071510346e-01
-1.0799999999999978e+01 +9.0389837334663046e+00 +0.0000000000000000e+00 -1.0799997765627976e+01 +1.1142075467723089e-03 +0.0000000000000000e+00 +9.9999937927057825e-01
-1.0899999999999977e+01 +9.0388717967482179e+00 +0.0000000000000000e+00 -1.0899997702978368e+01 +1.1245268229301214e-03 +0.0000000000000000e+00 +9.9999936771951192e-01
-1.0999999999999977e+01 +9.0387588281001392e+00 +0.0000000000000000e+00 -1.0999997639168326e+01 +1.1348461464307385e-03 +0.0000000000000000e+00 +9.9999935606190415e-01
-1.1099999999999977e+01 +9.0386448275173930e+00 +0.0000000000000000e+00 -1.1099997574187197e+01 +1.1451655161017389e-03 +0.0000000000000000e+00 +9.9999934429775494e-01
-1.1199999999999976e+01 +9.0385297949954211e+00 +0.0000000000000000e+00 -1.1199997508024326e+01 +1.1554849307131359e-03 +0.0000000000000000e+00 +9.9999933242706418e-01
-1.1299999999999976e+01 +9.0384137305297951e+00 +0.0000000000000000e+00 -1.1299997440669060e+01 +1.1658043889773934e-03 +0.0000000000000000e+00 +9.9999932044983197e-01
-1.1399999999999975e+01 +9.0382966341162163e+00 +0.0000000000000000e+00 -1.1399997372110741e+01 +1.1761238895494398e-03 +0.0000000000000000e+00 +9.9999930836605855e-01
-1.1499999999999975e+01 +9.0381785057505226e+00 +0.0000000000000000e+00 -1.1499997302338720e+01 +1.1864434310266856e-03 +0.0000000000000000e+00 +9.9999929617574435e-01
-1.1599999999999975e+01 +9.0380593454286959e+00 +0.0000000000000000e+00 -1.1599997231342339e+01 +1.1967630119543663e-03 +0.0000000000000000e+00 +9.9999928387888970e-01
-1.1699999999999974e+01 +9.0379391531468656e+00 +0.0000000000000000e+00 -1.1699997159110946e+01 +1.2070826308841719e-03 +0.0000000000000000e+00 +9.9999927147549528e-01
