# multipoles
# s[mm] polynom_b[n=0][T/m^n] polynom_b[n=1][T/m^n] polynom_b[n=2][T/m^n] polynom_b[n=3][T/m^n] polynom_b[n=4][T/m^n] polynom_b[n=5][T/m^n] polynom_b[n=6][T/m^n] 
+0.0000000000000000e+00 -1.0344536580183090e+00 +2.2760090790092589e+00 +1.9565553845287415e+01 +4.1528770937794604e+02 -1.2110616512570907e+04 -2.2255477718872689e+06 +1.3387726317690526e+08 
-1.0000000000000001e-01 -1.0344540961743105e+00 +2.2768590566561424e+00 +1.9637669965599002e+01 +3.9093565185149305e+02 -1.4000064910240442e+04 -2.0871194851981313e+06 +1.4361649186447537e+08 
-2.0000000000000001e-01 -1.0344545615515506e+00 +2.2777456973436729e+00 +1.9712402817811718e+01 +3.6539688777210023e+02 -1.5900355647407921e+04 -1.9417834227576843e+06 +1.5331235263114968e+08 
-3.0000000000000004e-01 -1.0344550512075417e+00 +2.2786668272477351e+00 +1.9789765398976314e+01 +3.3874318586030142e+02 -1.7812750436362268e+04 -1.7899524016993998e+06 +1.6297226663945863e+08 
-4.0000000000000002e-01 -1.0344555622000065e+00 +2.2796202724951180e+00 +1.9869770734254256e+01 +3.1104631586595741e+02 -1.9738511477664244e+04 -1.6320392434386895e+06 +1.7260365710732424e+08 
-5.0000000000000000e-01 -1.0344560915869732e+00 +2.2806038591572300e+00 +1.9952431887975436e+01 +2.8237804880765020e+02 -2.1678901675637739e+04 -1.4684567752497913e+06 +1.8221395036879098e+08 
-5.9999999999999998e-01 -1.0344566364267764e+00 +2.2816154132546642e+00 +2.0037761964841181e+01 +2.5281015687326908e+02 -2.3635184676938828e+04 -1.2996178298153512e+06 +1.9181057612295300e+08 
-6.9999999999999996e-01 -1.0344571937778901e+00 +2.2826527607529372e+00 +2.0125774087200679e+01 +2.2241441360116093e+02 -2.5608624436802536e+04 -1.1259352464769601e+06 +2.0140096538400733e+08 
-7.9999999999999993e-01 -1.0344577606990339e+00 +2.2837137275669561e+00 +2.0216481410643759e+01 +1.9126259378378708e+02 -2.7600485541168073e+04 -9.4782187080059038e+05 +2.1099255210793456e+08 
-8.9999999999999991e-01 -1.0344583342490410e+00 +2.2847961395552150e+00 +2.0309897105341335e+01 +1.5942647369454863e+02 -2.9612032844690781e+04 -7.6569055609176494e+05 +2.2059277146916801e+08 
-9.9999999999999989e-01 -1.0344589114868890e+00 +2.2858978225244764e+00 +2.0406034360985405e+01 +1.2697783097477920e+02 -3.1644531586370536e+04 -5.7995416283403581e+05 +2.3020906049521551e+08 
-1.0999999999999999e+00 -1.0344594894716082e+00 +2.2870166022248970e+00 +2.0504906374853160e+01 +9.3988444846297980e+01 -3.3699247162987253e+04 -3.9102556016096409e+05 +2.3984885700405508e+08 
-1.2000000000000000e+00 -1.0344600652623035e+00 +2.2881503043530431e+00 +2.0606526355025682e+01 +6.0530096059205391e+01 -3.5777445209476471e+04 -1.9931762568441455e+05 +2.4951960006738994e+08 
-1.3000000000000000e+00 -1.0344606359180943e+00 +2.2892967545525504e+00 +2.0710907511973179e+01 +2.6674566900270062e+01 -3.7880391438065824e+04 -5.2432456478212243e+03 +2.5922872925926393e+08 
-1.4000000000000001e+00 -1.0344611984980687e+00 +2.2904537784062615e+00 +2.0818063053742705e+01 -7.5063585056055349e+00 -4.0009351564586555e+04 +1.9078468306974974e+05 +2.6898368437729883e+08 
-1.5000000000000002e+00 -1.0344617500612823e+00 +2.2916192014469061e+00 +2.0928006184925493e+01 -4.1940894485453008e+01 -4.2165591293214013e+04 +3.8835325455584301e+05 +2.7879190540139639e+08 
-1.6000000000000003e+00 -1.0344622901484286e+00 +2.2927906572822554e+00 +2.1040752398776576e+01 -7.6559619259111997e+01 -4.4349664304596998e+04 +5.8707708810873912e+05 +2.8865634804836988e+08 
-1.7000000000000004e+00 -1.0344628281839032e+00 +2.2939650808618381e+00 +2.1156323667380171e+01 -1.1130399550862116e+02 -4.6559105415707236e+04 +7.8668789310169697e+05 +2.9856089063644421e+08 
-1.8000000000000005e+00 -1.0344633760523705e+00 +2.2951392499230532e+00 +2.1274742855627533e+01 -1.4611857975286782e+02 -4.8790650936100894e+04 +9.8694850323479262e+05 +3.0848435200899750e+08 
-1.9000000000000006e+00 -1.0344639456381786e+00 +2.2963099421189743e+00 +2.1396032805496304e+01 -1.8094792703127447e+02 -5.1041036850372169e+04 +1.1876217467204703e+06 +3.1840554966250420e+08 
-2.0000000000000004e+00 -1.0344645488254547e+00 +2.2974739350176701e+00 +2.1520216350872584e+01 -2.1573659101212618e+02 -5.3306999119775777e+04 +1.3884704472851730e+06 +3.2830330121781117e+08 
-2.1000000000000005e+00 -1.0344651974979697e+00 +2.2986280060946367e+00 +2.1647316301792284e+01 -2.5042912385669476e+02 -5.5585273389226531e+04 +1.5892574236259444e+06 +3.3815642303398752e+08 
-2.2000000000000006e+00 -1.0344659035390997e+00 +2.2997689327316069e+00 +2.1777355441649426e+01 -2.8497007631272828e+02 -5.7872594944659737e+04 +1.7897454903082338e+06 +3.4794373001689810e+08 
-2.3000000000000007e+00 -1.0344666788318584e+00 +2.3008934922106645e+00 +2.1910356534031308e+01 -3.1930399765160502e+02 -6.0165698863288984e+04 +1.9896974577284984e+06 +3.5764403637768251e+08 
-2.4000000000000008e+00 -1.0344675352587722e+00 +2.3019984617177722e+00 +2.2046342308025054e+01 -3.5337543590250658e+02 -6.2461319737837519e+04 +2.1888761338234753e+06 +3.6723615431542879e+08 
-2.5000000000000009e+00 -1.0344684847018386e+00 +2.3030806183219590e+00 +2.2185335455401543e+01 -3.8712893730995904e+02 -6.4756191636268857e+04 +2.3870443211195236e+06 +3.7669889384842914e+08 
-2.6000000000000010e+00 -1.0344695390426142e+00 +2.3041367389922058e+00 +2.2327358644060837e+01 -4.2050904699045032e+02 -6.7047048376144608e+04 +2.5839648210064624e+06 +3.8601106415657026e+08 
-2.7000000000000011e+00 -1.0344707101619794e+00 +2.3051636005838847e+00 +2.2472434489827563e+01 -4.5346030863329264e+02 -6.9330622991536846e+04 +2.7794004322858057e+06 +3.9515147103872490e+08 
-2.8000000000000012e+00 -1.0344720099402458e+00 +2.3061579798292247e+00 +2.2620585572803115e+01 -4.8592726430522788e+02 -7.1603648063984467e+04 +2.9731139502446763e+06 +4.0409891852921027e+08 
-2.9000000000000012e+00 -1.0344734502570745e+00 +2.3071166533478511e+00 +2.2771834427603711e+01 -5.1785445491631765e+02 -7.3862855540333854e+04 +3.1648681698402781e+06 +4.1283220802709854e+08 
-3.0000000000000013e+00 -1.0344750429913561e+00 +2.3080363976312022e+00 +2.2926203532602816e+01 -5.4918641984898750e+02 -7.6104976551047497e+04 +3.3544258837681483e+06 +4.2133013747791433e+08 
-3.1000000000000014e+00 -1.0344768000213187e+00 +2.3089139890431474e+00 +2.3083715323120018e+01 -5.7986769709919270e+02 -7.8326741662725690e+04 +3.5415498836340895e+06 +4.2957150256847680e+08 
-3.2000000000000015e+00 -1.0344787332243786e+00 +2.3097462038180585e+00 +2.3244392175702089e+01 -6.0984282332498071e+02 -8.0524880594346498e+04 +3.7260029605374541e+06 +4.3753509540236133e+08 
-3.3000000000000016e+00 -1.0344808544771185e+00 +2.3105298180543619e+00 +2.3408256408240678e+01 -6.3905633377214861e+02 -8.2696122239126838e+04 +3.9075479049578826e+06 +4.4519970464499563e+08 
-3.4000000000000017e+00 -1.0344831756552295e+00 +2.3112616077108479e+00 +2.3575330273285925e+01 -6.6745276229292983e+02 -8.4837194538603784e+04 +4.0859475072240122e+06 +4.5254411491145813e+08 
-3.5000000000000018e+00 -1.0344857086335246e+00 +2.3119383486085852e+00 +2.3745635963136124e+01 -6.9497664141644907e+02 -8.6944824589923664e+04 +4.2609645580067551e+06 +4.5954710728685153e+08 
-3.6000000000000019e+00 -1.0344884599023072e+00 +2.3125575380765313e+00 +2.3919161857396791e+01 -7.2157977296167542e+02 -8.9017324869900214e+04 +4.4323750506609436e+06 +4.6619905000837809e+08 
-3.7000000000000020e+00 -1.0344914145290374e+00 +2.3131191920292378e+00 +2.4095747932652095e+01 -7.4723329209363123e+02 -9.1059413123986262e+04 +4.5999549246148039e+06 +4.7253798727807873e+08 
-3.8000000000000020e+00 -1.0344945522519604e+00 +2.3136238633860375e+00 +2.4275194495053064e+01 -7.7191063419566206e+02 -9.3077445921455481e+04 +4.7634661828706386e+06 +4.7861433564545619e+08 
-3.9000000000000021e+00 -1.0344978528089668e+00 +2.3140721052250313e+00 +2.4457301802922249e+01 -7.9558523668876671e+02 -9.5077779079842599e+04 +4.9226708319084905e+06 +4.8447850897135842e+08 
-4.0000000000000018e+00 -1.0345012959375282e+00 +2.3144644708030033e+00 +2.4641870056041913e+01 -8.1823053951052214e+02 -9.7066767432981695e+04 +5.0773308839054452e+06 +4.9018091727981722e+08 
-4.1000000000000014e+00 -1.0345048613747068e+00 +2.3148015135766129e+00 +2.4828699395620831e+01 -8.3981998550661126e+02 -9.9050764830335349e+04 +5.2272083582559209e+06 +4.9577196679632998e+08 
-4.2000000000000011e+00 -1.0345085288571882e+00 +2.3150837872199155e+00 +2.5017589905190285e+01 -8.6032702070743937e+02 -1.0103612414498966e+05 +5.3720652824349320e+06 +5.0130205999735957e+08 
-4.3000000000000007e+00 -1.0345122781212472e+00 +2.3153118456370820e+00 +2.5208341606188913e+01 -8.7972509443293052e+02 -1.0302919719638147e+05 +5.5116636917492719e+06 +5.0682159530028063e+08 
-4.4000000000000004e+00 -1.0345160889027820e+00 +2.3154862429819989e+00 +2.5400754459168628e+01 -8.9798765964494146e+02 -1.0503633476403951e+05 +5.6457656306551155e+06 +5.1238096714095008e+08 
-4.5000000000000000e+00 -1.0345199409372716e+00 +2.3156075336751893e+00 +2.5594628357137033e+01 -9.1508817319635261e+02 -1.0706388646329340e+05 +5.7741331534453453e+06 +5.1803056542873544e+08 
-4.5999999999999996e+00 -1.0345238139598165e+00 +2.3156762724139544e+00 +2.5789763128618940e+01 -9.3100009586345971e+02 -1.0911820079885128e+05 +5.8965283235585149e+06 +5.2382077582616067e+08 
-4.6999999999999993e+00 -1.0345276877051341e+00 +2.3156930142030290e+00 +2.5985958535578177e+01 -9.4569689303454663e+02 -1.1120562512566996e+05 +6.0127132169340318e+06 +5.2980197960223740e+08 
-4.7999999999999989e+00 -1.0345315419075225e+00 +2.3156583143538474e+00 +2.6183014266250112e+01 -9.5915203441630422e+02 -1.1333250550451392e+05 +6.1224499194127601e+06 +5.3602455296081811e+08 
-4.8999999999999986e+00 -1.0345353563009061e+00 +2.3155727285121008e+00 +2.6380729940564830e+01 -9.7133899460024577e+02 -1.1550518681552721e+05 +6.2255005292693619e+06 +5.4253886764907932e+08 
-4.9999999999999982e+00 -1.0345391106188102e+00 +2.3154368126768414e+00 +2.6578905103397030e+01 -9.8223125340022216e+02 -1.1773001261272389e+05 +6.3216271584598608e+06 +5.4939529025609875e+08 
-5.0999999999999979e+00 -1.0345427845943944e+00 +2.3152511232026280e+00 +2.6777339228385777e+01 -9.9180229563830369e+02 -1.2001332520906409e+05 +6.4105919304844076e+06 +5.5664418268976927e+08 
-5.1999999999999975e+00 -1.0345463579603817e+00 +2.3150162168319479e+00 +2.6975831705551087e+01 -1.0000256118862782e+03 -1.2236146542151344e+05 +6.4921569840324167e+06 +5.6433590094820404e+08 
-5.2999999999999972e+00 -1.0345498104491462e+00 +2.3147326507014427e+00 +2.7174181852648662e+01 -1.0068746983754532e+03 -1.2478077280489230e+05 +6.5660844715804849e+06 +5.7252079632134879e+08 
-5.3999999999999968e+00 -1.0345531217926549e+00 +2.3144009823682326e+00 +2.7372188903972120e+01 -1.0123230575394601e+03 -1.2727758542092994e+05 +6.6321365618251180e+06 +5.8124921428000057e+08 
-5.4999999999999964e+00 -1.0345562717225492e+00 +2.3140217698114212e+00 +2.7569652018193903e+01 -1.0163441979784004e+03 -1.2985824000482186e+05 +6.6900754391208310e+06 +5.9057149537626386e+08 
-5.5999999999999961e+00 -1.0345592454243011e+00 +2.3135957698435825e+00 +2.7766334530103087e+01 -1.0189172884246772e+03 -1.3252640750138988e+05 +6.7396930157946432e+06 +6.0052238722579610e+08 
-5.6999999999999957e+00 -1.0345620494041816e+00 +2.3131252041961989e+00 +2.7961767021905732e+01 -1.0200593605585449e+03 -1.3527315747031363e+05 +6.7809759218089944e+06 +6.1106454662279201e+08 
-5.7999999999999954e+00 -1.0345646953667866e+00 +2.3126128381755002e+00 +2.8155395388787728e+01 -1.0198010282526117e+03 -1.3808583290433942e+05 +6.8139801834829552e+06 +6.2213972120519507e+08 
-5.8999999999999950e+00 -1.0345671950164945e+00 +2.3120614373971953e+00 +2.8346665404489869e+01 -1.0181729159993246e+03 -1.4095177373042831e+05 +6.8387618880451350e+06 +6.3368964209962893e+08 
-5.9999999999999947e+00 -1.0345695600574996e+00 +2.3114737677119739e+00 +2.8535022731168535e+01 -1.0152056567122879e+03 -1.4385831705415194e+05 +6.8553771711947508e+06 +6.4565602519633913e+08 
-6.0999999999999943e+00 -1.0345718021939398e+00 +2.3108525952136256e+00 +2.8719912933731067e+01 -1.0109298921017654e+03 -1.4679279740863520e+05 +6.8638822195031261e+06 +6.5798057226079321e+08 
-6.1999999999999940e+00 -1.0345739331298018e+00 +2.3102006862473248e+00 +2.8900781461763934e+01 -1.0053762730223377e+03 -1.4974254636080257e+05 +6.8643332725748206e+06 +6.7060496891425455e+08 
-6.2999999999999936e+00 -1.0345759645690036e+00 +2.3095208074162996e+00 +2.9077073658565183e+01 -9.9857545980409282e+02 -1.5269489266759885e+05 +6.8567866251999168e+06 +6.8347088532911873e+08 
-6.3999999999999932e+00 -1.0345779082153479e+00 +2.3088157255787523e+00 +2.9248234749876517e+01 -9.9055812227953322e+02 -1.5563716201225552e+05 +6.8412986276774276e+06 +6.9651997482854724e+08 
-6.4999999999999929e+00 -1.0345797757726087e+00 +2.3080882078632836e+00 +2.9413709852536986e+01 -9.8135494035163947e+02 -1.5855667714883140e+05 +6.8179256892800862e+06 +7.0969387451227236e+08 
-6.5999999999999925e+00 -1.0345815789444663e+00 +2.3073410216703163e+00 +2.9572943961276593e+01 -9.7099660416217796e+02 -1.6144075760699357e+05 +6.7867242794392528e+06 +7.2293420372481954e+08 
-6.6999999999999922e+00 -1.0345833294345792e+00 +2.3065769346778069e+00 +2.9725381955457813e+01 -9.5951381438708768e+02 -1.6427671979480438e+05 +6.7477509296604358e+06 +7.3618256446472943e+08 
-6.7999999999999918e+00 -1.0345850389465228e+00 +2.3057987148441415e+00 +2.9870468586822316e+01 -9.4693728242153747e+02 -1.6705187672678733e+05 +6.7010622347137202e+06 +7.4938053997749257e+08 
-6.8999999999999915e+00 -1.0345867191839004e+00 +2.3050091304179263e+00 +3.0007648490327579e+01 -9.3329773081438987e+02 -1.6975353820014477e+05 +6.6467148554255618e+06 +7.6246969550483191e+08 
-6.9999999999999911e+00 -1.0345883818502541e+00 +2.3042109499447081e+00 +3.0136366168787809e+01 -9.1862589357259117e+02 -1.7236901046682100e+05 +6.5847655205918802e+06 +7.7539157661867285e+08 
-7.0999999999999908e+00 -1.0345900386491453e+00 +2.3034069422629821e+00 +3.0256065999477482e+01 -9.0295251617017379e+02 -1.7488559632579889e+05 +6.5152710272130528e+06 +7.8808770955969119e+08 
-7.1999999999999904e+00 -1.0345917012841377e+00 +2.3025998765234803e+00 +3.0366192229508549e+01 -8.8630835622912389e+02 -1.7729059500673422e+05 +6.4382882446420193e+06 +8.0049960059864652e+08 
-7.2999999999999901e+00 -1.0345933814588186e+00 +2.3017925221839155e+00 +3.0466188972897960e+01 -8.6872418349419547e+02 -1.7957130207314072e+05 +6.3538741146115074e+06 +8.1256873545746326e+08 
-7.3999999999999897e+00 -1.0345950908767645e+00 +2.3009876490174253e+00 +3.0555500203840033e+01 -8.5023078020076866e+02 -1.8171500926369603e+05 +6.2620856535810735e+06 +8.2423657845790529e+08 
-7.4999999999999893e+00 -1.0345968412415802e+00 +2.3001880271018873e+00 +3.0633569758015401e+01 -8.3085894038781703e+02 -1.8370900441951517e+05 +6.1629799480491634e+06 +8.3544457189374256e+08 
-7.5999999999999890e+00 -1.0345986405732477e+00 +2.2993967180482922e+00 +3.0699945894054846e+01 -8.1065757018797547e+02 -1.8554259140441121e+05 +6.0567394743009564e+06 +8.4614162861016762e+08 
-7.6999999999999886e+00 -1.0346004837406404e+00 +2.2986174069994574e+00 +3.0754798928877047e+01 -7.8974686949164004e+02 -1.8721602926471649e+05 +5.9440732053569360e+06 +8.5631717432204628e+08 
-7.7999999999999883e+00 -1.0346023627460945e+00 +2.2978537923870550e+00 +3.0798512446204168e+01 -7.6826481204336392e+02 -1.8873311308509327e+05 +5.8258303489993261e+06 +8.6597360098866284e+08 
-7.8999999999999879e+00 -1.0346042695945912e+00 +2.2971095723344606e+00 +3.0831470396094122e+01 -7.4634936623835586e+02 -1.9009764457468456e+05 +5.7028600987363961e+06 +8.7511333063903534e+08 
-7.9999999999999876e+00 -1.0346061962935409e+00 +2.2963884446783069e+00 +3.0854057058047268e+01 -7.2413849232735379e+02 -1.9131343171136893e+05 +5.5760116103533553e+06 +8.8373881479040015e+08 
-8.0999999999999872e+00 -1.0346081348528198e+00 +2.2956941069583667e+00 +3.0866657046316170e+01 -7.0177014215645056e+02 -1.9238428884269731e+05 +5.4461340008538458e+06 +8.9185253491403139e+08 
-8.1999999999999869e+00 -1.0346100772849427e+00 +2.2950302564005258e+00 +3.0869655335072718e+01 -6.7938225864529682e+02 -1.9331403718207873e+05 +5.3140763457110971e+06 +8.9945700482551336e+08 
-8.2999999999999865e+00 -1.0346120156050411e+00 +2.2944005899015658e+00 +3.0863437255537761e+01 -6.5711277537743570e+02 -1.9410650474861439e+05 +5.1806876769426437e+06 +9.0655477036758709e+08 
-8.3999999999999861e+00 -1.0346139418310594e+00 +2.2938088040199642e+00 +3.0848388525240654e+01 -6.3509961632002774e+02 -1.9476552695042931e+05 +5.0468169818013776e+06 +9.1314841224250531e+08 
-8.4999999999999858e+00 -1.0346158479836971e+00 +2.2932585949528197e+00 +3.0824895240133369e+01 -6.1348069516733165e+02 -1.9529494642285726e+05 +4.9133131993590742e+06 +9.1924054519288027e+08 
-8.5999999999999854e+00 -1.0346177260866143e+00 +2.2927536585403057e+00 +3.0793343904142539e+01 -5.9239391548443473e+02 -1.9569861361406717e+05 +4.7810252217484470e+06 +9.2483382083616757e+08 
-8.6999999999999851e+00 -1.0346195681664705e+00 +2.2922976902288275e+00 +3.0754121435312662e+01 -5.7197716960778030e+02 -1.9598038690284686e+05 +4.6508018880445184e+06 +9.2993092821159422e+08 
-8.7999999999999847e+00 -1.0346213662529644e+00 +2.2918943850770672e+00 +3.0707615172431215e+01 -5.5236833887041610e+02 -1.9614413273174016e+05 +4.5234919860717431e+06 +9.3453459441587496e+08 
-8.8999999999999844e+00 -1.0346231123789666e+00 +2.2915474377258334e+00 +3.0654212894260979e+01 -5.3370529269218264e+02 -1.9619372598419571e+05 +4.3999442473914512e+06 +9.3864758641189551e+08 
-8.9999999999999840e+00 -1.0346247985806065e+00 +2.2912605423951740e+00 +3.0594302832533650e+01 -5.1612588852640101e+02 -1.9613305024170672e+05 +4.2810073474323582e+06 +9.4227271226574922e+08 
-9.0999999999999837e+00 -1.0346264168973014e+00 +2.2910373928692835e+00 +3.0528273676225790e+01 -4.9976797142025151e+02 -1.9596599786326598e+05 +4.1675299032829688e+06 +9.4541282149911964e+08 
-9.1999999999999833e+00 -1.0346279593719054e+00 +2.2908816824766043e+00 +3.0456514594511990e+01 -4.8476937342915221e+02 -1.9569647044596734e+05 +4.0603604706452801e+06 +9.4807080733337069e+08 
-9.2999999999999829e+00 -1.0346294180507276e+00 +2.2907971040825421e+00 +3.0379415238691866e+01 -4.7126791342588081e+02 -1.9532837885477205e+05 +3.9603475431282534e+06 +9.5024960679456103e+08 
-9.3999999999999826e+00 -1.0346307849836502e+00 +2.2907873500719171e+00 +3.0297365760045398e+01 -4.5940139658388142e+02 -1.9486564357641060e+05 +3.8683395495879464e+06 +9.5195220242035329e+08 
-9.4999999999999822e+00 -1.0346320522242656e+00 +2.2908561123596995e+00 +3.0210756826755251e+01 -4.4930761638565730e+02 -1.9431219523922083e+05 +3.7851848728393591e+06 +9.5318162561259019e+08 
-9.5999999999999819e+00 -1.0346332125315874e+00 +2.2910053448783922e+00 +3.0119947866020734e+01 -4.4107954169004125e+02 -1.9367225207419475e+05 +3.7114922294984236e+06 +9.5394557130162549e+08 
-9.6999999999999815e+00 -1.0346342596517539e+00 +2.2912299483126652e+00 +3.0025119369176650e+01 -4.3461674893254707e+02 -1.9295140723209435e+05 +3.6468049283029297e+06 +9.5427417205802298e+08 
-9.7999999999999812e+00 -1.0346351871098030e+00 +2.2915230114564427e+00 +2.9926393402498931e+01 -4.2976595716026929e+02 -1.9215574172323919e+05 +3.5903672273324151e+06 +9.5420482619493818e+08 
-9.8999999999999808e+00 -1.0346359884277576e+00 +2.2918776231358229e+00 +2.9823891780086214e+01 -4.2637387801907920e+02 -1.9129133356857012e+05 +3.5414233208789281e+06 +9.5377492300996375e+08 
-9.9999999999999805e+00 -1.0346366571244798e+00 +2.2922868724140888e+00 +2.9717736026775835e+01 -4.2428722674843607e+02 -1.9036425633659915e+05 +3.4992174130431279e+06 +9.5302183358962500e+08 
-1.0099999999999980e+01 -1.0346371867157738e+00 +2.2927438485964484e+00 +2.9608047395161336e+01 -4.2335272221315904e+02 -1.8938057950594401e+05 +3.4629937175301104e+06 +9.5198291264396060e+08 
