# field on trajectory
# s[mm] rx[mm] ry[mm] rz[mm] bx[T] by[T] bz[T]
0.0000000000000000e+00 +9.1476323485342608e+00 +0.0000000000000000e+00 +0.0000000000000000e+00 +1.1164025575689563e-02 -1.0334875123806779e+00 -5.8788033111029619e-02
1.0000000000000001e-01 +9.1476318316365202e+00 +0.0000000000000000e+00 +9.9999999998218805e-02 +1.1163734993035952e-02 -1.0334810606046689e+00 -5.8785736793241783e-02
2.0000000000000001e-01 +9.1476302809427192e+00 +0.0000000000000000e+00 +1.9999999998574999e-01 +1.1163444501210184e-02 -1.0334746694994006e+00 -5.8783430344749990e-02
2.9999999999999999e-01 +9.1476276964536503e+00 +0.0000000000000000e+00 +2.9999999995190701e-01 +1.1163154175989084e-02 -1.0334683531580897e+00 -5.8781114050751093e-02
4.0000000000000002e-01 +9.1476240781675404e+00 +0.0000000000000000e+00 +3.9999999988600199e-01 +1.1162864093163950e-02 -1.0334621256761067e+00 -5.8778788196470200e-02
5.0000000000000000e-01 +9.1476194260861501e+00 +0.0000000000000000e+00 +4.9999999977734699e-01 +1.1162574328544736e-02 -1.0334560011512963e+00 -5.8776453067167167e-02
5.9999999999999998e-01 +9.1476137402094899e+00 +0.0000000000000000e+00 +5.9999999961525596e-01 +1.1162285015922145e-02 -1.0334499914212936e+00 -5.8774108871978308e-02
6.9999999999999996e-01 +9.1476070205357907e+00 +0.0000000000000000e+00 +6.9999999938904001e-01 +1.1161996520939268e-02 -1.0334440992743410e+00 -5.8771755515413901e-02
8.0000000000000004e-01 +9.1475992670650292e+00 +0.0000000000000000e+00 +7.9999999908801400e-01 +1.1161709267210896e-02 -1.0334383252377883e+00 -5.8769392825838714e-02
9.0000000000000002e-01 +9.1475904798007797e+00 +0.0000000000000000e+00 +8.9999999870148795e-01 +1.1161423678363034e-02 -1.0334326698409164e+00 -5.8767020631630598e-02
1.0000000000000000e+00 +9.1475806587394892e+00 +0.0000000000000000e+00 +9.9999999821877705e-01 +1.1161140178031301e-02 -1.0334271336148184e+00 -5.8764638761176255e-02
1.1000000000000001e+00 +9.1475698038829201e+00 +0.0000000000000000e+00 +1.0999999976291901e+00 +1.1160859189858749e-02 -1.0334217170922402e+00 -5.8762247042864327e-02
1.2000000000000000e+00 +9.1475579152292994e+00 +0.0000000000000000e+00 +1.1999999969220501e+00 +1.1160581137494187e-02 -1.0334164208074557e+00 -5.8759845305081056e-02
1.3000000000000000e+00 +9.1475449927804107e+00 +0.0000000000000000e+00 +1.2999999960866500e+00 +1.1160306444590207e-02 -1.0334112452961226e+00 -5.8757433376203982e-02
1.3999999999999999e+00 +9.1475310365362503e+00 +0.0000000000000000e+00 +1.3999999951123201e+00 +1.1160035534801360e-02 -1.0334061910951491e+00 -5.8755011084597131e-02
1.5000000000000000e+00 +9.1475160464950402e+00 +0.0000000000000000e+00 +1.4999999939883699e+00 +1.1159768831782374e-02 -1.0334012587425634e+00 -5.8752578258605581e-02
1.6000000000000001e+00 +9.1475000226585603e+00 +0.0000000000000000e+00 +1.5999999927041100e+00 +1.1159506759186087e-02 -1.0333964487773586e+00 -5.8750134726549379e-02
1.7000000000000000e+00 +9.1474829650268106e+00 +0.0000000000000000e+00 +1.6999999912488499e+00 +1.1159249740661755e-02 -1.0333917617393735e+00 -5.8747680316718828e-02
1.8000000000000000e+00 +9.1474648735980093e+00 +0.0000000000000000e+00 +1.7999999896119101e+00 +1.1158998199853169e-02 -1.0333871981691494e+00 -5.8745214857368930e-02
1.8999999999999999e+00 +9.1474457483739400e+00 +0.0000000000000000e+00 +1.8999999877825899e+00 +1.1158752560396655e-02 -1.0333827586077866e+00 -5.8742738176713438e-02
2.0000000000000000e+00 +9.1474255893528191e+00 +0.0000000000000000e+00 +1.9999999857502100e+00 +1.1158513245919387e-02 -1.0333784435968187e+00 -5.8740250102920145e-02
2.1000000000000001e+00 +9.1474043965364302e+00 +0.0000000000000000e+00 +2.0999999835040901e+00 +1.1158280680037349e-02 -1.0333742536780617e+00 -5.8737750464104732e-02
2.2000000000000002e+00 +9.1473821699247697e+00 +0.0000000000000000e+00 +2.1999999810335300e+00 +1.1158055286353571e-02 -1.0333701893934895e+00 -5.8735239088325897e-02
2.2999999999999998e+00 +9.1473589095160595e+00 +0.0000000000000000e+00 +2.2999999783278602e+00 +1.1157837488456340e-02 -1.0333662512850939e+00 -5.8732715803579943e-02
2.3999999999999999e+00 +9.1473346153120794e+00 +0.0000000000000000e+00 +2.3999999753763701e+00 +1.1157627709917094e-02 -1.0333624398947387e+00 -5.8730180437794738e-02
2.5000000000000000e+00 +9.1473092873128206e+00 +0.0000000000000000e+00 +2.4999999721683901e+00 +1.1157426374288779e-02 -1.0333587557640322e+00 -5.8727632818824912e-02
2.6000000000000001e+00 +9.1472829255165191e+00 +0.0000000000000000e+00 +2.5999999686932198e+00 +1.1157233695548429e-02 -1.0333551983848801e+00 -5.8725072903980824e-02
2.7000000000000002e+00 +9.1472555299249496e+00 +0.0000000000000000e+00 +2.6999999649401798e+00 +1.1157049049441623e-02 -1.0333517630511022e+00 -5.8722501168664572e-02
2.7999999999999998e+00 +9.1472271005398795e+00 +0.0000000000000000e+00 +2.7999999608985902e+00 +1.1156871602173414e-02 -1.0333484440056764e+00 -5.8719918217833539e-02
2.8999999999999999e+00 +9.1471976373559905e+00 +0.0000000000000000e+00 +2.8999999565577501e+00 +1.1156700519969644e-02 -1.0333452354897736e+00 -5.8717324656481093e-02
3.0000000000000000e+00 +9.1471671403768209e+00 +0.0000000000000000e+00 +2.9999999519069700e+00 +1.1156534969078541e-02 -1.0333421317425040e+00 -5.8714721089640265e-02
3.1000000000000001e+00 +9.1471356096023904e+00 +0.0000000000000000e+00 +3.0999999469355801e+00 +1.1156374115773035e-02 -1.0333391270007186e+00 -5.8712108122390465e-02
3.2000000000000002e+00 +9.1471030450308994e+00 +0.0000000000000000e+00 +3.1999999416328699e+00 +1.1156217126352785e-02 -1.0333362154987864e+00 -5.8709486359862770e-02
3.2999999999999998e+00 +9.1470694466641493e+00 +0.0000000000000000e+00 +3.2999999359881800e+00 +1.1156063167146015e-02 -1.0333333914683605e+00 -5.8706856407244795e-02
3.3999999999999999e+00 +9.1470348145021205e+00 +0.0000000000000000e+00 +3.3999999299908001e+00 +1.1155911404511679e-02 -1.0333306491381660e+00 -5.8704218869786641e-02
3.5000000000000000e+00 +9.1469991485430509e+00 +0.0000000000000000e+00 +3.4999999236300501e+00 +1.1155761004841501e-02 -1.0333279827337825e+00 -5.8701574352806388e-02
3.6000000000000001e+00 +9.1469624487887007e+00 +0.0000000000000000e+00 +3.5999999168952499e+00 +1.1155611134561831e-02 -1.0333253864774059e+00 -5.8698923461694905e-02
3.7000000000000002e+00 +9.1469247152390807e+00 +0.0000000000000000e+00 +3.6999999097757001e+00 +1.1155460960135808e-02 -1.0333228545876407e+00 -5.8696266801921859e-02
3.7999999999999998e+00 +9.1468859478924092e+00 +0.0000000000000000e+00 +3.7999999022607200e+00 +1.1155309648065397e-02 -1.0333203812792806e+00 -5.8693604979041178e-02
3.8999999999999999e+00 +9.1468461467522495e+00 +0.0000000000000000e+00 +3.8999998943396199e+00 +1.1155156364893179e-02 -1.0333179607630643e+00 -5.8690938598695605e-02
4.0000000000000000e+00 +9.1468053118132708e+00 +0.0000000000000000e+00 +3.9999998860017101e+00 +1.1155000277204806e-02 -1.0333155872454942e+00 -5.8688268266623829e-02
4.0999999999999996e+00 +9.1467634430807898e+00 +0.0000000000000000e+00 +4.0999998772363098e+00 +1.1154840551630426e-02 -1.0333132549285620e+00 -5.8685594588663612e-02
4.2000000000000002e+00 +9.1467205405512608e+00 +0.0000000000000000e+00 +4.1999998680327302e+00 +1.1154676354847289e-02 -1.0333109580095778e+00 -5.8682918170759456e-02
4.2999999999999998e+00 +9.1466766042264602e+00 +0.0000000000000000e+00 +4.2999998583802803e+00 +1.1154506853581343e-02 -1.0333086906809126e+00 -5.8680239618966394e-02
4.4000000000000004e+00 +9.1466316341046099e+00 +0.0000000000000000e+00 +4.3999998482682798e+00 +1.1154331214609505e-02 -1.0333064471297970e+00 -5.8677559539456491e-02
4.5000000000000000e+00 +9.1465856301892607e+00 +0.0000000000000000e+00 +4.4999998376860297e+00 +1.1154148604761447e-02 -1.0333042215380805e+00 -5.8674878538523212e-02
4.5999999999999996e+00 +9.1465385924768707e+00 +0.0000000000000000e+00 +4.5999998266228497e+00 +1.1153958445243486e-02 -1.0333020091214646e+00 -5.8672197466796437e-02
4.7000000000000002e+00 +9.1464905209674292e+00 +0.0000000000000000e+00 +4.6999998150680504e+00 +1.1153761174563100e-02 -1.0332998092497694e+00 -5.8669518151818374e-02
4.7999999999999998e+00 +9.1464414156644995e+00 +0.0000000000000000e+00 +4.7999998030109499e+00 +1.1153557485478260e-02 -1.0332976223324390e+00 -5.8666842665315404e-02
4.9000000000000004e+00 +9.1463912765645095e+00 +0.0000000000000000e+00 +4.8999997904408596e+00 +1.1153348070656840e-02 -1.0332954487798005e+00 -5.8664173078970636e-02
5.0000000000000000e+00 +9.1463401036692602e+00 +0.0000000000000000e+00 +4.9999997773470897e+00 +1.1153133622670699e-02 -1.0332932890031656e+00 -5.8661511464418510e-02
5.0999999999999996e+00 +9.1462878969787305e+00 +0.0000000000000000e+00 +5.0999997637189498e+00 +1.1152914833990351e-02 -1.0332911434149836e+00 -5.8658859893241572e-02
5.2000000000000002e+00 +9.1462346564911599e+00 +0.0000000000000000e+00 +5.1999997495457499e+00 +1.1152692396979419e-02 -1.0332890124289753e+00 -5.8656220436966541e-02
5.2999999999999998e+00 +9.1461803822083105e+00 +0.0000000000000000e+00 +5.2999997348168204e+00 +1.1152467003888979e-02 -1.0332868964602548e+00 -5.8653595167059779e-02
5.4000000000000004e+00 +9.1461250741284204e+00 +0.0000000000000000e+00 +5.3999997195214604e+00 +1.1152239346852177e-02 -1.0332847959254814e+00 -5.8650986154924062e-02
5.5000000000000000e+00 +9.1460687322550296e+00 +0.0000000000000000e+00 +5.4999997036489701e+00 +1.1152010117878464e-02 -1.0332827112429708e+00 -5.8648395471893558e-02
5.5999999999999996e+00 +9.1460113565845909e+00 +0.0000000000000000e+00 +5.5999996871886903e+00 +1.1151780008848422e-02 -1.0332806428328611e+00 -5.8645825189231338e-02
5.7000000000000002e+00 +9.1459529471188894e+00 +0.0000000000000000e+00 +5.6999996701299196e+00 +1.1151549711507860e-02 -1.0332785911172173e+00 -5.8643277378123963e-02
5.7999999999999998e+00 +9.1458935038561293e+00 +0.0000000000000000e+00 +5.7999996524619597e+00 +1.1151319917462536e-02 -1.0332765565201851e+00 -5.8640754109678443e-02
5.9000000000000004e+00 +9.1458330267980994e+00 +0.0000000000000000e+00 +5.8999996341741401e+00 +1.1151091318172423e-02 -1.0332745394681107e+00 -5.8638257454917513e-02
6.0000000000000000e+00 +9.1457715159465796e+00 +0.0000000000000000e+00 +5.9999996152557697e+00 +1.1150864604946267e-02 -1.0332725403896821e+00 -5.8635789484776039e-02
6.0999999999999996e+00 +9.1457089712962301e+00 +0.0000000000000000e+00 +6.0999995956961603e+00 +1.1150640468936291e-02 -1.0332705597160814e+00 -5.8633352270097826e-02
6.2000000000000002e+00 +9.1456453928523906e+00 +0.0000000000000000e+00 +6.1999995754846200e+00 +1.1150419601132113e-02 -1.0332685978810756e+00 -5.8630947881629598e-02
6.2999999999999998e+00 +9.1455807806132707e+00 +0.0000000000000000e+00 +6.2999995546104604e+00 +1.1150202692355738e-02 -1.0332666553211947e+00 -5.8628578390019066e-02
6.4000000000000004e+00 +9.1455151345771100e+00 +0.0000000000000000e+00 +6.3999995330630002e+00 +1.1149990433255846e-02 -1.0332647324758484e+00 -5.8626245865810014e-02
6.5000000000000000e+00 +9.1454484547456794e+00 +0.0000000000000000e+00 +6.4999995108315600e+00 +1.1149783514302142e-02 -1.0332628297874522e+00 -5.8623952379438113e-02
6.5999999999999996e+00 +9.1453807411171901e+00 +0.0000000000000000e+00 +6.5999994879054302e+00 +1.1149582431724422e-02 -1.0332609477238870e+00 -5.8621699591382005e-02
6.7000000000000002e+00 +9.1453119936934399e+00 +0.0000000000000000e+00 +6.6999994642739402e+00 +1.1149386905444512e-02 -1.0332590868442280e+00 -5.8619487522589428e-02
6.7999999999999998e+00 +9.1452422124761892e+00 +0.0000000000000000e+00 +6.7999994399263999e+00 +1.1149196461451946e-02 -1.0332572477295991e+00 -5.8617315784006724e-02
6.9000000000000004e+00 +9.1451713974618905e+00 +0.0000000000000000e+00 +6.8999994148521200e+00 +1.1149010625901311e-02 -1.0332554309605435e+00 -5.8615183986429960e-02
7.0000000000000000e+00 +9.1450995486523308e+00 +0.0000000000000000e+00 +6.9999993890404202e+00 +1.1148828925119368e-02 -1.0332536371169836e+00 -5.8613091740498849e-02
7.0999999999999996e+00 +9.1450266660474906e+00 +0.0000000000000000e+00 +7.0999993624805997e+00 +1.1148650885612836e-02 -1.0332518667782262e+00 -5.8611038656692573e-02
7.2000000000000002e+00 +9.1449527496438208e+00 +0.0000000000000000e+00 +7.1999993351619702e+00 +1.1148476034075904e-02 -1.0332501205229501e+00 -5.8609024345325035e-02
7.2999999999999998e+00 +9.1448777994484391e+00 +0.0000000000000000e+00 +7.2999993070738700e+00 +1.1148303897397361e-02 -1.0332483989291614e+00 -5.8607048416538507e-02
7.4000000000000004e+00 +9.1448018154560096e+00 +0.0000000000000000e+00 +7.3999992782055797e+00 +1.1148134002668732e-02 -1.0332467025742336e+00 -5.8605110480301079e-02
7.5000000000000000e+00 +9.1447247976682995e+00 +0.0000000000000000e+00 +7.4999992485464304e+00 +1.1147965877191244e-02 -1.0332450320348472e+00 -5.8603210146399784e-02
7.5999999999999996e+00 +9.1446467460835503e+00 +0.0000000000000000e+00 +7.5999992180857303e+00 +1.1147799048483625e-02 -1.0332433878870031e+00 -5.8601347024436728e-02
7.7000000000000002e+00 +9.1445676607035296e+00 +0.0000000000000000e+00 +7.6999991868127999e+00 +1.1147633044289382e-02 -1.0332417707059893e+00 -5.8599520723823420e-02
7.7999999999999998e+00 +9.1444875415300100e+00 +0.0000000000000000e+00 +7.7999991547169403e+00 +1.1147467392584433e-02 -1.0332401810663794e+00 -5.8597730853776328e-02
7.9000000000000004e+00 +9.1444063885594495e+00 +0.0000000000000000e+00 +7.8999991217874603e+00 +1.1147301621584723e-02 -1.0332386195420264e+00 -5.8595977023312519e-02
8.0000000000000000e+00 +9.1443242017936104e+00 +0.0000000000000000e+00 +7.9999990880136904e+00 +1.1147135259753423e-02 -1.0332370867060310e+00 -5.8594258841243620e-02
8.0999999999999996e+00 +9.1442409812307197e+00 +0.0000000000000000e+00 +8.0999990533849306e+00 +1.1146967835808680e-02 -1.0332355831307425e+00 -5.8592575916171855e-02
8.1999999999999993e+00 +9.1441567268743391e+00 +0.0000000000000000e+00 +8.1999990178904891e+00 +1.1146798878730838e-02 -1.0332341093877266e+00 -5.8590927856484190e-02
8.3000000000000007e+00 +9.1440714387209105e+00 +0.0000000000000000e+00 +8.2999989815196997e+00 +1.1146627917770291e-02 -1.0332326660477831e+00 -5.8589314270348837e-02
8.4000000000000004e+00 +9.1439851167722104e+00 +0.0000000000000000e+00 +8.3999989442618492e+00 +1.1146454482454608e-02 -1.0332312536809001e+00 -5.8587734765708978e-02
8.5000000000000000e+00 +9.1438977610300203e+00 +0.0000000000000000e+00 +8.4999989061062706e+00 +1.1146278102596155e-02 -1.0332298728562552e+00 -5.8586188950278541e-02
8.5999999999999996e+00 +9.1438093714890005e+00 +0.0000000000000000e+00 +8.5999988670422596e+00 +1.1146098440371954e-02 -1.0332285240612742e+00 -5.8584676788573681e-02
8.6999999999999993e+00 +9.1437199481544802e+00 +0.0000000000000000e+00 +8.6999988270591402e+00 +1.1145915686414503e-02 -1.0332272074595745e+00 -5.8583199673324281e-02
8.8000000000000007e+00 +9.1436294910247007e+00 +0.0000000000000000e+00 +8.7999987861462294e+00 +1.1145730163326701e-02 -1.0332259231353369e+00 -5.8581759354813523e-02
8.9000000000000004e+00 +9.1435380000978608e+00 +0.0000000000000000e+00 +8.8999987442928301e+00 +1.1145542193558556e-02 -1.0332246711744977e+00 -5.8580357583900802e-02
9.0000000000000000e+00 +9.1434454753775292e+00 +0.0000000000000000e+00 +8.9999987014882503e+00 +1.1145352099401538e-02 -1.0332234516647976e+00 -5.8578996112039212e-02
9.0999999999999996e+00 +9.1433519168619295e+00 +0.0000000000000000e+00 +9.0999986577218195e+00 +1.1145160202983465e-02 -1.0332222646958646e+00 -5.8577676691294642e-02
9.1999999999999993e+00 +9.1432573245492801e+00 +0.0000000000000000e+00 +9.1999986129828297e+00 +1.1144966826262873e-02 -1.0332211103592639e+00 -5.8576401074363259e-02
9.3000000000000007e+00 +9.1431616984413608e+00 +0.0000000000000000e+00 +9.2999985672606194e+00 +1.1144772291023447e-02 -1.0332199887485445e+00 -5.8575171014589138e-02
9.4000000000000004e+00 +9.1430650385381700e+00 +0.0000000000000000e+00 +9.3999985205444805e+00 +1.1144576918868747e-02 -1.0332188999593110e+00 -5.8573988265982702e-02
9.5000000000000000e+00 +9.1429673448397004e+00 +0.0000000000000000e+00 +9.4999984728237195e+00 +1.1144381031216666e-02 -1.0332178440892816e+00 -5.8572854583238673e-02
9.5999999999999996e+00 +9.1428686173459699e+00 +0.0000000000000000e+00 +9.5999984240876799e+00 +1.1144184949294004e-02 -1.0332168212383448e+00 -5.8571771721753992e-02
9.6999999999999993e+00 +9.1427688560551807e+00 +0.0000000000000000e+00 +9.6999983743256504e+00 +1.1143988994131056e-02 -1.0332158315086217e+00 -5.8570741437646033e-02
9.8000000000000007e+00 +9.1426680609726798e+00 +0.0000000000000000e+00 +9.7999983235269408e+00 +1.1143793486555906e-02 -1.0332148750045060e+00 -5.8569765487769647e-02
9.9000000000000004e+00 +9.1425662320913492e+00 +0.0000000000000000e+00 +9.8999982716808805e+00 +1.1143598747189551e-02 -1.0332139518327688e+00 -5.8568845629737236e-02
1.0000000000000000e+01 +9.1424633694165305e+00 +0.0000000000000000e+00 +9.9999982187767706e+00 +1.1143405096439723e-02 -1.0332130621025566e+00 -5.8567983621934085e-02
1.0100000000000000e+01 +9.1423594729446602e+00 +0.0000000000000000e+00 +1.0099998164803900e+01 +1.1143212854496083e-02 -1.0332122059255029e+00 -5.8567181223538663e-02
1.0199999999999999e+01 +9.1422545426793000e+00 +0.0000000000000000e+00 +1.0199998109751700e+01 +1.1143022341324265e-02 -1.0332113834157486e+00 -5.8566440194538827e-02
1.0300000000000001e+01 +9.1421485786168795e+00 +0.0000000000000000e+00 +1.0299998053609301e+01 +1.1142833876660915e-02 -1.0332105946900347e+00 -5.8565762295751507e-02
1.0400000000000000e+01 +9.1420415807609707e+00 +0.0000000000000000e+00 +1.0399997996366100e+01 +1.1142647780007790e-02 -1.0332098398677265e+00 -5.8565149288838964e-02
1.0500000000000000e+01 +9.1419335491080194e+00 +0.0000000000000000e+00 +1.0499997938011500e+01 +1.1142464370626741e-02 -1.0332091190709063e+00 -5.8564602936328473e-02
1.0600000000000000e+01 +9.1418244836597893e+00 +0.0000000000000000e+00 +1.0599997878534600e+01 +1.1142283902200475e-02 -1.0332084326927349e+00 -5.8564124603041438e-02
1.0699999999999999e+01 +9.1417143844180693e+00 +0.0000000000000000e+00 +1.0699997817925000e+01 +1.1142106366926386e-02 -1.0332077822014218e+00 -5.8563714059893350e-02
1.0800000000000001e+01 +9.1416032513792906e+00 +0.0000000000000000e+00 +1.0799997756171701e+01 +1.1141931691725764e-02 -1.0332071693332199e+00 -5.8563370679086568e-02
1.0900000000000000e+01 +9.1414910845470292e+00 +0.0000000000000000e+00 +1.0899997693264300e+01 +1.1141759803616121e-02 -1.0332065958237195e+00 -5.8563093832650230e-02
1.1000000000000000e+01 +9.1413778839177091e+00 +0.0000000000000000e+00 +1.0999997629191901e+01 +1.1141590629714300e-02 -1.0332060634078655e+00 -5.8562882892434796e-02
1.1100000000000000e+01 +9.1412636494931299e+00 +0.0000000000000000e+00 +1.1099997563943900e+01 +1.1141424097238778e-02 -1.0332055738199020e+00 -5.8562737230103329e-02
1.1199999999999999e+01 +9.1411483812750394e+00 +0.0000000000000000e+00 +1.1199997497509599e+01 +1.1141260133512462e-02 -1.0332051287933637e+00 -5.8562656217124844e-02
1.1300000000000001e+01 +9.1410320792599205e+00 +0.0000000000000000e+00 +1.1299997429878401e+01 +1.1141098665965549e-02 -1.0332047300610676e+00 -5.8562639224767808e-02
1.1400000000000000e+01 +9.1409147434512903e+00 +0.0000000000000000e+00 +1.1399997361039500e+01 +1.1140939622137802e-02 -1.0332043793550585e+00 -5.8562685624091448e-02
1.1500000000000000e+01 +9.1407963738456193e+00 +0.0000000000000000e+00 +1.1499997290982201e+01 +1.1140782929681644e-02 -1.0332040784066221e+00 -5.8562794785940148e-02
1.1600000000000000e+01 +9.1406769704464494e+00 +0.0000000000000000e+00 +1.1599997219695799e+01 +1.1140628516364397e-02 -1.0332038289462289e+00 -5.8562966080934656e-02
1.1699999999999999e+01 +9.1405565332520098e+00 +0.0000000000000000e+00 +1.1699997147169800e+01 +1.1140476310071328e-02 -1.0332036327035417e+00 -5.8563198879466288e-02
1.1800000000000001e+01 +9.1404350622623003e+00 +0.0000000000000000e+00 +1.1799997073393300e+01 +1.1140326238808087e-02 -1.0332034914073744e+00 -5.8563492551688814e-02
