# field on trajectory
# s[mm] rx[mm] ry[mm] rz[mm] bx[T] by[T] bz[T]
-0.0000000000000000e+00 +9.1076201166355002e+00 +0.0000000000000000e+00 -0.0000000000000000e+00 +1.1215206345015560e-02 -1.0332057776151904e+00 -5.8762863234551002e-02
-1.0005104645227200e-01 +9.1076196006322601e+00 +0.0000000000000000e+00 -1.0005104645049701e-01 +1.1215391725935305e-02 -1.0332031580705408e+00 -5.8763202094789566e-02
-2.0010209290454301e-01 +9.1076180526189905e+00 +0.0000000000000000e+00 -2.0010209289035000e-01 +1.1215578270017210e-02 -1.0332004993085460e+00 -5.8763541431282956e-02
-3.0015313935681498e-01 +9.1076154725992300e+00 +0.0000000000000000e+00 -3.0015313930891202e-01 +1.1215766029639305e-02 -1.0331978074406165e+00 -5.8763881777296356e-02
-4.0020418580908601e-01 +9.1076118605712200e+00 +0.0000000000000000e+00 -4.0020418569554000e-01 +1.1215955057158561e-02 -1.0331950885780690e+00 -5.8764223666075380e-02
-5.0025523226135804e-01 +9.1076072165331805e+00 +0.0000000000000000e+00 -5.0025523203958799e-01 +1.1216145404907271e-02 -1.0331923488321531e+00 -5.8764567630852214e-02
-6.0030627871362996e-01 +9.1076015404886608e+00 +0.0000000000000000e+00 -6.0030627833041095e-01 +1.1216337125189395e-02 -1.0331895943140772e+00 -5.8764914204851533e-02
-7.0035732516590099e-01 +9.1075948324376501e+00 +0.0000000000000000e+00 -7.0035732455736299e-01 +1.1216530270277497e-02 -1.0331868311350723e+00 -5.8765263921298265e-02
-8.0040837161817302e-01 +9.1075870923766207e+00 +0.0000000000000000e+00 -8.0040837070980198e-01 +1.1216724892409250e-02 -1.0331840654064235e+00 -5.8765617313423994e-02
-9.0045941807044405e-01 +9.1075783203073204e+00 +0.0000000000000000e+00 -9.0045941677707997e-01 +1.1216921043783714e-02 -1.0331813032394956e+00 -5.8765974914472795e-02
-1.0005104645227201e+00 +9.1075685162297706e+00 +0.0000000000000000e+00 -1.0005104627485499e+00 +1.1217118776558135e-02 -1.0331785507457836e+00 -5.8766337257708468e-02
-1.1005615109749900e+00 +9.1075576801457405e+00 +0.0000000000000000e+00 -1.1005615086135800e+00 +1.1217318142844395e-02 -1.0331758140369445e+00 -5.8766704876420876e-02
-1.2006125574272599e+00 +9.1075458120516792e+00 +0.0000000000000000e+00 -1.2006125543615100e+00 +1.1217519194705825e-02 -1.0331730992248545e+00 -5.8767078303933358e-02
-1.3006636038795301e+00 +9.1075329119511395e+00 +0.0000000000000000e+00 -1.3006635999817000e+00 +1.1217721984153304e-02 -1.0331704124216163e+00 -5.8767458073607774e-02
-1.4007146503318000e+00 +9.1075189798405596e+00 +0.0000000000000000e+00 -1.4007146454635000e+00 +1.1217926563142366e-02 -1.0331677597396323e+00 -5.8767844718852963e-02
-1.5007656967840699e+00 +9.1075040157234994e+00 +0.0000000000000000e+00 -1.5007656907962801e+00 +1.1218132983569195e-02 -1.0331651472916099e+00 -5.8768238773129471e-02
-1.6008167432363500e+00 +9.1074880195981898e+00 +0.0000000000000000e+00 -1.6008167359693799e+00 +1.1218341249701027e-02 -1.0331625792458197e+00 -5.8768640543612284e-02
-1.7008677896886200e+00 +9.1074709914646199e+00 +0.0000000000000000e+00 -1.7008677809721600e+00 +1.1218551179815824e-02 -1.0331600521681246e+00 -5.8769049452673007e-02
-1.8009188361408901e+00 +9.1074529313228005e+00 +0.0000000000000000e+00 -1.8009188257939699e+00 +1.1218762546763834e-02 -1.0331575607669521e+00 -5.8769464706464804e-02
-1.9009698825931600e+00 +9.1074338391727103e+00 +0.0000000000000000e+00 -1.9009698704241800e+00 +1.1218975123412862e-02 -1.0331550997507835e+00 -5.8769885511092683e-02
-2.0010209290454299e+00 +9.1074137150161505e+00 +0.0000000000000000e+00 -2.0010209148521301e+00 +1.1219188682656036e-02 -1.0331526638281325e+00 -5.8770311072604033e-02
-2.1010719754977001e+00 +9.1073925588495506e+00 +0.0000000000000000e+00 -2.1010719590671898e+00 +1.1219402997419945e-02 -1.0331502477075520e+00 -5.8770740596980064e-02
-2.2011230219499698e+00 +9.1073703706746993e+00 +0.0000000000000000e+00 -2.2011230030586999e+00 +1.1219617840672092e-02 -1.0331478460975916e+00 -5.8771173290125385e-02
-2.3011740684022501e+00 +9.1073471504933696e+00 +0.0000000000000000e+00 -2.3011740468160200e+00 +1.1219832985428942e-02 -1.0331454537067966e+00 -5.8771608357859370e-02
-2.4012251148545198e+00 +9.1073228983037797e+00 +0.0000000000000000e+00 -2.4012250903285000e+00 +1.1220048204763907e-02 -1.0331430652437044e+00 -5.8772045005907082e-02
-2.5012761613067900e+00 +9.1072976141041497e+00 +0.0000000000000000e+00 -2.5012761335854998e+00 +1.1220263271815063e-02 -1.0331406754168184e+00 -5.8772482439889813e-02
-2.6013272077590601e+00 +9.1072712978980501e+00 +0.0000000000000000e+00 -2.6013271765763899e+00 +1.1220477959792806e-02 -1.0331382789345840e+00 -5.8772919865315028e-02
-2.7013782542113298e+00 +9.1072439496836903e+00 +0.0000000000000000e+00 -2.7013782192905000e+00 +1.1220692041988112e-02 -1.0331358705053992e+00 -5.8773356487568394e-02
-2.8014293006636000e+00 +9.1072155694610704e+00 +0.0000000000000000e+00 -2.8014292617172001e+00 +1.1220905291780115e-02 -1.0331334448375817e+00 -5.8773791511903602e-02
-2.9014803471158799e+00 +9.1071861572302009e+00 +0.0000000000000000e+00 -2.9014803038458301e+00 +1.1221117482644035e-02 -1.0331309966393620e+00 -5.8774224143433348e-02
-3.0015313935681500e+00 +9.1071557129910694e+00 +0.0000000000000000e+00 -3.0015313456657702e+00 +1.1221328388159035e-02 -1.0331285206188672e+00 -5.8774653587120043e-02
-3.1015824400204202e+00 +9.1071242367454595e+00 +0.0000000000000000e+00 -3.1015823871663502e+00 +1.1221537782015990e-02 -1.0331260114841023e+00 -5.8775079047766320e-02
-3.2016334864726899e+00 +9.1070917284915893e+00 +0.0000000000000000e+00 -3.2016334283369399e+00 +1.1221745438025578e-02 -1.0331234639429496e+00 -5.8775499730006300e-02
-3.3016845329249600e+00 +9.1070581882277004e+00 +0.0000000000000000e+00 -3.3016844691668901e+00 +1.1221951130125966e-02 -1.0331208727031473e+00 -5.8775914838295987e-02
-3.4017355793772301e+00 +9.1070236159573206e+00 +0.0000000000000000e+00 -3.4017355096455599e+00 +1.1222154632390504e-02 -1.0331182324722605e+00 -5.8776323576903391e-02
-3.5017866258295101e+00 +9.1069880116786806e+00 +0.0000000000000000e+00 -3.5017865497623002e+00 +1.1222355719035841e-02 -1.0331155379576984e+00 -5.8776725149900906e-02
-3.6018376722817802e+00 +9.1069513753917892e+00 +0.0000000000000000e+00 -3.6018375895064700e+00 +1.1222554145024476e-02 -1.0331127849139381e+00 -5.8777118862631046e-02
-3.7018887187340499e+00 +9.1069137070966395e+00 +0.0000000000000000e+00 -3.7018886288674100e+00 +1.1222749591842099e-02 -1.0331099730655879e+00 -5.8777504405122478e-02
-3.8019397651863200e+00 +9.1068750067950095e+00 +0.0000000000000000e+00 -3.8019396678344899e+00 +1.1222941723534139e-02 -1.0331071030771235e+00 -5.8777881558793307e-02
-3.9019908116385902e+00 +9.1068352744833394e+00 +0.0000000000000000e+00 -3.9019907063970600e+00 +1.1223130204121495e-02 -1.0331041756118999e+00 -5.8778250105342718e-02
-4.0020418580908599e+00 +9.1067945101634198e+00 +0.0000000000000000e+00 -4.0020417445444796e+00 +1.1223314697595554e-02 -1.0331011913320596e+00 -5.8778609826772861e-02
-4.1020929045431300e+00 +9.1067527138370199e+00 +0.0000000000000000e+00 -4.1020927822660997e+00 +1.1223494867913755e-02 -1.0330981508984720e+00 -5.8778960505412092e-02
-4.2021439509954099e+00 +9.1067098855023705e+00 +0.0000000000000000e+00 -4.2021438195512797e+00 +1.1223670378995165e-02 -1.0330950549706737e+00 -5.8779301923938390e-02
-4.3021949974476801e+00 +9.1066660251594502e+00 +0.0000000000000000e+00 -4.3021948563893604e+00 +1.1223840894715635e-02 -1.0330919042067823e+00 -5.8779633865401471e-02
-4.4022460438999502e+00 +9.1066211328065094e+00 +0.0000000000000000e+00 -4.4022458927697201e+00 +1.1224006078903394e-02 -1.0330886992634389e+00 -5.8779956113246129e-02
-4.5022970903522204e+00 +9.1065752084488594e+00 +0.0000000000000000e+00 -4.5022969286816901e+00 +1.1224165595334084e-02 -1.0330854407957126e+00 -5.8780268451334140e-02
-4.6023481368044896e+00 +9.1065282520811692e+00 +0.0000000000000000e+00 -4.6023479641146396e+00 +1.1224319107726808e-02 -1.0330821294570742e+00 -5.8780570663968960e-02
-4.7023991832567598e+00 +9.1064802637070095e+00 +0.0000000000000000e+00 -4.7023989990579196e+00 +1.1224466279738846e-02 -1.0330787658992788e+00 -5.8780862535916488e-02
-4.8024502297090397e+00 +9.1064312433245895e+00 +0.0000000000000000e+00 -4.8024500335008904e+00 +1.1224606774961563e-02 -1.0330753507723296e+00 -5.8781143852429572e-02
-4.9025012761613098e+00 +9.1063811909321402e+00 +0.0000000000000000e+00 -4.9025010674329002e+00 +1.1224740256915607e-02 -1.0330718847243947e+00 -5.8781414399270107e-02
-5.0025523226135800e+00 +9.1063301065332105e+00 +0.0000000000000000e+00 -5.0025521008432996e+00 +1.1224866389046141e-02 -1.0330683684017234e+00 -5.8781673962731505e-02
-5.1026033690658501e+00 +9.1062779901260207e+00 +0.0000000000000000e+00 -5.1026031337214599e+00 +1.1224984834718609e-02 -1.0330648024486022e+00 -5.8781922329662541e-02
-5.2026544155181202e+00 +9.1062248417123506e+00 +0.0000000000000000e+00 -5.2026541660567203e+00 +1.1225095257213831e-02 -1.0330611875072635e+00 -5.8782159287489415e-02
-5.3027054619703904e+00 +9.1061706612886404e+00 +0.0000000000000000e+00 -5.3027051978384501e+00 +1.1225197319723710e-02 -1.0330575242178341e+00 -5.8782384624239362e-02
-5.4027565084226703e+00 +9.1061154488584606e+00 +0.0000000000000000e+00 -5.4027562290559903e+00 +1.1225290685346211e-02 -1.0330538132182376e+00 -5.8782598128562479e-02
-5.5028075548749404e+00 +9.1060592044200206e+00 +0.0000000000000000e+00 -5.5028072596986997e+00 +1.1225375017085355e-02 -1.0330500551441677e+00 -5.8782799589766378e-02
-5.6028586013272097e+00 +9.1060019279733204e+00 +0.0000000000000000e+00 -5.6028582897559396e+00 +1.1225450183431905e-02 -1.0330462513900358e+00 -5.8782989328461377e-02
-5.7029096477794798e+00 +9.1059436195183707e+00 +0.0000000000000000e+00 -5.7029093192170599e+00 +1.1225516808870102e-02 -1.0330424061479506e+00 -5.8783169616919005e-02
-5.8029606942317500e+00 +9.1058842790551608e+00 +0.0000000000000000e+00 -5.8029603480714202e+00 +1.1225575691714045e-02 -1.0330385242546449e+00 -5.8783343175576666e-02
-5.9030117406840201e+00 +9.1058239065854707e+00 +0.0000000000000000e+00 -5.9030113763083696e+00 +1.1225627630386491e-02 -1.0330346105487367e+00 -5.8783512724503675e-02
-6.0030627871363000e+00 +9.1057625021075204e+00 +0.0000000000000000e+00 -6.0030624039172604e+00 +1.1225673423423862e-02 -1.0330306698708589e+00 -5.8783680983378689e-02
-6.1031138335885702e+00 +9.1057000656213205e+00 +0.0000000000000000e+00 -6.1031134308874604e+00 +1.1225713869480781e-02 -1.0330267070637595e+00 -5.8783850671465916e-02
-6.2031648800408403e+00 +9.1056365971268605e+00 +0.0000000000000000e+00 -6.2031644572083096e+00 +1.1225749767334980e-02 -1.0330227269724228e+00 -5.8784024507592021e-02
-6.3032159264931096e+00 +9.1055720966241402e+00 +0.0000000000000000e+00 -6.3032154828691800e+00 +1.1225781915892038e-02 -1.0330187344441777e+00 -5.8784205210122932e-02
-6.4032669729453797e+00 +9.1055065641149504e+00 +0.0000000000000000e+00 -6.4032665078594100e+00 +1.1225811114190140e-02 -1.0330147343288130e+00 -5.8784395496940478e-02
-6.5033180193976499e+00 +9.1054399995957205e+00 +0.0000000000000000e+00 -6.5033175321683601e+00 +1.1225838161405065e-02 -1.0330107314787069e+00 -5.8784598085419838e-02
-6.6033690658499298e+00 +9.1053724030699996e+00 +0.0000000000000000e+00 -6.6033685557853898e+00 +1.1225863856854560e-02 -1.0330067307489097e+00 -5.8784815692405006e-02
-6.7034201123021999e+00 +9.1053037745378091e+00 +0.0000000000000000e+00 -6.7034195786998501e+00 +1.1225889000003514e-02 -1.0330027369972854e+00 -5.8785051034186679e-02
-6.8034711587544701e+00 +9.1052341139955892e+00 +0.0000000000000000e+00 -6.8034706009011003e+00 +1.1225914390468675e-02 -1.0329987550846242e+00 -5.8785306826478957e-02
-6.9035222052067402e+00 +9.1051634214468908e+00 +0.0000000000000000e+00 -6.9035216223784897e+00 +1.1225940828023129e-02 -1.0329947898747334e+00 -5.8785585784395133e-02
-7.0035732516590103e+00 +9.1050916968899305e+00 +0.0000000000000000e+00 -7.0035726431213803e+00 +1.1225969112601463e-02 -1.0329908462345776e+00 -5.8785890622425521e-02
-7.1036242981112796e+00 +9.1050189403247099e+00 +0.0000000000000000e+00 -7.1036236631191203e+00 +1.1226000044304326e-02 -1.0329869290343801e+00 -5.8786224054413576e-02
-7.2036753445635497e+00 +9.1049451517530091e+00 +0.0000000000000000e+00 -7.2036746823610702e+00 +1.1226034423403176e-02 -1.0329830431477336e+00 -5.8786588793532629e-02
-7.3037263910158297e+00 +9.1048703311712806e+00 +0.0000000000000000e+00 -7.3037257008365799e+00 +1.1226073050345352e-02 -1.0329791934517329e+00 -5.8786987552263338e-02
-7.4037774374680998e+00 +9.1047944785830701e+00 +0.0000000000000000e+00 -7.4037767185350001e+00 +1.1226116725758371e-02 -1.0329753848270589e+00 -5.8787423042369037e-02
-7.5038284839203699e+00 +9.1047175939865994e+00 +0.0000000000000000e+00 -7.5038277354457001e+00 +1.1226166250443294e-02 -1.0329716221580509e+00 -5.8787897974816074e-02
-7.6038795303726401e+00 +9.1046396773836609e+00 +0.0000000000000000e+00 -7.6038787515580202e+00 +1.1226222188253259e-02 -1.0329679089386838e+00 -5.8788413904639257e-02
-7.7039305768249102e+00 +9.1045607287706805e+00 +0.0000000000000000e+00 -7.7039297668613296e+00 +1.1226284257208776e-02 -1.0329642436919293e+00 -5.8788968266011807e-02
-7.8039816232771804e+00 +9.1044807481512198e+00 +0.0000000000000000e+00 -7.8039807813449800e+00 +1.1226351986552644e-02 -1.0329606238312043e+00 -5.8789557574865543e-02
-7.9040326697294496e+00 +9.1043997355235007e+00 +0.0000000000000000e+00 -7.9040317949983097e+00 +1.1226424905219502e-02 -1.0329570467682563e+00 -5.8790178347284706e-02
-8.0040837161817304e+00 +9.1043176908892995e+00 +0.0000000000000000e+00 -8.0040828078106898e+00 +1.1226502541824251e-02 -1.0329535099130698e+00 -5.8790827099512596e-02
-8.1041347626340006e+00 +9.1042346142468507e+00 +0.0000000000000000e+00 -8.1041338197714801e+00 +1.1226584424651111e-02 -1.0329500106738165e+00 -5.8791500347959894e-02
-8.2041858090862707e+00 +9.1041505055961398e+00 +0.0000000000000000e+00 -8.2041848308700196e+00 +1.1226670081642182e-02 -1.0329465464567753e+00 -5.8792194609211756e-02
-8.3042368555385409e+00 +9.1040653649371706e+00 +0.0000000000000000e+00 -8.3042358410956805e+00 +1.1226759040386289e-02 -1.0329431146662624e+00 -5.8792906400035601e-02
-8.4042879019908092e+00 +9.1039791922699393e+00 +0.0000000000000000e+00 -8.4042868504377992e+00 +1.1226850828107751e-02 -1.0329397127045683e+00 -5.8793632237388600e-02
-8.5043389484430794e+00 +9.1038919875980202e+00 +0.0000000000000000e+00 -8.5043378588857408e+00 +1.1226944971655026e-02 -1.0329363379718752e+00 -5.8794368638425090e-02
-8.6043899948953602e+00 +9.1038037509160592e+00 +0.0000000000000000e+00 -8.6043888664288701e+00 +1.1227040997489942e-02 -1.0329329878662203e+00 -5.8795112120505380e-02
-8.7044410413476303e+00 +9.1037144822276108e+00 +0.0000000000000000e+00 -8.7044398730565202e+00 +1.1227138431675811e-02 -1.0329296597833839e+00 -5.8795859201201596e-02
-8.8044920877999004e+00 +9.1036241815309200e+00 +0.0000000000000000e+00 -8.8044908787580596e+00 +1.1227236799866735e-02 -1.0329263511168543e+00 -5.8796606398306708e-02
-8.9045431342521706e+00 +9.1035328488259601e+00 +0.0000000000000000e+00 -8.9045418835228496e+00 +1.1227335627296098e-02 -1.0329230592577403e+00 -5.8797350229841519e-02
-9.0045941807044407e+00 +9.1034404841127508e+00 +0.0000000000000000e+00 -9.0045928873402303e+00 +1.1227434438765426e-02 -1.0329197815947080e+00 -5.8798087214062440e-02
-9.1046452271567109e+00 +9.1033470873930593e+00 +0.0000000000000000e+00 -9.1046438901995597e+00 +1.1227532758633078e-02 -1.0329165155139068e+00 -5.8798813869468933e-02
-9.2046962736089899e+00 +9.1032526586651095e+00 +0.0000000000000000e+00 -9.2046948920902096e+00 +1.1227630110803230e-02 -1.0329132583989140e+00 -5.8799526714811812e-02
-9.3047473200612600e+00 +9.1031571979306793e+00 +0.0000000000000000e+00 -9.3047458930015097e+00 +1.1227726018714376e-02 -1.0329100076306448e+00 -5.8800222269100089e-02
-9.4047983665135302e+00 +9.1030607051879997e+00 +0.0000000000000000e+00 -9.4047968929228301e+00 +1.1227820005328354e-02 -1.0329067605873055e+00 -5.8800897051609381e-02
-9.5048494129658003e+00 +9.1029631804370599e+00 +0.0000000000000000e+00 -9.5048478918435304e+00 +1.1227911593138197e-02 -1.0329035146445285e+00 -5.8801547581987572e-02
-9.6049004594180705e+00 +9.1028646236796291e+00 +0.0000000000000000e+00 -9.6048988897529508e+00 +1.1228000499061109e-02 -1.0329002694134761e+00 -5.8802171377079861e-02
-9.7049515058703406e+00 +9.1027650349139595e+00 +0.0000000000000000e+00 -9.7049498866404598e+00 +1.1228087114273222e-02 -1.0328970322491713e+00 -5.8802769403436254e-02
-9.8050025523226108e+00 +9.1026644141418007e+00 +0.0000000000000000e+00 -9.8050008824953991e+00 +1.1228171976029922e-02 -1.0328938121821534e+00 -5.8803343373418158e-02
-9.9050535987748898e+00 +9.1025627613596107e+00 +0.0000000000000000e+00 -9.9050518773071392e+00 +1.1228255621967288e-02 -1.0328906182449236e+00 -5.8803894999664721e-02
-1.0005104645227201e+01 +9.1024600765709298e+00 +0.0000000000000000e+00 -1.0005102871065001e+01 +1.1228338590113199e-02 -1.0328874594719726e+00 -5.8804425995098317e-02
-1.0105155691679400e+01 +9.1023563597757793e+00 +0.0000000000000000e+00 -1.0105153863758400e+01 +1.1228421418899296e-02 -1.0328843448998604e+00 -5.8804938072932599e-02
-1.0205206738131700e+01 +9.1022516109723703e+00 +0.0000000000000000e+00 -1.0205204855376600e+01 +1.1228504647172529e-02 -1.0328812835672700e+00 -5.8805432946679163e-02
-1.0305257784584001e+01 +9.1021458301607101e+00 +0.0000000000000000e+00 -1.0305255845909100e+01 +1.1228588814206561e-02 -1.0328782845150544e+00 -5.8805912330154003e-02
-1.0405308831036200e+01 +9.1020390173425607e+00 +0.0000000000000000e+00 -1.0405306835345099e+01 +1.1228674459713385e-02 -1.0328753567862947e+00 -5.8806377937484479e-02
-1.0505359877488500e+01 +9.1019311725161600e+00 +0.0000000000000000e+00 -1.0505357823674100e+01 +1.1228762123855034e-02 -1.0328725094263642e+00 -5.8806831483116537e-02
-1.0605410923940800e+01 +9.1018222956832808e+00 +0.0000000000000000e+00 -1.0605408810885301e+01 +1.1228852347254960e-02 -1.0328697514829734e+00 -5.8807274681821009e-02
-1.0705461970393101e+01 +9.1017123868421397e+00 +0.0000000000000000e+00 -1.0705459796968199e+01 +1.1228945671009830e-02 -1.0328670920062397e+00 -5.8807709248701122e-02
-1.0805513016845300e+01 +9.1016014459927401e+00 +0.0000000000000000e+00 -1.0805510781912000e+01 +1.1229042636700897e-02 -1.0328645400487313e+00 -5.8808136899198782e-02
-1.0905564063297600e+01 +9.1014894731368603e+00 +0.0000000000000000e+00 -1.0905561765706199e+01 +1.1229143786405590e-02 -1.0328621046655260e+00 -5.8808559349101466e-02
-1.1005615109749900e+01 +9.1013764682745109e+00 +0.0000000000000000e+00 -1.1005612748340100e+01 +1.1229249662709207e-02 -1.0328597949142706e+00 -5.8808978314549371e-02
-1.1105666156202100e+01 +9.1012624314038906e+00 +0.0000000000000000e+00 -1.1105663729803000e+01 +1.1229360808716485e-02 -1.0328576198552424e+00 -5.8809395512042409e-02
-1.1205717202654400e+01 +9.1011473625250208e+00 +0.0000000000000000e+00 -1.1205714710084401e+01 +1.1229477768063023e-02 -1.0328555885513941e+00 -5.8809812658446425e-02
-1.1305768249106700e+01 +9.1010312616396707e+00 +0.0000000000000000e+00 -1.1305765689173500e+01 +1.1229601084926868e-02 -1.0328537100684112e+00 -5.8810231471000257e-02
-1.1405819295559001e+01 +9.1009141287460693e+00 +0.0000000000000000e+00 -1.1405816667059700e+01 +1.1229731304040268e-02 -1.0328519934747793e+00 -5.8810653667323048e-02
-1.1505870342011200e+01 +9.1007959638459806e+00 +0.0000000000000000e+00 -1.1505867643732399e+01 +1.1229868970655405e-02 -1.0328504478409473e+00 -5.8811080965374740e-02
-1.1605921388463500e+01 +9.1006767669376405e+00 +0.0000000000000000e+00 -1.1605918619181001e+01 +1.1230014362722921e-02 -1.0328490770824696e+00 -5.8811514815655157e-02
-1.1705972434915800e+01 +9.1005565380228095e+00 +0.0000000000000000e+00 -1.1705969593394700e+01 +1.1230166859214194e-02 -1.0328478678007209e+00 -5.8811955769541756e-02
