# field on trajectory
# s[mm] rx[mm] ry[mm] rz[mm] bx[T] by[T] bz[T]
0.0000000000000000e+00 +9.1463000000000001e+00 +0.0000000000000000e+00 +0.0000000000000000e+00 +7.8452488749903362e-03 -1.0333862452325091e+00 -5.8603387079631857e-02
1.0000000000000001e-01 +9.1462994836644018e+00 +0.0000000000000000e+00 +9.9999999998222636e-02 +7.8452398799254367e-03 -1.0333857132502855e+00 -5.8603840690654871e-02
2.0000000000000001e-01 +9.1462979346579658e+00 +0.0000000000000000e+00 +1.9999999998578119e-01 +7.8452175071771872e-03 -1.0333851519426365e+00 -5.8604281196028098e-02
3.0000000000000004e-01 +9.1462953529812516e+00 +0.0000000000000000e+00 +2.9999999995201160e-01 +7.8451802157241905e-03 -1.0333845731933773e+00 -5.8604708991311989e-02
4.0000000000000002e-01 +9.1462917386348384e+00 +0.0000000000000000e+00 +3.9999999988624979e-01 +7.8451264645438036e-03 -1.0333839888864569e+00 -5.8605124472174822e-02
5.0000000000000000e-01 +9.1462870916193086e+00 +0.0000000000000000e+00 +4.9999999977783172e-01 +7.8450547126250516e-03 -1.0333834109060340e+00 -5.8605528034404303e-02
5.9999999999999998e-01 +9.1462814119352398e+00 +0.0000000000000000e+00 +5.9999999961609329e-01 +7.8449640031222102e-03 -1.0333828494166071e+00 -5.8605920275589841e-02
6.9999999999999996e-01 +9.1462746995831932e+00 +0.0000000000000000e+00 +6.9999999939037061e-01 +7.8448557157884281e-03 -1.0333823077032345e+00 -5.8606302600117711e-02
7.9999999999999993e-01 +9.1462669545637105e+00 +0.0000000000000000e+00 +7.9999999908999964e-01 +7.8447318145638909e-03 -1.0333817873312892e+00 -5.8606676614106359e-02
8.9999999999999991e-01 +9.1462581768773124e+00 +0.0000000000000000e+00 +8.9999999870431646e-01 +7.8445942634464312e-03 -1.0333812898663950e+00 -5.8607043923709357e-02
9.9999999999999989e-01 +9.1462483665244960e+00 +0.0000000000000000e+00 +9.9999999822265706e-01 +7.8444450265029927e-03 -1.0333808168744330e+00 -5.8607406135094103e-02
1.0999999999999999e+00 +9.1462375235057358e+00 +0.0000000000000000e+00 +1.0999999976343575e+00 +7.8442860678811475e-03 -1.0333803699215598e+00 -5.8607764854420867e-02
1.2000000000000000e+00 +9.1462256478214794e+00 +0.0000000000000000e+00 +1.1999999969287538e+00 +7.8441193518205814e-03 -1.0333799505742092e+00 -5.8608121687821597e-02
1.3000000000000000e+00 +9.1462127394721477e+00 +0.0000000000000000e+00 +1.2999999960951820e+00 +7.8439468426645849e-03 -1.0333795603991125e+00 -5.8608478241378874e-02
1.4000000000000001e+00 +9.1461987984581317e+00 +0.0000000000000000e+00 +1.3999999951229782e+00 +7.8437705048715334e-03 -1.0333792009633009e+00 -5.8608836121104749e-02
1.5000000000000002e+00 +9.1461838247797917e+00 +0.0000000000000000e+00 +1.4999999940014788e+00 +7.8435923030264008e-03 -1.0333788738341216e+00 -5.8609196932919667e-02
1.6000000000000003e+00 +9.1461678184374549e+00 +0.0000000000000000e+00 +1.5999999927200195e+00 +7.8434142018522328e-03 -1.0333785805792477e+00 -5.8609562282631381e-02
1.7000000000000004e+00 +9.1461507794314176e+00 +0.0000000000000000e+00 +1.6999999912679364e+00 +7.8432381662216378e-03 -1.0333783227666882e+00 -5.8609933775913794e-02
1.8000000000000005e+00 +9.1461327077619377e+00 +0.0000000000000000e+00 +1.7999999896345660e+00 +7.8430661611682880e-03 -1.0333781019647976e+00 -5.8610313018285884e-02
1.9000000000000006e+00 +9.1461136034292387e+00 +0.0000000000000000e+00 +1.8999999878092440e+00 +7.8429001518983861e-03 -1.0333779197422903e+00 -5.8610701615090570e-02
2.0000000000000004e+00 +9.1460934664335038e+00 +0.0000000000000000e+00 +1.9999999857813067e+00 +7.8427421038021784e-03 -1.0333777776682482e+00 -5.8611101171473647e-02
2.1000000000000005e+00 +9.1460722967748787e+00 +0.0000000000000000e+00 +2.0999999835400902e+00 +7.8425939824654164e-03 -1.0333776773121326e+00 -5.8611513292362548e-02
2.2000000000000006e+00 +9.1460500944534644e+00 +0.0000000000000000e+00 +2.1999999810749307e+00 +7.8424577536808596e-03 -1.0333776202437956e+00 -5.8611939582445392e-02
2.3000000000000007e+00 +9.1460268594693197e+00 +0.0000000000000000e+00 +2.2999999783751637e+00 +7.8423353834597368e-03 -1.0333776080334893e+00 -5.8612381646149743e-02
2.4000000000000008e+00 +9.1460025918224606e+00 +0.0000000000000000e+00 +2.3999999754301258e+00 +7.8422288380432543e-03 -1.0333776422518792e+00 -5.8612841087621541e-02
2.5000000000000009e+00 +9.1459772915128532e+00 +0.0000000000000000e+00 +2.4999999722291530e+00 +7.8421400839140433e-03 -1.0333777244700519e+00 -5.8613319510703914e-02
2.6000000000000010e+00 +9.1459509585404195e+00 +0.0000000000000000e+00 +2.5999999687615816e+00 +7.8420704057300533e-03 -1.0333778549770773e+00 -5.8613817687035608e-02
2.7000000000000011e+00 +9.1459235929050333e+00 +0.0000000000000000e+00 +2.6999999650167470e+00 +7.8420183599218641e-03 -1.0333780289326127e+00 -5.8614333060511614e-02
2.8000000000000012e+00 +9.1458951946065223e+00 +0.0000000000000000e+00 +2.7999999609839858e+00 +7.8419818206020477e-03 -1.0333782402141913e+00 -5.8614862243142711e-02
2.9000000000000012e+00 +9.1458657636446805e+00 +0.0000000000000000e+00 +2.8999999566526338e+00 +7.8419586615625075e-03 -1.0333784826996628e+00 -5.8615401846981663e-02
3.0000000000000013e+00 +9.1458353000192680e+00 +0.0000000000000000e+00 +2.9999999520120268e+00 +7.8419467562352921e-03 -1.0333787502671936e+00 -5.8615948484138120e-02
3.1000000000000014e+00 +9.1458038037300220e+00 +0.0000000000000000e+00 +3.0999999470515012e+00 +7.8419439776533911e-03 -1.0333790367952616e+00 -5.8616498766793035e-02
3.2000000000000015e+00 +9.1457712747766582e+00 +0.0000000000000000e+00 +3.1999999417603928e+00 +7.8419481984115750e-03 -1.0333793361626600e+00 -5.8617049307213669e-02
3.3000000000000016e+00 +9.1457377131588835e+00 +0.0000000000000000e+00 +3.2999999361280374e+00 +7.8419572906271856e-03 -1.0333796422484902e+00 -5.8617596717767929e-02
3.4000000000000017e+00 +9.1457031188763960e+00 +0.0000000000000000e+00 +3.3999999301437711e+00 +7.8419691259009432e-03 -1.0333799489321640e+00 -5.8618137610939258e-02
3.5000000000000018e+00 +9.1456674919288918e+00 +0.0000000000000000e+00 +3.4999999237969295e+00 +7.8419815752777868e-03 -1.0333802500934015e+00 -5.8618668599341305e-02
3.6000000000000019e+00 +9.1456308323160762e+00 +0.0000000000000000e+00 +3.5999999170768486e+00 +7.8419925092076490e-03 -1.0333805396122278e+00 -5.8619186295732470e-02
3.7000000000000020e+00 +9.1455931400376631e+00 +0.0000000000000000e+00 +3.6999999099728647e+00 +7.8419997975063046e-03 -1.0333808113689738e+00 -5.8619687313030848e-02
3.8000000000000020e+00 +9.1455544150933861e+00 +0.0000000000000000e+00 +3.7999999024743136e+00 +7.8420013093161486e-03 -1.0333810592442723e+00 -5.8620168264328629e-02
3.9000000000000021e+00 +9.1455146574830017e+00 +0.0000000000000000e+00 +3.8999998945705312e+00 +7.8419949130670366e-03 -1.0333812771190587e+00 -5.8620625762907053e-02
4.0000000000000018e+00 +9.1454738672062970e+00 +0.0000000000000000e+00 +3.9999998862508530e+00 +7.8419784764370750e-03 -1.0333814588745696e+00 -5.8621056422250954e-02
4.1000000000000014e+00 +9.1454320442630941e+00 +0.0000000000000000e+00 +4.0999998775046151e+00 +7.8419498663134558e-03 -1.0333815983923382e+00 -5.8621456856063521e-02
4.2000000000000011e+00 +9.1453891886532599e+00 +0.0000000000000000e+00 +4.1999998683211537e+00 +7.8419069487532401e-03 -1.0333816895541967e+00 -5.8621823678281081e-02
4.3000000000000007e+00 +9.1453453003767091e+00 +0.0000000000000000e+00 +4.2999998586898052e+00 +7.8418475889442084e-03 -1.0333817262422738e+00 -5.8622153503087714e-02
4.4000000000000004e+00 +9.1453003794334098e+00 +0.0000000000000000e+00 +4.3999998485999043e+00 +7.8417696511656389e-03 -1.0333817023389911e+00 -5.8622442944929978e-02
4.5000000000000000e+00 +9.1452544258233903e+00 +0.0000000000000000e+00 +4.4999998380407877e+00 +7.8416709987491409e-03 -1.0333816117270644e+00 -5.8622688618531753e-02
4.5999999999999996e+00 +9.1452074395467466e+00 +0.0000000000000000e+00 +4.5999998270017919e+00 +7.8415501293110177e-03 -1.0333814514659383e+00 -5.8622888119046583e-02
4.6999999999999993e+00 +9.1451594206036440e+00 +0.0000000000000000e+00 +4.6999998154722524e+00 +7.8414080810980079e-03 -1.0333812313201198e+00 -5.8623042962446956e-02
4.7999999999999989e+00 +9.1451103689943043e+00 +0.0000000000000000e+00 +4.7999998034415059e+00 +7.8412465281441270e-03 -1.0333809642279457e+00 -5.8623155645011416e-02
4.8999999999999986e+00 +9.1450602847190012e+00 +0.0000000000000000e+00 +4.8999997908988879e+00 +7.8410671451787199e-03 -1.0333806631246922e+00 -5.8623228663168589e-02
4.9999999999999982e+00 +9.1450091677780385e+00 +0.0000000000000000e+00 +4.9999997778337342e+00 +7.8408716076772932e-03 -1.0333803409424114e+00 -5.8623264513502880e-02
5.0999999999999979e+00 +9.1449570181717412e+00 +0.0000000000000000e+00 +5.0999997642353820e+00 +7.8406615919123131e-03 -1.0333800106097564e+00 -5.8623265692759524e-02
5.1999999999999975e+00 +9.1449038359004469e+00 +0.0000000000000000e+00 +5.1999997500931672e+00 +7.8404387750040209e-03 -1.0333796850518162e+00 -5.8623234697850239e-02
5.2999999999999972e+00 +9.1448496209644841e+00 +0.0000000000000000e+00 +5.2999997353964252e+00 +7.8402048349712570e-03 -1.0333793771899458e+00 -5.8623174025858427e-02
5.3999999999999968e+00 +9.1447943733641637e+00 +0.0000000000000000e+00 +5.3999997201344927e+00 +7.8399614507822669e-03 -1.0333790999415968e+00 -5.8623086174044665e-02
5.4999999999999964e+00 +9.1447380930997699e+00 +0.0000000000000000e+00 +5.4999997042967061e+00 +7.8397103024055326e-03 -1.0333788662201475e+00 -5.8622973639852020e-02
5.5999999999999961e+00 +9.1446807801715391e+00 +0.0000000000000000e+00 +5.5999996878724021e+00 +7.8394530708605810e-03 -1.0333786889347369e+00 -5.8622838920911462e-02
5.6999999999999957e+00 +9.1446224345796558e+00 +0.0000000000000000e+00 +5.6999996708509162e+00 +7.8391914382688090e-03 -1.0333785809900915e+00 -5.8622684515047187e-02
5.7999999999999954e+00 +9.1445630563242304e+00 +0.0000000000000000e+00 +5.7999996532215841e+00 +7.8389270879043061e-03 -1.0333785552863599e+00 -5.8622512920282019e-02
5.8999999999999950e+00 +9.1445026454052964e+00 +0.0000000000000000e+00 +5.8999996349737422e+00 +7.8386617042446854e-03 -1.0333786247189416e+00 -5.8622326634842771e-02
5.9999999999999947e+00 +9.1444412018227883e+00 +0.0000000000000000e+00 +5.9999996160967273e+00 +7.8383969730218897e-03 -1.0333788021783168e+00 -5.8622128157165561e-02
6.0999999999999943e+00 +9.1443787255765336e+00 +0.0000000000000000e+00 +6.0999995965798739e+00 +7.8381345812730367e-03 -1.0333791005498809e+00 -5.8621919985901286e-02
6.1999999999999940e+00 +9.1443152166662411e+00 +0.0000000000000000e+00 +6.1999995764125195e+00 +7.8378762173912427e-03 -1.0333795327137723e+00 -5.8621704619920778e-02
6.2999999999999936e+00 +9.1442506750914845e+00 +0.0000000000000000e+00 +6.2999995555839989e+00 +7.8376235711764553e-03 -1.0333801115447028e+00 -5.8621484558320405e-02
6.3999999999999932e+00 +9.1441851008516917e+00 +0.0000000000000000e+00 +6.3999995340836477e+00 +7.8373783338862718e-03 -1.0333808499117907e+00 -5.8621262300427135e-02
6.4999999999999929e+00 +9.1441184939461291e+00 +0.0000000000000000e+00 +6.4999995119008016e+00 +7.8371421982867950e-03 -1.0333817606783890e+00 -5.8621040345804162e-02
6.5999999999999925e+00 +9.1440508543738943e+00 +0.0000000000000000e+00 +6.5999994890247962e+00 +7.8369166013904559e-03 -1.0333828516014736e+00 -5.8620820590429841e-02
6.6999999999999922e+00 +9.1439821821339038e+00 +0.0000000000000000e+00 +6.6999994654449662e+00 +7.8367019518364809e-03 -1.0333841100324943e+00 -5.8620602515055679e-02
6.7999999999999918e+00 +9.1439124772249105e+00 +0.0000000000000000e+00 +6.7999994411506473e+00 +7.8364984005983938e-03 -1.0333855182234832e+00 -5.8620384996467212e-02
6.8999999999999915e+00 +9.1438417396455165e+00 +0.0000000000000000e+00 +6.8999994161311742e+00 +7.8363060980994985e-03 -1.0333870584284262e+00 -5.8620166911285493e-02
6.9999999999999911e+00 +9.1437699693941905e+00 +0.0000000000000000e+00 +6.9999993903758817e+00 +7.8361251941828913e-03 -1.0333887129033963e+00 -5.8619947135957307e-02
7.0999999999999908e+00 +9.1436971664692877e+00 +0.0000000000000000e+00 +7.0999993638741046e+00 +7.8359558380814518e-03 -1.0333904639066860e+00 -5.8619724546745640e-02
7.1999999999999904e+00 +9.1436233308690689e+00 +0.0000000000000000e+00 +7.1999993366151775e+00 +7.8357981783878459e-03 -1.0333922936989361e+00 -5.8619498019719787e-02
7.2999999999999901e+00 +9.1435484625917152e+00 +0.0000000000000000e+00 +7.2999993085884345e+00 +7.8356523630245117e-03 -1.0333941845432719e+00 -5.8619266430745907e-02
7.3999999999999897e+00 +9.1434725616353454e+00 +0.0000000000000000e+00 +7.3999992797832101e+00 +7.8355185392136439e-03 -1.0333961187054297e+00 -5.8619028655477037e-02
7.4999999999999893e+00 +9.1433956279980357e+00 +0.0000000000000000e+00 +7.4999992501888384e+00 +7.8353968534471911e-03 -1.0333980784538932e+00 -5.8618783569343705e-02
7.5999999999999890e+00 +9.1433176616778393e+00 +0.0000000000000000e+00 +7.5999992197946540e+00 +7.8352874514568283e-03 -1.0334000460600221e+00 -5.8618530047543936e-02
7.6999999999999886e+00 +9.1432386626727986e+00 +0.0000000000000000e+00 +7.6999991885899908e+00 +7.8351904781839583e-03 -1.0334020037981873e+00 -5.8618266965033902e-02
7.7999999999999883e+00 +9.1431586309809667e+00 +0.0000000000000000e+00 +7.7999991565641826e+00 +7.8351060777496536e-03 -1.0334039339458991e+00 -5.8617993196517892e-02
7.8999999999999879e+00 +9.1430775666004269e+00 +0.0000000000000000e+00 +7.8999991237065643e+00 +7.8350343934246586e-03 -1.0334058187839437e+00 -5.8617707616438822e-02
7.9999999999999876e+00 +9.1429954695293034e+00 +0.0000000000000000e+00 +7.9999990900064688e+00 +7.8349755675993574e-03 -1.0334076405965120e+00 -5.8617409098968558e-02
8.0999999999999872e+00 +9.1429123397657861e+00 +0.0000000000000000e+00 +8.0999990554532300e+00 +7.8349297417537236e-03 -1.0334093816713326e+00 -5.8617096517998103e-02
8.1999999999999869e+00 +9.1428281773081466e+00 +0.0000000000000000e+00 +8.1999990200361825e+00 +7.8348970564272990e-03 -1.0334110242998056e+00 -5.8616768747128019e-02
8.2999999999999865e+00 +9.1427429821547541e+00 +0.0000000000000000e+00 +8.2999989837446613e+00 +7.8348776511891552e-03 -1.0334125507771348e+00 -5.8616424659658682e-02
8.3999999999999861e+00 +9.1426567543040935e+00 +0.0000000000000000e+00 +8.3999989465679992e+00 +7.8348716646078342e-03 -1.0334139434024590e+00 -5.8616063128580628e-02
8.4999999999999858e+00 +9.1425694937547828e+00 +0.0000000000000000e+00 +8.4999989084955310e+00 +7.8348792342213276e-03 -1.0334151844789854e+00 -5.8615683026564849e-02
8.5999999999999854e+00 +9.1424812005055927e+00 +0.0000000000000000e+00 +8.5999988695165897e+00 +7.8349003161323778e-03 -1.0334162597261154e+00 -5.8615283451509119e-02
8.6999999999999851e+00 +9.1423918745554591e+00 +0.0000000000000000e+00 +8.6999988296205100e+00 +7.8349341441576442e-03 -1.0334171685154940e+00 -5.8614864403334896e-02
8.7999999999999847e+00 +9.1423015159034815e+00 +0.0000000000000000e+00 +8.7999987887966267e+00 +7.8349797715177548e-03 -1.0334179136340402e+00 -5.8614426107490195e-02
8.8999999999999844e+00 +9.1422101245489262e+00 +0.0000000000000000e+00 +8.8999987470342745e+00 +7.8350362513023714e-03 -1.0334184978716920e+00 -5.8613968789405536e-02
8.9999999999999840e+00 +9.1421177004912177e+00 +0.0000000000000000e+00 +8.9999987043227883e+00 +7.8351026364685290e-03 -1.0334189240214953e+00 -5.8613492674493589e-02
9.0999999999999837e+00 +9.1420242437299404e+00 +0.0000000000000000e+00 +9.0999986606515026e+00 +7.8351779798389917e-03 -1.0334191948796891e+00 -5.8612997988149174e-02
9.1999999999999833e+00 +9.1419297542648330e+00 +0.0000000000000000e+00 +9.1999986160097524e+00 +7.8352613341006391e-03 -1.0334193132457967e+00 -5.8612484955749021e-02
9.2999999999999829e+00 +9.1418342320957873e+00 +0.0000000000000000e+00 +9.2999985703868742e+00 +7.8353517518027823e-03 -1.0334192819227077e+00 -5.8611953802651516e-02
9.3999999999999826e+00 +9.1417376772228440e+00 +0.0000000000000000e+00 +9.3999985237722008e+00 +7.8354482853555899e-03 -1.0334191037167697e+00 -5.8611404754196746e-02
9.4999999999999822e+00 +9.1416400896461916e+00 +0.0000000000000000e+00 +9.4999984761550689e+00 +7.8355499870284076e-03 -1.0334187814378724e+00 -5.8610838035706082e-02
9.5999999999999819e+00 +9.1415414693661639e+00 +0.0000000000000000e+00 +9.5999984275248149e+00 +7.8356559089481515e-03 -1.0334183178995366e+00 -5.8610253872482261e-02
9.6999999999999815e+00 +9.1414418163832316e+00 +0.0000000000000000e+00 +9.6999983778707737e+00 +7.8357651030976812e-03 -1.0334177159190010e+00 -5.8609652489809053e-02
9.7999999999999812e+00 +9.1413411306980095e+00 +0.0000000000000000e+00 +9.7999983271822799e+00 +7.8358766213141723e-03 -1.0334169783173073e+00 -5.8609034112951201e-02
9.8999999999999808e+00 +9.1412394123112435e+00 +0.0000000000000000e+00 +9.8999982754486719e+00 +7.8359895152874913e-03 -1.0334161079193893e+00 -5.8608398967154265e-02
9.9999999999999805e+00 +9.1411366612238147e+00 +0.0000000000000000e+00 +9.9999982226592845e+00 +7.8361028365585925e-03 -1.0334151075541596e+00 -5.8607747277644451e-02
1.0099999999999980e+01 +9.1410328774367322e+00 +0.0000000000000000e+00 +1.0099998168803454e+01 +7.8362156365178945e-03 -1.0334139800545958e+00 -5.8607079269628486e-02
1.0199999999999980e+01 +9.1409280609511345e+00 +0.0000000000000000e+00 +1.0199998113870516e+01 +7.8363269664036526e-03 -1.0334127282578265e+00 -5.8606395168293496e-02
1.0299999999999979e+01 +9.1408222117682829e+00 +0.0000000000000000e+00 +1.0299998057849807e+01 +7.8364358773003809e-03 -1.0334113550052206e+00 -5.8605695198806852e-02
1.0399999999999979e+01 +9.1407153298895611e+00 +0.0000000000000000e+00 +1.0399998000730667e+01 +7.8365414201372208e-03 -1.0334098631424722e+00 -5.8604979586316115e-02
1.0499999999999979e+01 +9.1406074153164720e+00 +0.0000000000000000e+00 +1.0499997942502430e+01 +7.8366426456863477e-03 -1.0334082555196873e+00 -5.8604248555948764e-02
1.0599999999999978e+01 +9.1404984680506320e+00 +0.0000000000000000e+00 +1.0599997883154435e+01 +7.8367387243357036e-03 -1.0334065354602893e+00 -5.8603502491382187e-02
1.0699999999999978e+01 +9.1403884880937731e+00 +0.0000000000000000e+00 +1.0699997822676018e+01 +7.8368293056155832e-03 -1.0334047081640341e+00 -5.8602742410595161e-02
1.0799999999999978e+01 +9.1402774754477303e+00 +0.0000000000000000e+00 +1.0799997761056517e+01 +7.8369141591721498e-03 -1.0334027792940923e+00 -5.8601969490142521e-02
1.0899999999999977e+01 +9.1401654301144433e+00 +0.0000000000000000e+00 +1.0899997698285269e+01 +7.8369930550323333e-03 -1.0334007545071049e+00 -5.8601184906566212e-02
1.0999999999999977e+01 +9.1400523520959478e+00 +0.0000000000000000e+00 +1.0999997634351612e+01 +7.8370657636146167e-03 -1.0333986394530152e+00 -5.8600389836395178e-02
1.1099999999999977e+01 +9.1399382413943684e+00 +0.0000000000000000e+00 +1.1099997569244884e+01 +7.8371320557397810e-03 -1.0333964397748974e+00 -5.8599585456145235e-02
1.1199999999999976e+01 +9.1398230980119148e+00 +0.0000000000000000e+00 +1.1199997502954425e+01 +7.8371917026416864e-03 -1.0333941611087856e+00 -5.8598772942318980e-02
1.1299999999999976e+01 +9.1397069219508751e+00 +0.0000000000000000e+00 +1.1299997435469571e+01 +7.8372444759780262e-03 -1.0333918090835053e+00 -5.8597953471405714e-02
1.1399999999999975e+01 +9.1395897132136135e+00 +0.0000000000000000e+00 +1.1399997366779662e+01 +7.8372901478411024e-03 -1.0333893893205017e+00 -5.8597128219881195e-02
1.1499999999999975e+01 +9.1394714718025583e+00 +0.0000000000000000e+00 +1.1499997296874037e+01 +7.8373284907685917e-03 -1.0333869074336710e+00 -5.8596298364207676e-02
1.1599999999999975e+01 +9.1393521977202035e+00 +0.0000000000000000e+00 +1.1599997225742033e+01 +7.8373592777543303e-03 -1.0333843690291884e+00 -5.8595465080833652e-02
1.1699999999999974e+01 +9.1392318909690964e+00 +0.0000000000000000e+00 +1.1699997153372991e+01 +7.8373822822590759e-03 -1.0333817797053373e+00 -5.8594629546193738e-02
1.1799999999999974e+01 +9.1391105515518376e+00 +0.0000000000000000e+00 +1.1799997079756249e+01 +7.8373972782213013e-03 -1.0333791450523422e+00 -5.8593792936708626e-02
