# field on trajectory
# s[mm] rx[mm] ry[mm] rz[mm] bx[T] by[T] bz[T]
0.0000000000000000e+00 +9.1099999999999994e+00 +0.0000000000000000e+00 +0.0000000000000000e+00 +1.1396927116675811e-02 -1.0329089008184420e+00 -5.9101453750867908e-02
1.0000000000000001e-01 +9.1099994839019676e+00 +0.0000000000000000e+00 +9.9999999998224287e-02 +1.1397038883428894e-02 -1.0329140336775919e+00 -5.9101678226308234e-02
2.0000000000000001e-01 +9.1099979356044472e+00 +0.0000000000000000e+00 +1.9999999998579424e-01 +1.1397150368379069e-02 -1.0329191788939500e+00 -5.9101914954220930e-02
3.0000000000000004e-01 +9.1099953551022992e+00 +0.0000000000000000e+00 +2.9999999995205534e-01 +1.1397261673347063e-02 -1.0329243178164405e+00 -5.9102164463623146e-02
4.0000000000000002e-01 +9.1099917423903900e+00 +0.0000000000000000e+00 +3.9999999988635293e-01 +1.1397372900084957e-02 -1.0329294317939968e+00 -5.9102427283490182e-02
5.0000000000000000e-01 +9.1099870974636108e+00 +0.0000000000000000e+00 +4.9999999977803228e-01 +1.1397484150263667e-02 -1.0329345021755343e+00 -5.9102703942742210e-02
5.9999999999999998e-01 +9.1099814203168972e+00 +0.0000000000000000e+00 +5.9999999961643835e-01 +1.1397595500679196e-02 -1.0329395130853041e+00 -5.9102994995171416e-02
6.9999999999999996e-01 +9.1099747109452416e+00 +0.0000000000000000e+00 +6.9999999939091606e-01 +1.1397706928918401e-02 -1.0329444597490003e+00 -5.9103301094266064e-02
7.9999999999999993e-01 +9.1099669693437022e+00 +0.0000000000000000e+00 +7.9999999909081010e-01 +1.1397818387740791e-02 -1.0329493401676564e+00 -5.9103622918417614e-02
8.9999999999999991e-01 +9.1099581955074029e+00 +0.0000000000000000e+00 +8.9999999870546510e-01 +1.1397929829877199e-02 -1.0329541523422658e+00 -5.9103961145991209e-02
9.9999999999999989e-01 +9.1099483894315370e+00 +0.0000000000000000e+00 +9.9999999822422547e-01 +1.1398041208042912e-02 -1.0329588942737777e+00 -5.9104316455332803e-02
1.0999999999999999e+00 +9.1099375511113667e+00 +0.0000000000000000e+00 +1.0999999976364356e+00 +1.1398152474950761e-02 -1.0329635639630885e+00 -5.9104689524776453e-02
1.2000000000000000e+00 +9.1099256805422257e+00 +0.0000000000000000e+00 +1.1999999969314397e+00 +1.1398263583324292e-02 -1.0329681594110431e+00 -5.9105081032651378e-02
1.3000000000000000e+00 +9.1099127777195239e+00 +0.0000000000000000e+00 +1.2999999960985815e+00 +1.1398374485910840e-02 -1.0329726786184195e+00 -5.9105491657289226e-02
1.4000000000000001e+00 +9.1098988426387475e+00 +0.0000000000000000e+00 +1.3999999951272051e+00 +1.1398485135494666e-02 -1.0329771195859305e+00 -5.9105922077031199e-02
1.5000000000000002e+00 +9.1098838752954592e+00 +0.0000000000000000e+00 +1.4999999940066542e+00 +1.1398595484910082e-02 -1.0329814803142170e+00 -5.9106372970235271e-02
1.6000000000000003e+00 +9.1098678756853033e+00 +0.0000000000000000e+00 +1.5999999927262725e+00 +1.1398705487054565e-02 -1.0329857588038374e+00 -5.9106845015283335e-02
1.7000000000000004e+00 +9.1098508438040060e+00 +0.0000000000000000e+00 +1.6999999912754036e+00 +1.1398815094901885e-02 -1.0329899530552689e+00 -5.9107338890588404e-02
1.8000000000000005e+00 +9.1098327796473786e+00 +0.0000000000000000e+00 +1.7999999896433907e+00 +1.1398924261515220e-02 -1.0329940610688952e+00 -5.9107855274601766e-02
1.9000000000000006e+00 +9.1098136832113177e+00 +0.0000000000000000e+00 +1.8999999878195772e+00 +1.1399032940060276e-02 -1.0329980808450063e+00 -5.9108394845820124e-02
2.0000000000000004e+00 +9.1097935544918069e+00 +0.0000000000000000e+00 +1.9999999857933064e+00 +1.1399141083818429e-02 -1.0330020103837898e+00 -5.9108958282792945e-02
2.1000000000000005e+00 +9.1097723934849242e+00 +0.0000000000000000e+00 +2.0999999835539214e+00 +1.1399248646199815e-02 -1.0330058476853252e+00 -5.9109546264129398e-02
2.2000000000000006e+00 +9.1097502001868360e+00 +0.0000000000000000e+00 +2.1999999810907651e+00 +1.1399355580756474e-02 -1.0330095907495787e+00 -5.9110159468505674e-02
2.3000000000000007e+00 +9.1097269745938050e+00 +0.0000000000000000e+00 +2.2999999783931804e+00 +1.1399461841195483e-02 -1.0330132375763990e+00 -5.9110798574672226e-02
2.4000000000000008e+00 +9.1097027167021896e+00 +0.0000000000000000e+00 +2.3999999754505099e+00 +1.1399567381392039e-02 -1.0330167861655084e+00 -5.9111464261460661e-02
2.5000000000000009e+00 +9.1096774265084459e+00 +0.0000000000000000e+00 +2.4999999722520965e+00 +1.1399672155402642e-02 -1.0330202345165005e+00 -5.9112157207791317e-02
2.6000000000000010e+00 +9.1096511040091297e+00 +0.0000000000000000e+00 +2.5999999687872823e+00 +1.1399776076316794e-02 -1.0330235817869218e+00 -5.9112877858214820e-02
2.7000000000000011e+00 +9.1096237492008996e+00 +0.0000000000000000e+00 +2.6999999650454107e+00 +1.1399878892702912e-02 -1.0330268317666449e+00 -5.9113625719485648e-02
2.8000000000000012e+00 +9.1095953620805119e+00 +0.0000000000000000e+00 +2.7999999610158235e+00 +1.1399980311949793e-02 -1.0330299894037895e+00 -5.9114400063896490e-02
2.9000000000000012e+00 +9.1095659426448119e+00 +0.0000000000000000e+00 +2.8999999566878634e+00 +1.1400080041398137e-02 -1.0330330596466786e+00 -5.9115200163731930e-02
3.0000000000000013e+00 +9.1095354908907336e+00 +0.0000000000000000e+00 +2.9999999520508727e+00 +1.1400177788330152e-02 -1.0330360474438640e+00 -5.9116025291265174e-02
3.1000000000000014e+00 +9.1095040068152962e+00 +0.0000000000000000e+00 +3.0999999470941937e+00 +1.1400273259959218e-02 -1.0330389577441501e+00 -5.9116874718754771e-02
3.2000000000000015e+00 +9.1094714904155918e+00 +0.0000000000000000e+00 +3.1999999418071683e+00 +1.1400366163419476e-02 -1.0330417954966162e+00 -5.9117747718441402e-02
3.3000000000000016e+00 +9.1094379416887907e+00 +0.0000000000000000e+00 +3.2999999361791388e+00 +1.1400456205755513e-02 -1.0330445656506448e+00 -5.9118643562544627e-02
3.4000000000000017e+00 +9.1094033606321254e+00 +0.0000000000000000e+00 +3.3999999301994470e+00 +1.1400543093911943e-02 -1.0330472731559386e+00 -5.9119561523259472e-02
3.5000000000000018e+00 +9.1093677472428940e+00 +0.0000000000000000e+00 +3.4999999238574353e+00 +1.1400626534723074e-02 -1.0330499229625525e+00 -5.9120500872753411e-02
3.6000000000000019e+00 +9.1093311015184533e+00 +0.0000000000000000e+00 +3.5999999171424455e+00 +1.1400706234902512e-02 -1.0330525200209120e+00 -5.9121460883162905e-02
3.7000000000000020e+00 +9.1092934234562097e+00 +0.0000000000000000e+00 +3.6999999100438195e+00 +1.1400781901032825e-02 -1.0330550692818401e+00 -5.9122440826590211e-02
3.8000000000000020e+00 +9.1092547130536197e+00 +0.0000000000000000e+00 +3.7999999025508986e+00 +1.1400853239555128e-02 -1.0330575756965790e+00 -5.9123439975100091e-02
3.9000000000000021e+00 +9.1092149703081837e+00 +0.0000000000000000e+00 +3.8999998946530252e+00 +1.1400919956758763e-02 -1.0330600442168174e+00 -5.9124457600716662e-02
4.0000000000000018e+00 +9.1091741952174381e+00 +0.0000000000000000e+00 +3.9999998863395407e+00 +1.1400981758770891e-02 -1.0330624797947092e+00 -5.9125492975419969e-02
4.1000000000000014e+00 +9.1091323877789527e+00 +0.0000000000000000e+00 +4.0999998775997870e+00 +1.1401038351546136e-02 -1.0330648873829054e+00 -5.9126545371142869e-02
4.2000000000000011e+00 +9.1090895479903242e+00 +0.0000000000000000e+00 +4.1999998684231050e+00 +1.1401089440856212e-02 -1.0330672719345693e+00 -5.9127614059767679e-02
4.3000000000000007e+00 +9.1090456758491758e+00 +0.0000000000000000e+00 +4.2999998587988371e+00 +1.1401134732279571e-02 -1.0330696384034073e+00 -5.9128698313123021e-02
4.4000000000000004e+00 +9.1090007713531467e+00 +0.0000000000000000e+00 +4.3999998487163232e+00 +1.1401173931190993e-02 -1.0330719917436879e+00 -5.9129797402980397e-02
4.5000000000000000e+00 +9.1089548344998885e+00 +0.0000000000000000e+00 +4.4999998381649062e+00 +1.1401206742751246e-02 -1.0330743369102704e+00 -5.9130910601051169e-02
4.5999999999999996e+00 +9.1089078652870636e+00 +0.0000000000000000e+00 +4.5999998271339271e+00 +1.1401233011528296e-02 -1.0330766780266538e+00 -5.9132037400908097e-02
4.6999999999999993e+00 +9.1088598637123361e+00 +0.0000000000000000e+00 +4.6999998156127267e+00 +1.1401253140488751e-02 -1.0330790158888477e+00 -5.9133178183771305e-02
4.7999999999999989e+00 +9.1088108297733754e+00 +0.0000000000000000e+00 +4.7999998035906462e+00 +1.1401267672281699e-02 -1.0330813504609073e+00 -5.9134333552745014e-02
4.8999999999999986e+00 +9.1087607634678545e+00 +0.0000000000000000e+00 +4.8999997910570263e+00 +1.1401277149637469e-02 -1.0330836817068514e+00 -5.9135504110891232e-02
4.9999999999999982e+00 +9.1087096647934480e+00 +0.0000000000000000e+00 +4.9999997780012091e+00 +1.1401282115374110e-02 -1.0330860095906453e+00 -5.9136690461227867e-02
5.0999999999999979e+00 +9.1086575337478362e+00 +0.0000000000000000e+00 +5.0999997644125346e+00 +1.1401283112403860e-02 -1.0330883340761916e+00 -5.9137893206727007e-02
5.1999999999999975e+00 +9.1086043703287007e+00 +0.0000000000000000e+00 +5.1999997502803437e+00 +1.1401280683739610e-02 -1.0330906551273162e+00 -5.9139112950313294e-02
5.2999999999999972e+00 +9.1085501745337289e+00 +0.0000000000000000e+00 +5.2999997355939774e+00 +1.1401275372501381e-02 -1.0330929727077574e+00 -5.9140350294862067e-02
5.3999999999999968e+00 +9.1084949463606097e+00 +0.0000000000000000e+00 +5.3999997203427768e+00 +1.1401267721922780e-02 -1.0330952867811525e+00 -5.9141605843197720e-02
5.4999999999999964e+00 +9.1084386858070356e+00 +0.0000000000000000e+00 +5.4999997045160818e+00 +1.1401258275357483e-02 -1.0330975973110275e+00 -5.9142880198091982e-02
5.5999999999999961e+00 +9.1083813928707045e+00 +0.0000000000000000e+00 +5.5999996881032335e+00 +1.1401247576285703e-02 -1.0330999042607827e+00 -5.9144173962262153e-02
5.6999999999999957e+00 +9.1083230675493176e+00 +0.0000000000000000e+00 +5.6999996710935728e+00 +1.1401236168320636e-02 -1.0331022075936813e+00 -5.9145487738369314e-02
5.7999999999999954e+00 +9.1082637098405801e+00 +0.0000000000000000e+00 +5.7999996534764389e+00 +1.1401224595214957e-02 -1.0331045072728378e+00 -5.9146822129016688e-02
5.8999999999999950e+00 +9.1082033197421985e+00 +0.0000000000000000e+00 +5.8999996352411728e+00 +1.1401213400867275e-02 -1.0331068032612052e+00 -5.9148177736747888e-02
5.9999999999999947e+00 +9.1081418972518868e+00 +0.0000000000000000e+00 +5.9999996163771154e+00 +1.1401203129328612e-02 -1.0331090955215632e+00 -5.9149555164045145e-02
6.0999999999999943e+00 +9.1080794423673588e+00 +0.0000000000000000e+00 +6.0999995968736060e+00 +1.1401194324808857e-02 -1.0331113840165047e+00 -5.9150955013327559e-02
6.1999999999999940e+00 +9.1080159550863353e+00 +0.0000000000000000e+00 +6.1999995767199856e+00 +1.1401187531683239e-02 -1.0331136687084257e+00 -5.9152377886949409e-02
6.2999999999999936e+00 +9.1079514354065410e+00 +0.0000000000000000e+00 +6.2999995559055941e+00 +1.1401183294498806e-02 -1.0331159495595112e+00 -5.9153824387198357e-02
6.3999999999999932e+00 +9.1078858833257019e+00 +0.0000000000000000e+00 +6.3999995344197709e+00 +1.1401182157980872e-02 -1.0331182265317229e+00 -5.9155295116293721e-02
6.4999999999999929e+00 +9.1078192988415498e+00 +0.0000000000000000e+00 +6.4999995122518568e+00 +1.1401184667039521e-02 -1.0331204995867904e+00 -5.9156790676384768e-02
6.5999999999999925e+00 +9.1077516819518198e+00 +0.0000000000000000e+00 +6.5999994893911911e+00 +1.1401191188172627e-02 -1.0331227686439644e+00 -5.9158311547713630e-02
6.6999999999999922e+00 +9.1076830326542524e+00 +0.0000000000000000e+00 +6.6999994658271138e+00 +1.1401201373560651e-02 -1.0331250334533213e+00 -5.9159857723180193e-02
6.7999999999999918e+00 +9.1076133509465915e+00 +0.0000000000000000e+00 +6.7999994415489651e+00 +1.1401214696724601e-02 -1.0331272937224589e+00 -5.9161429073992265e-02
6.8999999999999915e+00 +9.1075426368265866e+00 +0.0000000000000000e+00 +6.8999994165460841e+00 +1.1401230631108613e-02 -1.0331295491587120e+00 -5.9163025471531093e-02
6.9999999999999911e+00 +9.1074708902919905e+00 +0.0000000000000000e+00 +6.9999993908078109e+00 +1.1401248650076131e-02 -1.0331317994691434e+00 -5.9164646787358381e-02
7.0999999999999908e+00 +9.1073981113405633e+00 +0.0000000000000000e+00 +7.0999993643234847e+00 +1.1401268226906135e-02 -1.0331340443605332e+00 -5.9166292893223726e-02
7.1999999999999904e+00 +9.1073242999700685e+00 +0.0000000000000000e+00 +7.1999993370824447e+00 +1.1401288834789317e-02 -1.0331362835393680e+00 -5.9167963661071653e-02
7.2999999999999901e+00 +9.1072494561782769e+00 +0.0000000000000000e+00 +7.2999993090740309e+00 +1.1401309946824272e-02 -1.0331385167118277e+00 -5.9169658963048891e-02
7.3999999999999897e+00 +9.1071735799629643e+00 +0.0000000000000000e+00 +7.3999992802875827e+00 +1.1401331036013694e-02 -1.0331407435837745e+00 -5.9171378671511510e-02
7.4999999999999893e+00 +9.1070966713219139e+00 +0.0000000000000000e+00 +7.4999992507124391e+00 +1.1401351575260586e-02 -1.0331429638607434e+00 -5.9173122659032323e-02
7.5999999999999890e+00 +9.1070187302529142e+00 +0.0000000000000000e+00 +7.5999992203379394e+00 +1.1401371037364438e-02 -1.0331451772479290e+00 -5.9174890798407792e-02
7.6999999999999886e+00 +9.1069397567537624e+00 +0.0000000000000000e+00 +7.6999991891534227e+00 +1.1401388895017420e-02 -1.0331473834501752e+00 -5.9176682962665442e-02
7.7999999999999883e+00 +9.1068597508222631e+00 +0.0000000000000000e+00 +7.7999991571482283e+00 +1.1401404620800580e-02 -1.0331495821719632e+00 -5.9178499025071087e-02
7.8999999999999879e+00 +9.1067787124562258e+00 +0.0000000000000000e+00 +7.8999991243116945e+00 +1.1401417687180039e-02 -1.0331517731174009e+00 -5.9180338859135810e-02
7.9999999999999876e+00 +9.1066966416534711e+00 +0.0000000000000000e+00 +7.9999990906331613e+00 +1.1401427566503176e-02 -1.0331539559902128e+00 -5.9182202338623445e-02
8.0999999999999872e+00 +9.1066135384118265e+00 +0.0000000000000000e+00 +8.0999990561019679e+00 +1.1401433730994835e-02 -1.0331561304937256e+00 -5.9184089337557567e-02
8.1999999999999869e+00 +9.1065294027291266e+00 +0.0000000000000000e+00 +8.1999990207074518e+00 +1.1401435652753486e-02 -1.0331582963308583e+00 -5.9185999730228783e-02
8.2999999999999865e+00 +9.1064442346032166e+00 +0.0000000000000000e+00 +8.2999989844389521e+00 +1.1401432803747447e-02 -1.0331604532041145e+00 -5.9187933391201930e-02
8.3999999999999861e+00 +9.1063580340319508e+00 +0.0000000000000000e+00 +8.3999989472858090e+00 +1.1401424655811055e-02 -1.0331626008155645e+00 -5.9189890195323287e-02
8.4999999999999858e+00 +9.1062708010131921e+00 +0.0000000000000000e+00 +8.4999989092373589e+00 +1.1401410680640872e-02 -1.0331647388668399e+00 -5.9191870017727667e-02
8.5999999999999854e+00 +9.1061825355448125e+00 +0.0000000000000000e+00 +8.5999988702829420e+00 +1.1401390488670575e-02 -1.0331668674345669e+00 -5.9193872526442461e-02
8.6999999999999851e+00 +9.1060932376246946e+00 +0.0000000000000000e+00 +8.6999988304118965e+00 +1.1401364245778993e-02 -1.0331689880965689e+00 -5.9195896559986298e-02
8.7999999999999847e+00 +9.1060029072507298e+00 +0.0000000000000000e+00 +8.7999987896135625e+00 +1.1401332256743937e-02 -1.0331711028051644e+00 -5.9197940749293493e-02
8.8999999999999844e+00 +9.1059115444208132e+00 +0.0000000000000000e+00 +8.8999987478772766e+00 +1.1401294826369701e-02 -1.0331732135116269e+00 -5.9200003725080955e-02
8.9999999999999840e+00 +9.1058191491328451e+00 +0.0000000000000000e+00 +8.9999987051923771e+00 +1.1401252259488258e-02 -1.0331753221661564e+00 -5.9202084117840927e-02
9.0999999999999837e+00 +9.1057257213847276e+00 +0.0000000000000000e+00 +9.0999986615482023e+00 +1.1401204860960433e-02 -1.0331774307178512e+00 -5.9204180557833087e-02
9.1999999999999833e+00 +9.1056312611743646e+00 +0.0000000000000000e+00 +9.1999986169340922e+00 +1.1401152935677098e-02 -1.0331795411146820e+00 -5.9206291675077106e-02
9.2999999999999829e+00 +9.1055357684996565e+00 +0.0000000000000000e+00 +9.2999985713393833e+00 +1.1401096788560378e-02 -1.0331816553034663e+00 -5.9208416099344949e-02
9.3999999999999826e+00 +9.1054392433585001e+00 +0.0000000000000000e+00 +9.3999985247534141e+00 +1.1401036724564807e-02 -1.0331837752298363e+00 -5.9210552460153353e-02
9.4999999999999822e+00 +9.1053416857487868e+00 +0.0000000000000000e+00 +9.4999984771655228e+00 +1.1400973048678553e-02 -1.0331859028382189e+00 -5.9212699386756232e-02
9.5999999999999819e+00 +9.1052430956684027e+00 +0.0000000000000000e+00 +9.5999984285650477e+00 +1.1400906065924577e-02 -1.0331880400718021e+00 -5.9214855508136981e-02
9.6999999999999815e+00 +9.1051434731152199e+00 +0.0000000000000000e+00 +9.6999983789413253e+00 +1.1400836081361845e-02 -1.0331901888725112e+00 -5.9217019453000987e-02
9.7999999999999812e+00 +9.1050428180871030e+00 +0.0000000000000000e+00 +9.7999983282836958e+00 +1.1400763400086522e-02 -1.0331923511809817e+00 -5.9219189849768032e-02
9.8999999999999808e+00 +9.1049411305819010e+00 +0.0000000000000000e+00 +9.8999982765814938e+00 +1.1400688327233136e-02 -1.0331945289365305e+00 -5.9221365326564662e-02
9.9999999999999805e+00 +9.1048384105974502e+00 +0.0000000000000000e+00 +9.9999982238240595e+00 +1.1400611167975798e-02 -1.0331967240771298e+00 -5.9223544511216600e-02
1.0099999999999980e+01 +9.1047346581315658e+00 +0.0000000000000000e+00 +1.0099998170000729e+01 +1.1400532227529377e-02 -1.0331989385393787e+00 -5.9225726031241190e-02
1.0199999999999980e+01 +9.1046298731820468e+00 +0.0000000000000000e+00 +1.0199998115100842e+01 +1.1400451811150710e-02 -1.0332011742584797e+00 -5.9227908513839897e-02
1.0299999999999979e+01 +9.1045240557466691e+00 +0.0000000000000000e+00 +1.0299998059113733e+01 +1.1400370224139773e-02 -1.0332034331682047e+00 -5.9230090585890599e-02
1.0399999999999979e+01 +9.1044172058231876e+00 +0.0000000000000000e+00 +1.0399998002028742e+01 +1.1400287771840890e-02 -1.0332057172008757e+00 -5.9232270873940028e-02
1.0499999999999979e+01 +9.1043093234093302e+00 +0.0000000000000000e+00 +1.0499997943835204e+01 +1.1400204759643935e-02 -1.0332080282873308e+00 -5.9234448004196347e-02
1.0599999999999978e+01 +9.1042004085027983e+00 +0.0000000000000000e+00 +1.0599997884522459e+01 +1.1400121446424364e-02 -1.0332103680463878e+00 -5.9236620616135535e-02
1.0699999999999978e+01 +9.1040904611012667e+00 +0.0000000000000000e+00 +1.0699997824079841e+01 +1.1400037904874363e-02 -1.0332127368544084e+00 -5.9238787403494482e-02
1.0799999999999978e+01 +9.1039794812023782e+00 +0.0000000000000000e+00 +1.0799997762496687e+01 +1.1399954161237340e-02 -1.0332151347789822e+00 -5.9240947073695906e-02
1.0899999999999977e+01 +9.1038674688037506e+00 +0.0000000000000000e+00 +1.0899997699762336e+01 +1.1399870241883929e-02 -1.0332175618898332e+00 -5.9243098334274158e-02
1.0999999999999977e+01 +9.1037544239029682e+00 +0.0000000000000000e+00 +1.0999997635866123e+01 +1.1399786173314866e-02 -1.0332200182588771e+00 -5.9245239892878436e-02
1.1099999999999977e+01 +9.1036403464975901e+00 +0.0000000000000000e+00 +1.1099997570797385e+01 +1.1399701982164027e-02 -1.0332225039602796e+00 -5.9247370457276322e-02
1.1199999999999976e+01 +9.1035252365851438e+00 +0.0000000000000000e+00 +1.1199997504545459e+01 +1.1399617695201331e-02 -1.0332250190705117e+00 -5.9249488735356938e-02
1.1299999999999976e+01 +9.1034090941631280e+00 +0.0000000000000000e+00 +1.1299997437099682e+01 +1.1399533339335726e-02 -1.0332275636684116e+00 -5.9251593435134385e-02
1.1399999999999975e+01 +9.1032919192290116e+00 +0.0000000000000000e+00 +1.1399997368449389e+01 +1.1399448941618122e-02 -1.0332301378352382e+00 -5.9253683264751028e-02
1.1499999999999975e+01 +9.1031737117802365e+00 +0.0000000000000000e+00 +1.1499997298583915e+01 +1.1399364529244406e-02 -1.0332327416547318e+00 -5.9255756932480946e-02
1.1599999999999975e+01 +9.1030544718142110e+00 +0.0000000000000000e+00 +1.1599997227492599e+01 +1.1399280129558353e-02 -1.0332353752131715e+00 -5.9257813146733104e-02
1.1699999999999974e+01 +9.1029341993283186e+00 +0.0000000000000000e+00 +1.1699997155164775e+01 +1.1399195770054615e-02 -1.0332380385994320e+00 -5.9259850616054884e-02
1.1799999999999974e+01 +9.1028128943199089e+00 +0.0000000000000000e+00 +1.1799997081589778e+01 +1.1399111478381695e-02 -1.0332407319050407e+00 -5.9261868049135295e-02
