# trajectory
# s[mm] rx[mm] ry[mm] rz[mm] px[rad] py[rad] pz[rad]
0.0000000000000000e+00 +9.0449999999999999e+00 +0.0000000000000000e+00 +0.0000000000000000e+00 +0.0000000000000000e+00 +0.0000000000000000e+00 +1.0000000000000000e+00
-1.0000000000000001e-01 +9.0449994822814386e+00 +0.0000000000000000e+00 -9.9999999998213102e-02 +1.0354379499555517e-05 +0.0000000000000000e+00 +9.9999999994639344e-01
-2.0000000000000001e-01 +9.0449979291224540e+00 +0.0000000000000000e+00 -1.9999999998570483e-01 +2.0708808377191387e-05 +0.0000000000000000e+00 +9.9999999978557264e-01
-3.0000000000000004e-01 +9.0449953405181400e+00 +0.0000000000000000e+00 -2.9999999995175375e-01 +3.1063285966492548e-05 +0.0000000000000000e+00 +9.9999999951753615e-01
-4.0000000000000002e-01 +9.0449917164636577e+00 +0.0000000000000000e+00 -3.9999999988563817e-01 +4.1417811624417373e-05 +0.0000000000000000e+00 +9.9999999914228244e-01
-5.0000000000000000e-01 +9.0449870569542323e+00 +0.0000000000000000e+00 -4.9999999977663628e-01 +5.1772384731298406e-05 +0.0000000000000000e+00 +9.9999999865981004e-01
-5.9999999999999998e-01 +9.0449813619851493e+00 +0.0000000000000000e+00 -5.9999999961402617e-01 +6.2127004690842939e-05 +0.0000000000000000e+00 +9.9999999807011763e-01
-6.9999999999999996e-01 +9.0449746315517512e+00 +0.0000000000000000e+00 -6.9999999938708579e-01 +7.2481670930133526e-05 +0.0000000000000000e+00 +9.9999999737320366e-01
-7.9999999999999993e-01 +9.0449668656494389e+00 +0.0000000000000000e+00 -7.9999999908509289e-01 +8.2836382899628282e-05 +0.0000000000000000e+00 +9.9999999656906680e-01
-8.9999999999999991e-01 +9.0449580642736649e+00 +0.0000000000000000e+00 -8.9999999869732505e-01 +9.3191140073161101e-05 +0.0000000000000000e+00 +9.9999999565770570e-01
-9.9999999999999989e-01 +9.0449482274199351e+00 +0.0000000000000000e+00 -9.9999999821305985e-01 +1.0354594194794174e-04 +0.0000000000000000e+00 +9.9999999463911893e-01
-1.0999999999999999e+00 +9.0449373550838015e+00 +0.0000000000000000e+00 -1.0999999976215746e+00 +1.1390078804455573e-04 +0.0000000000000000e+00 +9.9999999351330526e-01
-1.2000000000000000e+00 +9.0449254472608676e+00 +0.0000000000000000e+00 -1.1999999969121466e+00 +1.2425567790696427e-04 +0.0000000000000000e+00 +9.9999999228026326e-01
-1.3000000000000000e+00 +9.0449125039467759e+00 +0.0000000000000000e+00 -1.2999999960740529e+00 +1.3461061110250379e-04 +0.0000000000000000e+00 +9.9999999093999170e-01
-1.4000000000000001e+00 +9.0448985251372154e+00 +0.0000000000000000e+00 -1.3999999950965705e+00 +1.4496558722188564e-04 +0.0000000000000000e+00 +9.9999998949248925e-01
-1.5000000000000002e+00 +9.0448835108279138e+00 +0.0000000000000000e+00 -1.4999999939689763e+00 +1.5532060587919539e-04 +0.0000000000000000e+00 +9.9999998793775469e-01
-1.6000000000000003e+00 +9.0448674610146345e+00 +0.0000000000000000e+00 -1.5999999926805470e+00 +1.6567566671189219e-04 +0.0000000000000000e+00 +9.9999998627578668e-01
-1.7000000000000004e+00 +9.0448503756931764e+00 +0.0000000000000000e+00 -1.6999999912205592e+00 +1.7603076938080793e-04 +0.0000000000000000e+00 +9.9999998450658401e-01
-1.8000000000000005e+00 +9.0448322548593740e+00 +0.0000000000000000e+00 -1.7999999895782892e+00 +1.8638591357014625e-04 +0.0000000000000000e+00 +9.9999998263014545e-01
-1.9000000000000006e+00 +9.0448130985090884e+00 +0.0000000000000000e+00 -1.8999999877430136e+00 +1.9674109898748141e-04 +0.0000000000000000e+00 +9.9999998064646978e-01
-2.0000000000000004e+00 +9.0447929066382109e+00 +0.0000000000000000e+00 -1.9999999857040085e+00 +2.0709632536375711e-04 +0.0000000000000000e+00 +9.9999997855555578e-01
-2.1000000000000005e+00 +9.0447716792426576e+00 +0.0000000000000000e+00 -2.0999999834505498e+00 +2.1745159245240058e-04 +0.0000000000000000e+00 +9.9999997635740223e-01
-2.2000000000000006e+00 +9.0447494163183695e+00 +0.0000000000000000e+00 -2.1999999809719140e+00 +2.2780690001959113e-04 +0.0000000000000000e+00 +9.9999997405200791e-01
-2.3000000000000007e+00 +9.0447261178613108e+00 +0.0000000000000000e+00 -2.2999999782573766e+00 +2.3816224783452795e-04 +0.0000000000000000e+00 +9.9999997163937160e-01
-2.4000000000000008e+00 +9.0447017838674686e+00 +0.0000000000000000e+00 -2.3999999752962133e+00 +2.4851763566854262e-04 +0.0000000000000000e+00 +9.9999996911949207e-01
-2.5000000000000009e+00 +9.0446764143328515e+00 +0.0000000000000000e+00 -2.4999999720777000e+00 +2.5887306329509596e-04 +0.0000000000000000e+00 +9.9999996649236811e-01
-2.6000000000000010e+00 +9.0446500092534912e+00 +0.0000000000000000e+00 -2.5999999685911122e+00 +2.6922853048977450e-04 +0.0000000000000000e+00 +9.9999996375799860e-01
-2.7000000000000011e+00 +9.0446225686254422e+00 +0.0000000000000000e+00 -2.6999999648257251e+00 +2.7958403703028681e-04 +0.0000000000000000e+00 +9.9999996091638244e-01
-2.8000000000000012e+00 +9.0445940924447807e+00 +0.0000000000000000e+00 -2.7999999607708137e+00 +2.8993958269645941e-04 +0.0000000000000000e+00 +9.9999995796751839e-01
-2.9000000000000012e+00 +9.0445645807076058e+00 +0.0000000000000000e+00 -2.8999999564156536e+00 +3.0029516727023261e-04 +0.0000000000000000e+00 +9.9999995491140536e-01
-3.0000000000000013e+00 +9.0445340334100379e+00 +0.0000000000000000e+00 -2.9999999517495195e+00 +3.1065079053565608e-04 +0.0000000000000000e+00 +9.9999995174804213e-01
-3.1000000000000014e+00 +9.0445024505482170e+00 +0.0000000000000000e+00 -3.0999999467616868e+00 +3.2100645227888392e-04 +0.0000000000000000e+00 +9.9999994847742757e-01
-3.2000000000000015e+00 +9.0444698321183061e+00 +0.0000000000000000e+00 -3.1999999414414297e+00 +3.3136215228816979e-04 +0.0000000000000000e+00 +9.9999994509956058e-01
-3.3000000000000016e+00 +9.0444361781164897e+00 +0.0000000000000000e+00 -3.2999999357780236e+00 +3.4171789035386156e-04 +0.0000000000000000e+00 +9.9999994161444006e-01
-3.4000000000000017e+00 +9.0444014885389734e+00 +0.0000000000000000e+00 -3.3999999297607428e+00 +3.5207366626839576e-04 +0.0000000000000000e+00 +9.9999993802206488e-01
-3.5000000000000018e+00 +9.0443657633819807e+00 +0.0000000000000000e+00 -3.4999999233788617e+00 +3.6242947982629198e-04 +0.0000000000000000e+00 +9.9999993432243395e-01
-3.6000000000000019e+00 +9.0443290026417600e+00 +0.0000000000000000e+00 -3.5999999166216545e+00 +3.7278533082414660e-04 +0.0000000000000000e+00 +9.9999993051554614e-01
-3.7000000000000020e+00 +9.0442912063145755e+00 +0.0000000000000000e+00 -3.6999999094783957e+00 +3.8314121906062661e-04 +0.0000000000000000e+00 +9.9999992660140047e-01
-3.8000000000000020e+00 +9.0442523743967129e+00 +0.0000000000000000e+00 -3.7999999019383592e+00 +3.9349714433646301e-04 +0.0000000000000000e+00 +9.9999992257999570e-01
-3.9000000000000021e+00 +9.0442125068844792e+00 +0.0000000000000000e+00 -3.8999998939908194e+00 +4.0385310645444397e-04 +0.0000000000000000e+00 +9.9999991845133085e-01
-4.0000000000000018e+00 +9.0441716037742008e+00 +0.0000000000000000e+00 -3.9999998856250500e+00 +4.1420910521940791e-04 +0.0000000000000000e+00 +9.9999991421540491e-01
-4.1000000000000014e+00 +9.0441296650622203e+00 +0.0000000000000000e+00 -4.0999998768303252e+00 +4.2456514043799485e-04 +0.0000000000000000e+00 +9.9999990987221676e-01
-4.2000000000000011e+00 +9.0440866907449031e+00 +0.0000000000000000e+00 -4.1999998675959178e+00 +4.3492121191598764e-04 +0.0000000000000000e+00 +9.9999990542176531e-01
-4.3000000000000007e+00 +9.0440426808186345e+00 +0.0000000000000000e+00 -4.2999998579111027e+00 +4.4527731945566065e-04 +0.0000000000000000e+00 +9.9999990086404955e-01
-4.4000000000000004e+00 +9.0439976352798173e+00 +0.0000000000000000e+00 -4.3999998477651525e+00 +4.5563346285554441e-04 +0.0000000000000000e+00 +9.9999989619906848e-01
-4.5000000000000000e+00 +9.0439515541248756e+00 +0.0000000000000000e+00 -4.4999998371473406e+00 +4.6598964191043229e-04 +0.0000000000000000e+00 +9.9999989142682100e-01
-4.5999999999999996e+00 +9.0439044373502533e+00 +0.0000000000000000e+00 -4.5999998260469406e+00 +4.7634585641138770e-04 +0.0000000000000000e+00 +9.9999988654730620e-01
-4.6999999999999993e+00 +9.0438562849524189e+00 +0.0000000000000000e+00 -4.6999998144532258e+00 +4.8670210614575185e-04 +0.0000000000000000e+00 +9.9999988156052300e-01
-4.7999999999999989e+00 +9.0438070969278570e+00 +0.0000000000000000e+00 -4.7999998023554697e+00 +4.9705839089715220e-04 +0.0000000000000000e+00 +9.9999987646647048e-01
-4.8999999999999986e+00 +9.0437568732730789e+00 +0.0000000000000000e+00 -4.8999997897429441e+00 +5.0741471044551132e-04 +0.0000000000000000e+00 +9.9999987126514767e-01
-4.9999999999999982e+00 +9.0437056139846153e+00 +0.0000000000000000e+00 -4.9999997766049233e+00 +5.1777106456705622e-04 +0.0000000000000000e+00 +9.9999986595655355e-01
-5.0999999999999979e+00 +9.0436533190590200e+00 +0.0000000000000000e+00 -5.0999997629306790e+00 +5.2812745303432846e-04 +0.0000000000000000e+00 +9.9999986054068712e-01
-5.1999999999999975e+00 +9.0435999884928702e+00 +0.0000000000000000e+00 -5.1999997487094847e+00 +5.3848387561619465e-04 +0.0000000000000000e+00 +9.9999985501754751e-01
-5.2999999999999972e+00 +9.0435456222827675e+00 +0.0000000000000000e+00 -5.2999997339306129e+00 +5.4884033207785760e-04 +0.0000000000000000e+00 +9.9999984938713382e-01
-5.3999999999999968e+00 +9.0434902204253333e+00 +0.0000000000000000e+00 -5.3999997185833362e+00 +5.5919682218086807e-04 +0.0000000000000000e+00 +9.9999984364944505e-01
-5.4999999999999964e+00 +9.0434337829172176e+00 +0.0000000000000000e+00 -5.4999997026569263e+00 +5.6955334568313662e-04 +0.0000000000000000e+00 +9.9999983780448032e-01
-5.5999999999999961e+00 +9.0433763097550912e+00 +0.0000000000000000e+00 -5.5999996861406558e+00 +5.7990990233894692e-04 +0.0000000000000000e+00 +9.9999983185223873e-01
-5.6999999999999957e+00 +9.0433178009356521e+00 +0.0000000000000000e+00 -5.6999996690237973e+00 +5.9026649189896881e-04 +0.0000000000000000e+00 +9.9999982579271940e-01
-5.7999999999999954e+00 +9.0432582564556228e+00 +0.0000000000000000e+00 -5.7999996512956233e+00 +6.0062311411027201e-04 +0.0000000000000000e+00 +9.9999981962592144e-01
-5.8999999999999950e+00 +9.0431976763117508e+00 +0.0000000000000000e+00 -5.8999996329454056e+00 +6.1097976871634079e-04 +0.0000000000000000e+00 +9.9999981335184396e-01
-5.9999999999999947e+00 +9.0431360605008084e+00 +0.0000000000000000e+00 -5.9999996139624159e+00 +6.2133645545708904e-04 +0.0000000000000000e+00 +9.9999980697048618e-01
-6.0999999999999943e+00 +9.0430734090195966e+00 +0.0000000000000000e+00 -6.0999995943359266e+00 +6.3169317406948280e-04 +0.0000000000000000e+00 +9.9999980048184722e-01
-6.1999999999999940e+00 +9.0430097218649408e+00 +0.0000000000000000e+00 -6.1999995740552096e+00 +6.4204992429423165e-04 +0.0000000000000000e+00 +9.9999979388592630e-01
-6.2999999999999936e+00 +9.0429449990336916e+00 +0.0000000000000000e+00 -6.2999995531095365e+00 +6.5240670588247228e-04 +0.0000000000000000e+00 +9.9999978718272264e-01
-6.3999999999999932e+00 +9.0428792405227263e+00 +0.0000000000000000e+00 -6.3999995314881781e+00 +6.6276351859637496e-04 +0.0000000000000000e+00 +9.9999978037223536e-01
-6.4999999999999929e+00 +9.0428124463289432e+00 +0.0000000000000000e+00 -6.4999995091804070e+00 +6.7312036220914357e-04 +0.0000000000000000e+00 +9.9999977345446356e-01
-6.5999999999999925e+00 +9.0427446164492622e+00 +0.0000000000000000e+00 -6.5999994861754949e+00 +6.8347723650501494e-04 +0.0000000000000000e+00 +9.9999976642940658e-01
-6.6999999999999922e+00 +9.0426757508806261e+00 +0.0000000000000000e+00 -6.6999994624627126e+00 +6.9383414127925820e-04 +0.0000000000000000e+00 +9.9999975929706353e-01
-6.7999999999999918e+00 +9.0426058496199975e+00 +0.0000000000000000e+00 -6.7999994380313318e+00 +7.0419107633817391e-04 +0.0000000000000000e+00 +9.9999975205743352e-01
-6.8999999999999915e+00 +9.0425349126643564e+00 +0.0000000000000000e+00 -6.8999994128706232e+00 +7.1454804149909330e-04 +0.0000000000000000e+00 +9.9999974471051589e-01
-6.9999999999999911e+00 +9.0424629400107008e+00 +0.0000000000000000e+00 -6.9999993869698587e+00 +7.2490503659037729e-04 +0.0000000000000000e+00 +9.9999973725630975e-01
-7.0999999999999908e+00 +9.0423899316560465e+00 +0.0000000000000000e+00 -7.0999993603183089e+00 +7.3526206145141501e-04 +0.0000000000000000e+00 +9.9999972969481432e-01
-7.1999999999999904e+00 +9.0423158875974234e+00 +0.0000000000000000e+00 -7.1999993329052447e+00 +7.4561911593262276e-04 +0.0000000000000000e+00 +9.9999972202602871e-01
-7.2999999999999901e+00 +9.0422408078318774e+00 +0.0000000000000000e+00 -7.2999993047199379e+00 +7.5597619989544254e-04 +0.0000000000000000e+00 +9.9999971424995215e-01
-7.3999999999999897e+00 +9.0421646923564669e+00 +0.0000000000000000e+00 -7.3999992757516591e+00 +7.6633331321234051e-04 +0.0000000000000000e+00 +9.9999970636658375e-01
-7.4999999999999893e+00 +9.0420875411682609e+00 +0.0000000000000000e+00 -7.4999992459896783e+00 +7.7669045576680517e-04 +0.0000000000000000e+00 +9.9999969837592284e-01
-7.5999999999999890e+00 +9.0420093542643425e+00 +0.0000000000000000e+00 -7.5999992154232672e+00 +7.8704762745334549e-04 +0.0000000000000000e+00 +9.9999969027796842e-01
-7.6999999999999886e+00 +9.0419301316418021e+00 +0.0000000000000000e+00 -7.6999991840416957e+00 +7.9740482817748930e-04 +0.0000000000000000e+00 +9.9999968207271983e-01
-7.7999999999999883e+00 +9.0418498732977408e+00 +0.0000000000000000e+00 -7.7999991518342346e+00 +8.0776205785578067e-04 +0.0000000000000000e+00 +9.9999967376017607e-01
-7.8999999999999879e+00 +9.0417685792292684e+00 +0.0000000000000000e+00 -7.8999991187901548e+00 +8.1811931641577831e-04 +0.0000000000000000e+00 +9.9999966534033635e-01
-7.9999999999999876e+00 +9.0416862494334982e+00 +0.0000000000000000e+00 -7.9999990848987261e+00 +8.2847660379605263e-04 +0.0000000000000000e+00 +9.9999965681319991e-01
-8.0999999999999872e+00 +9.0416028839075508e+00 +0.0000000000000000e+00 -8.0999990501492185e+00 +8.3883391994525093e-04 +0.0000000000000000e+00 +9.9999964817876585e-01
-8.1999999999999869e+00 +9.0415184826485522e+00 +0.0000000000000000e+00 -8.1999990145309027e+00 +8.4919126481183577e-04 +0.0000000000000000e+00 +9.9999963943703329e-01
-8.2999999999999865e+00 +9.0414330456536334e+00 +0.0000000000000000e+00 -8.2999989780330488e+00 +8.5954863833382364e-04 +0.0000000000000000e+00 +9.9999963058800134e-01
-8.3999999999999861e+00 +9.0413465729199327e+00 +0.0000000000000000e+00 -8.3999989406449256e+00 +8.6990604043785059e-04 +0.0000000000000000e+00 +9.9999962163166922e-01
-8.4999999999999858e+00 +9.0412590644445956e+00 +0.0000000000000000e+00 -8.4999989023558058e+00 +8.8026347103917094e-04 +0.0000000000000000e+00 +9.9999961256803616e-01
-8.5999999999999854e+00 +9.0411705202247781e+00 +0.0000000000000000e+00 -8.5999988631549567e+00 +8.9062093004165530e-04 +0.0000000000000000e+00 +9.9999960339710126e-01
-8.6999999999999851e+00 +9.0410809402576451e+00 +0.0000000000000000e+00 -8.6999988230316490e+00 +9.0097841733778920e-04 +0.0000000000000000e+00 +9.9999959411886374e-01
-8.7999999999999847e+00 +9.0409903245403722e+00 +0.0000000000000000e+00 -8.7999987819751517e+00 +9.1133593280867101e-04 +0.0000000000000000e+00 +9.9999958473332295e-01
-8.8999999999999844e+00 +9.0408986730701493e+00 +0.0000000000000000e+00 -8.8999987399747358e+00 +9.2169347632400998e-04 +0.0000000000000000e+00 +9.9999957524047800e-01
-8.9999999999999840e+00 +9.0408059858441785e+00 +0.0000000000000000e+00 -8.9999986970196701e+00 +9.3205104774212442e-04 +0.0000000000000000e+00 +9.9999956564032821e-01
-9.0999999999999837e+00 +9.0407122628596763e+00 +0.0000000000000000e+00 -9.0999986530992238e+00 +9.4240864690993940e-04 +0.0000000000000000e+00 +9.9999955593287282e-01
-9.1999999999999833e+00 +9.0406175041138770e+00 +0.0000000000000000e+00 -9.1999986082026677e+00 +9.5276627366298460e-04 +0.0000000000000000e+00 +9.9999954611811115e-01
-9.2999999999999829e+00 +9.0405217096040307e+00 +0.0000000000000000e+00 -9.2999985623192689e+00 +9.6312392782539234e-04 +0.0000000000000000e+00 +9.9999953619604254e-01
-9.3999999999999826e+00 +9.0404248793274053e+00 +0.0000000000000000e+00 -9.3999985154382983e+00 +9.7348160920989477e-04 +0.0000000000000000e+00 +9.9999952616666632e-01
-9.4999999999999822e+00 +9.0403270132812885e+00 +0.0000000000000000e+00 -9.4999984675490250e+00 +9.8383931761782182e-04 +0.0000000000000000e+00 +9.9999951602998172e-01
-9.5999999999999819e+00 +9.0402281114629890e+00 +0.0000000000000000e+00 -9.5999984186407179e+00 +9.9419705283909838e-04 +0.0000000000000000e+00 +9.9999950578598817e-01
-9.6999999999999815e+00 +9.0401281738698351e+00 +0.0000000000000000e+00 -9.6999983687026461e+00 +1.0045548146522417e-03 +0.0000000000000000e+00 +9.9999949543468514e-01
-9.7999999999999812e+00 +9.0400272004991802e+00 +0.0000000000000000e+00 -9.7999983177240786e+00 +1.0149126028243590e-03 +0.0000000000000000e+00 +9.9999948497607194e-01
-9.8999999999999808e+00 +9.0399251913484004e+00 +0.0000000000000000e+00 -9.8999982656942844e+00 +1.0252704171111445e-03 +0.0000000000000000e+00 +9.9999947441014803e-01
-9.9999999999999805e+00 +9.0398221464148971e+00 +0.0000000000000000e+00 -9.9999982126025309e+00 +1.0356282572568762e-03 +0.0000000000000000e+00 +9.9999946373691284e-01
-1.0099999999999980e+01 +9.0397180656960963e+00 +0.0000000000000000e+00 -1.0099998158438089e+01 +1.0459861229950383e-03 +0.0000000000000000e+00 +9.9999945295636583e-01
-1.0199999999999980e+01 +9.0396129491894541e+00 +0.0000000000000000e+00 -1.0199998103190227e+01 +1.0563440140551872e-03 +0.0000000000000000e+00 +9.9999944206850655e-01
-1.0299999999999979e+01 +9.0395067968924501e+00 +0.0000000000000000e+00 -1.0299998046848213e+01 +1.0667019301698129e-03 +0.0000000000000000e+00 +9.9999943107333444e-01
-1.0399999999999979e+01 +9.0393996088025936e+00 +0.0000000000000000e+00 -1.0399997989401315e+01 +1.0770598710749483e-03 +0.0000000000000000e+00 +9.9999941997084907e-01
-1.0499999999999979e+01 +9.0392913849174175e+00 +0.0000000000000000e+00 -1.0499997930838804e+01 +1.0874178365101535e-03 +0.0000000000000000e+00 +9.9999940876104987e-01
-1.0599999999999978e+01 +9.0391821252344826e+00 +0.0000000000000000e+00 -1.0599997871149947e+01 +1.0977758262185004e-03 +0.0000000000000000e+00 +9.9999939744393640e-01
-1.0699999999999978e+01 +9.0390718297513732e+00 +0.0000000000000000e+00 -1.0699997810324014e+01 +1.1081338399465566e-03 +0.0000000000000000e+00 +9.9999938601950811e-01
-1.0799999999999978e+01 +9.0389604984657002e+00 +0.0000000000000000e+00 -1.0799997748350272e+01 +1.1184918774443684e-03 +0.0000000000000000e+00 +9.9999937448776466e-01
-1.0899999999999977e+01 +9.0388481313750990e+00 +0.0000000000000000e+00 -1.0899997685217990e+01 +1.1288499384654437e-03 +0.0000000000000000e+00 +9.9999936284870550e-01
-1.0999999999999977e+01 +9.0387347284772304e+00 +0.0000000000000000e+00 -1.0999997620916435e+01 +1.1392080227667354e-03 +0.0000000000000000e+00 +9.9999935110233018e-01
-1.1099999999999977e+01 +9.0386202897697778e+00 +0.0000000000000000e+00 -1.1099997555434879e+01 +1.1495661301086230e-03 +0.0000000000000000e+00 +9.9999933924863826e-01
-1.1199999999999976e+01 +9.0385048152504481e+00 +0.0000000000000000e+00 -1.1199997488762586e+01 +1.1599242602548944e-03 +0.0000000000000000e+00 +9.9999932728762930e-01
-1.1299999999999976e+01 +9.0383883049169746e+00 +0.0000000000000000e+00 -1.1299997420888827e+01 +1.1702824129727282e-03 +0.0000000000000000e+00 +9.9999931521930285e-01
-1.1399999999999975e+01 +9.0382707587671103e+00 +0.0000000000000000e+00 -1.1399997351802870e+01 +1.1806405880326744e-03 +0.0000000000000000e+00 +9.9999930304365847e-01
-1.1499999999999975e+01 +9.0381521767986310e+00 +0.0000000000000000e+00 -1.1499997281493982e+01 +1.1909987852086346e-03 +0.0000000000000000e+00 +9.9999929076069571e-01
-1.1599999999999975e+01 +9.0380325590093378e+00 +0.0000000000000000e+00 -1.1599997209951432e+01 +1.2013570042778436e-03 +0.0000000000000000e+00 +9.9999927837041414e-01
-1.1699999999999974e+01 +9.0379119053970527e+00 +0.0000000000000000e+00 -1.1699997137164488e+01 +1.2117152450208484e-03 +0.0000000000000000e+00 +9.9999926587281340e-01
