# field on trajectory
# s[mm] rx[mm] ry[mm] rz[mm] bx[T] by[T] bz[T]
0.0000000000000000e+00 +9.1013000000000002e+00 +0.0000000000000000e+00 +0.0000000000000000e+00 +5.7307380135578505e-02 -1.0594575893439055e+00 +5.8027622614161807e-03
1.0000000000000001e-01 +9.1012994830150280e+00 +0.0000000000000000e+00 +9.9999999998218167e-02 +5.7306560030130987e-02 -1.0594580074989899e+00 +5.8028610731950753e-03
2.0000000000000001e-01 +9.1012979320598362e+00 +0.0000000000000000e+00 +1.9999999998574541e-01 +5.7305758503436235e-02 -1.0594584396618956e+00 +5.8029607544753921e-03
3.0000000000000004e-01 +9.1012953471340019e+00 +0.0000000000000000e+00 +2.9999999995189075e-01 +5.7304975693824083e-02 -1.0594588859957335e+00 +5.8030611621649342e-03
4.0000000000000002e-01 +9.1012917282370918e+00 +0.0000000000000000e+00 +3.9999999988596324e-01 +5.7304211739631794e-02 -1.0594593466636788e+00 +5.8031621531689339e-03
5.0000000000000000e-01 +9.1012870753686546e+00 +0.0000000000000000e+00 +4.9999999977727189e-01 +5.7303466779203768e-02 -1.0594598218289637e+00 +5.8032635843898901e-03
5.9999999999999998e-01 +9.1012813885282284e+00 +0.0000000000000000e+00 +5.9999999961512562e-01 +5.7302740950891627e-02 -1.0594603116548746e+00 +5.8033653127274234e-03
6.9999999999999996e-01 +9.1012746677153356e+00 +0.0000000000000000e+00 +6.9999999938883350e-01 +5.7302034393054105e-02 -1.0594608163047450e+00 +5.8034671950781295e-03
7.9999999999999993e-01 +9.1012669129294856e+00 +0.0000000000000000e+00 +7.9999999908770458e-01 +5.7301347244056854e-02 -1.0594613359419502e+00 +5.8035690883354125e-03
8.9999999999999991e-01 +9.1012581241701707e+00 +0.0000000000000000e+00 +8.9999999870104763e-01 +5.7300679642272485e-02 -1.0594618707299033e+00 +5.8036708493893431e-03
9.9999999999999989e-01 +9.1012483014368701e+00 +0.0000000000000000e+00 +9.9999999821817176e-01 +5.7300031726080468e-02 -1.0594624208320509e+00 +5.8037723351265042e-03
1.0999999999999999e+00 +9.1012374447290476e+00 +0.0000000000000000e+00 +1.0999999976283859e+00 +5.7299403633866944e-02 -1.0594629864118641e+00 +5.8038734024298379e-03
1.2000000000000000e+00 +9.1012255540461524e+00 +0.0000000000000000e+00 +1.1999999969209987e+00 +5.7298795504024794e-02 -1.0594635676328370e+00 +5.8039739081784895e-03
1.3000000000000000e+00 +9.1012126293876197e+00 +0.0000000000000000e+00 +1.2999999960853192e+00 +5.7298207474953414e-02 -1.0594641646584806e+00 +5.8040737092476587e-03
1.4000000000000001e+00 +9.1011986707528667e+00 +0.0000000000000000e+00 +1.3999999951106563e+00 +5.7297639685058729e-02 -1.0594647776523165e+00 +5.8041726625084455e-03
1.5000000000000002e+00 +9.1011836781412967e+00 +0.0000000000000000e+00 +1.4999999939863189e+00 +5.7297092272753085e-02 -1.0594654067778724e+00 +5.8042706248276977e-03
1.6000000000000003e+00 +9.1011676515522986e+00 +0.0000000000000000e+00 +1.5999999927016155e+00 +5.7296565376455139e-02 -1.0594660521986781e+00 +5.8043674530678553e-03
1.7000000000000004e+00 +9.1011505909852435e+00 +0.0000000000000000e+00 +1.6999999912458552e+00 +5.7296059134589759e-02 -1.0594667140782574e+00 +5.8044630040868014e-03
1.8000000000000005e+00 +9.1011324964394866e+00 +0.0000000000000000e+00 +1.7999999896083467e+00 +5.7295573685588026e-02 -1.0594673925801259e+00 +5.8045571347376985e-03
1.9000000000000006e+00 +9.1011133679143690e+00 +0.0000000000000000e+00 +1.8999999877783988e+00 +5.7295109167887083e-02 -1.0594680878677847e+00 +5.8046497018688498e-03
2.0000000000000004e+00 +9.1010932054092137e+00 +0.0000000000000000e+00 +1.9999999857453203e+00 +5.7294665719930048e-02 -1.0594688001047139e+00 +5.8047405623235333e-03
2.1000000000000005e+00 +9.1010720089233281e+00 +0.0000000000000000e+00 +2.0999999834984200e+00 +5.7294243453617416e-02 -1.0594695295159349e+00 +5.8048296176134821e-03
2.2000000000000006e+00 +9.1010497784560016e+00 +0.0000000000000000e+00 +2.1999999810270063e+00 +5.7293842374656720e-02 -1.0594702765727064e+00 +5.8049169479418364e-03
2.3000000000000007e+00 +9.1010265140065076e+00 +0.0000000000000000e+00 +2.2999999783203879e+00 +5.7293462462199157e-02 -1.0594710418078248e+00 +5.8050026781860942e-03
2.4000000000000008e+00 +9.1010022155741019e+00 +0.0000000000000000e+00 +2.3999999753678734e+00 +5.7293103695385414e-02 -1.0594718257540621e+00 +5.8050869332255265e-03
2.5000000000000009e+00 +9.1009768831580224e+00 +0.0000000000000000e+00 +2.4999999721587711e+00 +5.7292766053343915e-02 -1.0594726289441547e+00 +5.8051698379417626e-03
2.6000000000000010e+00 +9.1009505167574876e+00 +0.0000000000000000e+00 +2.5999999686823903e+00 +5.7292449515189123e-02 -1.0594734519108038e+00 +5.8052515172193828e-03
2.7000000000000011e+00 +9.1009231163716962e+00 +0.0000000000000000e+00 +2.6999999649280388e+00 +5.7292154060019890e-02 -1.0594742951866714e+00 +5.8053320959464971e-03
2.8000000000000012e+00 +9.1008946819998293e+00 +0.0000000000000000e+00 +2.7999999608850259e+00 +5.7291879666917671e-02 -1.0594751593043745e+00 +5.8054116990153525e-03
2.9000000000000012e+00 +9.1008652136410468e+00 +0.0000000000000000e+00 +2.8999999565426595e+00 +5.7291626314944909e-02 -1.0594760447964813e+00 +5.8054904513228983e-03
3.0000000000000013e+00 +9.1008347112944854e+00 +0.0000000000000000e+00 +2.9999999518902483e+00 +5.7291393983143264e-02 -1.0594769521955092e+00 +5.8055684777714011e-03
3.1000000000000014e+00 +9.1008031749592657e+00 +0.0000000000000000e+00 +3.0999999469171007e+00 +5.7291182650531923e-02 -1.0594778820339188e+00 +5.8056459032690116e-03
3.2000000000000015e+00 +9.1007706046344818e+00 +0.0000000000000000e+00 +3.1999999416125249e+00 +5.7290992296105930e-02 -1.0594788348441111e+00 +5.8057228527303760e-03
3.3000000000000016e+00 +9.1007370003192083e+00 +0.0000000000000000e+00 +3.2999999359658294e+00 +5.7290822898834456e-02 -1.0594798111584225e+00 +5.8057994510772063e-03
3.4000000000000017e+00 +9.1007023620124947e+00 +0.0000000000000000e+00 +3.3999999299663224e+00 +5.7290674437659124e-02 -1.0594808115091225e+00 +5.8058758232388871e-03
3.5000000000000018e+00 +9.1006666897133695e+00 +0.0000000000000000e+00 +3.4999999236033119e+00 +5.7290546891492170e-02 -1.0594818364284078e+00 +5.8059520941530583e-03
3.6000000000000019e+00 +9.1006299834208342e+00 +0.0000000000000000e+00 +3.5999999168661065e+00 +5.7290440239215021e-02 -1.0594828864483996e+00 +5.8060283887662193e-03
3.7000000000000020e+00 +9.1005922431338693e+00 +0.0000000000000000e+00 +3.6999999097440144e+00 +5.7290354459676299e-02 -1.0594839621011396e+00 +5.8061048320343046e-03
3.8000000000000020e+00 +9.1005534688514302e+00 +0.0000000000000000e+00 +3.7999999022263440e+00 +5.7290289531690304e-02 -1.0594850639185847e+00 +5.8061815489232867e-03
3.9000000000000021e+00 +9.1005136605724442e+00 +0.0000000000000000e+00 +3.8999998943024030e+00 +5.7290245434035242e-02 -1.0594861924326062e+00 +5.8062586644097736e-03
4.0000000000000018e+00 +9.1004728182958150e+00 +0.0000000000000000e+00 +3.9999998859614996e+00 +5.7290222145451486e-02 -1.0594873481749820e+00 +5.8063363034815945e-03
4.1000000000000014e+00 +9.1004309420204184e+00 +0.0000000000000000e+00 +4.0999998771929418e+00 +5.7290219600482854e-02 -1.0594885314184981e+00 +5.8064146058390267e-03
4.2000000000000011e+00 +9.1003880317451031e+00 +0.0000000000000000e+00 +4.1999998679860369e+00 +5.7290237557019966e-02 -1.0594897414002973e+00 +5.8064937699926333e-03
4.3000000000000007e+00 +9.1003440874686952e+00 +0.0000000000000000e+00 +4.2999998583300938e+00 +5.7290275728801382e-02 -1.0594909770986505e+00 +5.8065740091529225e-03
4.4000000000000004e+00 +9.1002991091899919e+00 +0.0000000000000000e+00 +4.3999998482144198e+00 +5.7290333829576580e-02 -1.0594922374918696e+00 +5.8066555365281656e-03
4.5000000000000000e+00 +9.1002530969077693e+00 +0.0000000000000000e+00 +4.4999998376283230e+00 +5.7290411573107346e-02 -1.0594935215583159e+00 +5.8067385653240997e-03
4.5999999999999996e+00 +9.1002060506207787e+00 +0.0000000000000000e+00 +4.5999998265611115e+00 +5.7290508673169101e-02 -1.0594948282763981e+00 +5.8068233087436374e-03
4.6999999999999993e+00 +9.1001579703277482e+00 +0.0000000000000000e+00 +4.6999998150020925e+00 +5.7290624843552337e-02 -1.0594961566245817e+00 +5.8069099799865692e-03
4.7999999999999989e+00 +9.1001088560273882e+00 +0.0000000000000000e+00 +4.7999998029405742e+00 +5.7290759798063876e-02 -1.0594975055813918e+00 +5.8069987922492782e-03
4.8999999999999986e+00 +9.1000587077183877e+00 +0.0000000000000000e+00 +4.8999997903658636e+00 +5.7290913250528430e-02 -1.0594988741254163e+00 +5.8070899587244363e-03
4.9999999999999982e+00 +9.1000075253994162e+00 +0.0000000000000000e+00 +4.9999997772672682e+00 +5.7291084914789882e-02 -1.0595002612353122e+00 +5.8071836926007177e-03
5.0999999999999979e+00 +9.0999553090691254e+00 +0.0000000000000000e+00 +5.0999997636340959e+00 +5.7291274504712567e-02 -1.0595016658898091e+00 +5.8072802070624971e-03
5.1999999999999975e+00 +9.0999020587261512e+00 +0.0000000000000000e+00 +5.1999997494556540e+00 +5.7291481734182859e-02 -1.0595030870677122e+00 +5.8073797152895573e-03
5.2999999999999972e+00 +9.0998477743691115e+00 +0.0000000000000000e+00 +5.2999997347212506e+00 +5.7291706317110370e-02 -1.0595045237479093e+00 +5.8074824304567988e-03
5.3999999999999968e+00 +9.0997924559966101e+00 +0.0000000000000000e+00 +5.3999997194201921e+00 +5.7291947967429431e-02 -1.0595059749093731e+00 +5.8075885657339283e-03
5.4999999999999964e+00 +9.0997361036072366e+00 +0.0000000000000000e+00 +5.4999997035417865e+00 +5.7292206399100411e-02 -1.0595074395311657e+00 +5.8076983342851742e-03
5.5999999999999961e+00 +9.0996787171995681e+00 +0.0000000000000000e+00 +5.5999996870753410e+00 +5.7292481326111117e-02 -1.0595089165924441e+00 +5.8078119492689781e-03
5.6999999999999957e+00 +9.0996202967721693e+00 +0.0000000000000000e+00 +5.6999996700101621e+00 +5.7292772462478207e-02 -1.0595104050724635e+00 +5.8079296238377010e-03
5.7999999999999954e+00 +9.0995608423235925e+00 +0.0000000000000000e+00 +5.7999996523355577e+00 +5.7293079522248477e-02 -1.0595119039505825e+00 +5.8080515711373300e-03
5.8999999999999950e+00 +9.0995003538523829e+00 +0.0000000000000000e+00 +5.8999996340408352e+00 +5.7293402219500293e-02 -1.0595134122062664e+00 +5.8081780043071568e-03
5.9999999999999947e+00 +9.0994388313570749e+00 +0.0000000000000000e+00 +5.9999996151153008e+00 +5.7293740268345023e-02 -1.0595149288190919e+00 +5.8083091364794981e-03
6.0999999999999943e+00 +9.0993762748361942e+00 +0.0000000000000000e+00 +6.0999995955482618e+00 +5.7294093302719701e-02 -1.0595164529102679e+00 +5.8084450485557399e-03
6.1999999999999940e+00 +9.0993126842882610e+00 +0.0000000000000000e+00 +6.1999995753290253e+00 +5.7294460635749611e-02 -1.0595179841671414e+00 +5.8085852925318752e-03
6.2999999999999936e+00 +9.0992480597117869e+00 +0.0000000000000000e+00 +6.2999995544468979e+00 +5.7294841500359864e-02 -1.0595195224185643e+00 +5.8087292881774041e-03
6.3999999999999932e+00 +9.0991824011052778e+00 +0.0000000000000000e+00 +6.3999995328911874e+00 +5.7295235129483833e-02 -1.0595210674933597e+00 +5.8088764552627660e-03
6.4999999999999929e+00 +9.0991157084672327e+00 +0.0000000000000000e+00 +6.4999995106511994e+00 +5.7295640756063262e-02 -1.0595226192203204e+00 +5.8090262135594272e-03
6.5999999999999925e+00 +9.0990479817961454e+00 +0.0000000000000000e+00 +6.5999994877162411e+00 +5.7296057613048554e-02 -1.0595241774282076e+00 +5.8091779828399184e-03
6.6999999999999922e+00 +9.0989792210905005e+00 +0.0000000000000000e+00 +6.6999994640756197e+00 +5.7296484933398902e-02 -1.0595257419457478e+00 +5.8093311828779030e-03
6.7999999999999918e+00 +9.0989094263487811e+00 +0.0000000000000000e+00 +6.7999994397186416e+00 +5.7296921950082638e-02 -1.0595273126016329e+00 +5.8094852334482352e-03
6.8999999999999915e+00 +9.0988385975694595e+00 +0.0000000000000000e+00 +6.8999994146346131e+00 +5.7297367896077346e-02 -1.0595288892245176e+00 +5.8096395543270228e-03
6.9999999999999911e+00 +9.0987667347510062e+00 +0.0000000000000000e+00 +6.9999993888128405e+00 +5.7297822004370093e-02 -1.0595304716430181e+00 +5.8097935652916778e-03
7.0999999999999908e+00 +9.0986938378918829e+00 +0.0000000000000000e+00 +7.0999993622426310e+00 +5.7298283507957681e-02 -1.0595320596857081e+00 +5.8099466861209949e-03
7.1999999999999904e+00 +9.0986199069905496e+00 +0.0000000000000000e+00 +7.1999993349132909e+00 +5.7298751639846823e-02 -1.0595336531811210e+00 +5.8100983365951889e-03
7.2999999999999901e+00 +9.0985449420454572e+00 +0.0000000000000000e+00 +7.2999993068141267e+00 +5.7299225633054438e-02 -1.0595352519577461e+00 +5.8102479364959833e-03
7.3999999999999897e+00 +9.0984689430550549e+00 +0.0000000000000000e+00 +7.3999992779344446e+00 +5.7299704720607747e-02 -1.0595368558440246e+00 +5.8103949056066461e-03
7.4999999999999893e+00 +9.0983919100177832e+00 +0.0000000000000000e+00 +7.4999992482635509e+00 +5.7300188135544640e-02 -1.0595384646683528e+00 +5.8105386637120685e-03
7.5999999999999890e+00 +9.0983138429320825e+00 +0.0000000000000000e+00 +7.5999992177907512e+00 +5.7300675110913746e-02 -1.0595400782590769e+00 +5.8106786305988220e-03
7.6999999999999886e+00 +9.0982347417963858e+00 +0.0000000000000000e+00 +7.6999991865053525e+00 +5.7301164879774741e-02 -1.0595416964444910e+00 +5.8108142260552189e-03
7.7999999999999883e+00 +9.0981546066091230e+00 +0.0000000000000000e+00 +7.7999991543966605e+00 +5.7301656675198577e-02 -1.0595433190528385e+00 +5.8109448698713800e-03
7.8999999999999879e+00 +9.0980734373687184e+00 +0.0000000000000000e+00 +7.8999991214539813e+00 +5.7302149730267676e-02 -1.0595449459123056e+00 +5.8110699818392968e-03
7.9999999999999876e+00 +9.0979912340735929e+00 +0.0000000000000000e+00 +7.9999990876666214e+00 +5.7302643278076090e-02 -1.0595465768510244e+00 +5.8111889817528926e-03
8.0999999999999872e+00 +9.0979079967221637e+00 +0.0000000000000000e+00 +8.0999990530238861e+00 +5.7303136670165677e-02 -1.0595482116597492e+00 +5.8113014954308427e-03
8.1999999999999869e+00 +9.0978237253128427e+00 +0.0000000000000000e+00 +8.1999990175150828e+00 +5.7303629731830744e-02 -1.0595498499799358e+00 +5.8114079727925117e-03
8.2999999999999865e+00 +9.0977384198440419e+00 +0.0000000000000000e+00 +8.2999989811295158e+00 +5.7304122406775786e-02 -1.0595514914157802e+00 +5.8115090697517524e-03
8.3999999999999861e+00 +9.0976520803141678e+00 +0.0000000000000000e+00 +8.3999989438564917e+00 +5.7304614638668039e-02 -1.0595531355715546e+00 +5.8116054421779029e-03
8.4999999999999858e+00 +9.0975647067216254e+00 +0.0000000000000000e+00 +8.4999989056853149e+00 +5.7305106371136116e-02 -1.0595547820516065e+00 +5.8116977458944740e-03
8.5999999999999854e+00 +9.0974762990648177e+00 +0.0000000000000000e+00 +8.5999988666052936e+00 +5.7305597547768899e-02 -1.0595564304603646e+00 +5.8117866366778391e-03
8.6999999999999851e+00 +9.0973868573421441e+00 +0.0000000000000000e+00 +8.6999988266057304e+00 +5.7306088112114233e-02 -1.0595580804023375e+00 +5.8118727702559329e-03
8.7999999999999847e+00 +9.0972963815520060e+00 +0.0000000000000000e+00 +8.7999987856759336e+00 +5.7306578007677668e-02 -1.0595597314821199e+00 +5.8119568023069232e-03
8.8999999999999844e+00 +9.0972048716927993e+00 +0.0000000000000000e+00 +8.8999987438052077e+00 +5.7307067177921202e-02 -1.0595613833043924e+00 +5.8120393884579227e-03
8.9999999999999840e+00 +9.0971123277629236e+00 +0.0000000000000000e+00 +8.9999987009828590e+00 +5.7307555566262172e-02 -1.0595630354739252e+00 +5.8121211842836681e-03
9.0999999999999837e+00 +9.0970187497607764e+00 +0.0000000000000000e+00 +9.0999986571981921e+00 +5.7308043116071718e-02 -1.0595646875955780e+00 +5.8122028453052059e-03
9.1999999999999833e+00 +9.0969241376847538e+00 +0.0000000000000000e+00 +9.1999986124405115e+00 +5.7308529770673890e-02 -1.0595663392743062e+00 +5.8122850269886062e-03
9.2999999999999829e+00 +9.0968284915332553e+00 +0.0000000000000000e+00 +9.2999985666991236e+00 +5.7309015473344119e-02 -1.0595679901151609e+00 +5.8123683847436216e-03
9.3999999999999826e+00 +9.0967318113046804e+00 +0.0000000000000000e+00 +9.3999985199633347e+00 +5.7309500167308125e-02 -1.0595696397232917e+00 +5.8124535739224074e-03
9.4999999999999822e+00 +9.0966340969974286e+00 +0.0000000000000000e+00 +9.4999984722224493e+00 +5.7309983795740628e-02 -1.0595712877039476e+00 +5.8125412498181983e-03
9.5999999999999819e+00 +9.0965353486099012e+00 +0.0000000000000000e+00 +9.5999984234657720e+00 +5.7310466301764132e-02 -1.0595729336624833e+00 +5.8126320676640131e-03
9.6999999999999815e+00 +9.0964355661405047e+00 +0.0000000000000000e+00 +9.6999983736826074e+00 +5.7310947628447628e-02 -1.0595745772043572e+00 +5.8127266826313280e-03
9.7999999999999812e+00 +9.0963347495876441e+00 +0.0000000000000000e+00 +9.7999983228622618e+00 +5.7311427718805347e-02 -1.0595762179351371e+00 +5.8128257498287900e-03
9.8999999999999808e+00 +9.0962328989497294e+00 +0.0000000000000000e+00 +9.8999982709940397e+00 +5.7311906515795652e-02 -1.0595778554604998e+00 +5.8129299243009002e-03
9.9999999999999805e+00 +9.0961300142251726e+00 +0.0000000000000000e+00 +9.9999982180672475e+00 +5.7312383962319580e-02 -1.0595794893862367e+00 +5.8130398610267099e-03
1.0099999999999980e+01 +9.0960260954123910e+00 +0.0000000000000000e+00 +1.0099998164071190e+01 +5.7312860011258279e-02 -1.0595811191857181e+00 +5.8131560254624194e-03
1.0199999999999980e+01 +9.0959211425098054e+00 +0.0000000000000000e+00 +1.0199998108995171e+01 +5.7313334655623507e-02 -1.0595827438022269e+00 +5.8132781251879232e-03
1.0299999999999979e+01 +9.0958151555158420e+00 +0.0000000000000000e+00 +1.0299998052828496e+01 +5.7313807898500796e-02 -1.0595843620464993e+00 +5.8134056783949685e-03
1.0399999999999979e+01 +9.0957081344289321e+00 +0.0000000000000000e+00 +1.0399997995560469e+01 +5.7314279743019655e-02 -1.0595859727292636e+00 +5.8135382033803222e-03
1.0499999999999979e+01 +9.0956000792475162e+00 +0.0000000000000000e+00 +1.0499997937180394e+01 +5.7314750192354720e-02 -1.0595875746612367e+00 +5.8136752185486253e-03
1.0599999999999978e+01 +9.0954909899700418e+00 +0.0000000000000000e+00 +1.0599997877677579e+01 +5.7315219249727128e-02 -1.0595891666531283e+00 +5.8138162424152635e-03
1.0699999999999978e+01 +9.0953808665949669e+00 +0.0000000000000000e+00 +1.0699997817041327e+01 +5.7315686918405710e-02 -1.0595907475156336e+00 +5.8139607936092278e-03
1.0799999999999978e+01 +9.0952697091207604e+00 +0.0000000000000000e+00 +1.0799997755260941e+01 +5.7316153201708325e-02 -1.0595923160594389e+00 +5.8141083908759758e-03
1.0899999999999977e+01 +9.0951575175459034e+00 +0.0000000000000000e+00 +1.0899997692325728e+01 +5.7316618103003085e-02 -1.0595938710952155e+00 +5.8142585530802891e-03
1.0999999999999977e+01 +9.0950442918688914e+00 +0.0000000000000000e+00 +1.0999997628224992e+01 +5.7317081625709670e-02 -1.0595954114336235e+00 +5.8144107992091458e-03
1.1099999999999977e+01 +9.0949300320882323e+00 +0.0000000000000000e+00 +1.1099997562948039e+01 +5.7317543773300533e-02 -1.0595969358853072e+00 +5.8145646483745653e-03
1.1199999999999976e+01 +9.0948147382024498e+00 +0.0000000000000000e+00 +1.1199997496484171e+01 +5.7318004549302186e-02 -1.0595984432608962e+00 +5.8147196198164736e-03
1.1299999999999976e+01 +9.0946984102100874e+00 +0.0000000000000000e+00 +1.1299997428822694e+01 +5.7318463957296534e-02 -1.0595999323710050e+00 +5.8148752329055765e-03
1.1399999999999975e+01 +9.0945810481097027e+00 +0.0000000000000000e+00 +1.1399997359952911e+01 +5.7318922000922035e-02 -1.0596014020262308e+00 +5.8150310071461934e-03
1.1499999999999975e+01 +9.0944626518998746e+00 +0.0000000000000000e+00 +1.1499997289864128e+01 +5.7319378683875051e-02 -1.0596028510371536e+00 +5.8151864621791369e-03
1.1599999999999975e+01 +9.0943432215792015e+00 +0.0000000000000000e+00 +1.1599997218545649e+01 +5.7319834009911079e-02 -1.0596042782143351e+00 +5.8153411177845598e-03
1.1699999999999974e+01 +9.0942227571463050e+00 +0.0000000000000000e+00 +1.1699997145986780e+01 +5.7320287982845976e-02 -1.0596056823683182e+00 +5.8154944938848107e-03
1.1799999999999974e+01 +9.0941012585998262e+00 +0.0000000000000000e+00 +1.1799997072176822e+01 +5.7320740606557348e-02 -1.0596070623096263e+00 +5.8156461105472977e-03
