# multipoles
# s[mm] polynom_b[n=0][T/m^n] polynom_b[n=1][T/m^n] polynom_b[n=2][T/m^n] polynom_b[n=3][T/m^n] polynom_b[n=4][T/m^n] polynom_b[n=5][T/m^n] polynom_b[n=6][T/m^n] 
+0.0000000000000000e+00 -1.0594443929300776e+00 +2.3583400296815902e+00 +2.0085498894131067e+01 +5.1828019555304676e+00 +7.1076637061807114e+03 +6.2123859736948169e+05 +7.8246669351278525e+06 
+1.0000000000000001e-01 -1.0594448992936587e+00 +2.3583418188063416e+00 +2.0091835165703053e+01 +4.9966325705002692e+00 +6.9777122706442688e+03 +6.2280042188514629e+05 +8.4530957713662330e+06 
+2.0000000000000001e-01 -1.0594454217748568e+00 +2.3583442476917034e+00 +2.0097694187222565e+01 +4.8333198561064821e+00 +6.8598181556280460e+03 +6.2415823113269964e+05 +9.0187818140384834e+06 
+3.0000000000000004e-01 -1.0594459599288204e+00 +2.3583472578633353e+00 +2.0103055929548137e+01 +4.6916516147675873e+00 +6.7539527314455654e+03 +6.2532174494399235e+05 +9.5226158485261425e+06 
+4.0000000000000002e-01 -1.0594465133107231e+00 +2.3583507908418215e+00 +2.0107900365207570e+01 +4.5704157241076500e+00 +6.6600873408994921e+03 +6.2630068304840010e+05 +9.9654887954402827e+06 
+5.0000000000000000e-01 -1.0594470814757311e+00 +2.3583547881550242e+00 +2.0112207464937228e+01 +4.4683997917878004e+00 +6.5781933656737174e+03 +6.2710476701266295e+05 +1.0348291390180791e+07 
+5.9999999999999998e-01 -1.0594476639789936e+00 +2.3583591913364197e+00 +2.0115957197108383e+01 +4.3843912037069757e+00 +6.5082422298007714e+03 +6.2774371995589230e+05 +1.0671914185958290e+07 
+6.9999999999999996e-01 -1.0594482603757045e+00 +2.3583639419221512e+00 +2.0119129534615386e+01 +4.3171772555962526e+00 +6.4502052766621009e+03 +6.2822726563224487e+05 +1.0937248114166768e+07 
+7.9999999999999993e-01 -1.0594488702209861e+00 +2.3583689814518918e+00 +2.0121704441022754e+01 +4.2655451123082599e+00 +6.4040540327441440e+03 +6.2856512870263471e+05 +1.1145183224211890e+07 
+8.9999999999999991e-01 -1.0594494930700116e+00 +2.3583742514749542e+00 +2.0123661885301100e+01 +4.2282816604902296e+00 +6.3697599255735149e+03 +6.2876703548005165e+05 +1.1296610033464449e+07 
+9.9999999999999989e-01 -1.0594501284779230e+00 +2.3583796935365071e+00 +2.0124981832858673e+01 +4.2041739205101685e+00 +6.3472944527139553e+03 +6.2884271149715537e+05 +1.1392418719732709e+07 
+1.0999999999999999e+00 -1.0594507759998844e+00 +2.3583852491997797e+00 +2.0125644251184863e+01 +4.1920084206105468e+00 +6.3366290797550491e+03 +6.2880188506618631e+05 +1.1433499591882013e+07 
+1.2000000000000000e+00 -1.0594514351909843e+00 +2.3583908600236425e+00 +2.0125629098025804e+01 +4.1905718512688539e+00 +6.3377354634773610e+03 +6.2865428345634567e+05 +1.1420742032471217e+07 
+1.3000000000000000e+00 -1.0594521056063921e+00 +2.3583964675781859e+00 +2.0124916341728920e+01 +4.1986506424248846e+00 +6.3505850615399004e+03 +6.2840963525007444e+05 +1.1355036358428786e+07 
+1.4000000000000001e+00 -1.0594527868012262e+00 +2.3584020134370447e+00 +2.0123485943360059e+01 +4.2150311928900237e+00 +6.3751494821023425e+03 +6.2807766897203622e+05 +1.1237272131890614e+07 
+1.5000000000000002e+00 -1.0594534783305638e+00 +2.3584074391831988e+00 +2.0121317859871606e+01 +4.2384997116440486e+00 +6.4114004141282949e+03 +6.2766811397220800e+05 +1.1068338513417386e+07 
+1.6000000000000003e+00 -1.0594541797495329e+00 +2.3584126864031854e+00 +2.0118392054187851e+01 +4.2678424194682787e+00 +6.4593094432426687e+03 +6.2719069913829456e+05 +1.0849125116887555e+07 
+1.7000000000000004e+00 -1.0594548906132348e+00 +2.3584176966922508e+00 +2.0114688486822669e+01 +4.3018453932019094e+00 +6.5188482040895724e+03 +6.2665515381025104e+05 +1.0580521299945617e+07 
+1.8000000000000005e+00 -1.0594556104767126e+00 +2.3584224116540677e+00 +2.0110187110815748e+01 +4.3392945974088031e+00 +6.5899884876772858e+03 +6.2607120750982745e+05 +1.0263415621592170e+07 
+1.9000000000000006e+00 -1.0594563388950489e+00 +2.3584267728977024e+00 +2.0104867885089572e+01 +4.3789759967866946e+00 +6.6727019779821485e+03 +6.2544858919927245e+05 +9.8986971184264738e+06 
+2.0000000000000004e+00 -1.0594570754232882e+00 +2.3584307220446643e+00 +2.0098710764056388e+01 +4.4196753453560369e+00 +6.7669604578462713e+03 +6.2479702852980618e+05 +9.4872543011280503e+06 
+2.1000000000000005e+00 -1.0594578199051365e+00 +2.3584342126289579e+00 +2.0091713519874901e+01 +4.4602736313960598e+00 +6.8725473032780583e+03 +6.2412610990778066e+05 +9.0306260504667275e+06 
+2.2000000000000006e+00 -1.0594585733471533e+00 +2.3584372486757785e+00 +2.0083946051498703e+01 +4.4998523547833305e+00 +6.9884669575262651e+03 +6.2344565346778533e+05 +8.5330702571607325e+06 
+2.3000000000000007e+00 -1.0594593370487235e+00 +2.3584398474947301e+00 +2.0075496508105523e+01 +4.5375001143994647e+00 +7.1135229074520967e+03 +6.2276573465575557e+05 +7.9995534903192418e+06 
+2.4000000000000008e+00 -1.0594601123091889e+00 +2.3584420263972570e+00 +2.0066453034203466e+01 +4.5723053727382537e+00 +7.2465187266114017e+03 +6.2209642994919303e+05 +7.4350418976142034e+06 
+2.5000000000000009e+00 -1.0594609004279421e+00 +2.3584438026864567e+00 +2.0056903781104204e+01 +4.6033567447219079e+00 +7.3862578569314328e+03 +6.2144781520253164e+05 +6.8445022447289554e+06 
+2.6000000000000010e+00 -1.0594617027043218e+00 +2.3584451936703013e+00 +2.0046936894153102e+01 +4.6297425911621053e+00 +7.5315438511476332e+03 +6.2082996807690733e+05 +6.2329007602819828e+06 
+2.7000000000000011e+00 -1.0594625204377226e+00 +2.3584462166443458e+00 +2.0036640526240639e+01 +4.6505515012135490e+00 +7.6811801118089124e+03 +6.2025296529279370e+05 +5.6052043919149097e+06 
+2.8000000000000012e+00 -1.0594633549275128e+00 +2.3584468889068284e+00 +2.0026102827843175e+01 +4.6648718610889190e+00 +7.8339700836523944e+03 +6.1972688512534357e+05 +4.9663798774314914e+06 
+2.9000000000000012e+00 -1.0594642074730840e+00 +2.3584472277466770e+00 +2.0015411953214393e+01 +4.6717921484152320e+00 +7.9887171333131164e+03 +6.1926180584894994e+05 +4.3213943254030459e+06 
+3.0000000000000013e+00 -1.0594650793738303e+00 +2.3584472504445961e+00 +2.0004656057671859e+01 +4.6704009338307992e+00 +8.1442245987870110e+03 +6.1886780562876677e+05 +3.6752149876149381e+06 
+3.1000000000000014e+00 -1.0594659719291633e+00 +2.3584469742767902e+00 +1.9993923299941979e+01 +4.6597867168957761e+00 +8.2992957443119449e+03 +6.1855496365048399e+05 +3.0328094694995661e+06 
+3.2000000000000015e+00 -1.0594668864384753e+00 +2.3584464165121632e+00 +1.9983301836745738e+01 +4.6390380024626330e+00 +8.4527338689513635e+03 +6.1833335968581843e+05 +2.3991452002172186e+06 
+3.3000000000000016e+00 -1.0594678242012003e+00 +2.3584455944101581e+00 +1.9972879831323969e+01 +4.6072433766722911e+00 +8.6033421344568560e+03 +6.1821307361948991e+05 +1.7791902786130935e+06 
+3.4000000000000017e+00 -1.0594687865167824e+00 +2.3584445252205133e+00 +1.9962745449589722e+01 +4.5634914461703655e+00 +8.7499236388438367e+03 +6.1820418599332718e+05 +1.1779131199244426e+06 
+3.5000000000000018e+00 -1.0594697746846826e+00 +2.3584432261782919e+00 +1.9952986860514667e+01 +4.5068710221427768e+00 +8.8912814121782958e+03 +6.1831677683647629e+05 +6.0028246853716648e+05 
+3.6000000000000019e+00 -1.0594707900043312e+00 +2.3584417145175616e+00 +1.9943692229819099e+01 +4.4364706586759102e+00 +9.0262185403220283e+03 +6.1856092852811306e+05 +5.1266793939447001e+04 
+3.7000000000000020e+00 -1.0594718337752191e+00 +2.3584400074493335e+00 +1.9934949732937884e+01 +4.3513793169400525e+00 +9.1535379025253351e+03 +6.1894672187680239e+05 -4.6416441183282563e+05 
+3.8000000000000020e+00 -1.0594729072968572e+00 +2.3584381221777844e+00 +1.9926847548589926e+01 +4.2506858651623567e+00 +9.2720423058854503e+03 +6.1948423910866352e+05 -9.4104131377755257e+05 
+3.9000000000000021e+00 -1.0594740118687431e+00 +2.3584360758961562e+00 +1.9919473855669455e+01 +4.1334791609743240e+00 +9.3805345377332142e+03 +6.2018356350490625e+05 -1.3743939623684122e+06 
+4.0000000000000018e+00 -1.0594751487903995e+00 +2.3584338857757632e+00 +1.9912916836455267e+01 +3.9988484213277915e+00 +9.4778173135293509e+03 +6.2105477701344586e+05 -1.7592520815960430e+06 
+4.1000000000000014e+00 -1.0594763189230847e+00 +2.3584315633018664e+00 +1.9907243311095336e+01 +3.8466219638333508e+00 +9.5629840724829319e+03 +6.2210147664680937e+05 -2.0919221966032078e+06 
+4.2000000000000011e+00 -1.0594775213420984e+00 +2.3584290922866717e+00 +1.9902430291258558e+01 +3.6796385993640466e+00 +9.6363488588039818e+03 +6.2330189496601454e+05 -2.3739689882470523e+06 
+4.3000000000000007e+00 -1.0594787546680857e+00 +2.3584264484099147e+00 +1.9898431269596394e+01 +3.5015088523550095e+00 +9.6985449306943065e+03 +6.2462800626327074e+05 -2.6083099603112005e+06 
+4.4000000000000004e+00 -1.0594800175215959e+00 +2.3584236073573166e+00 +1.9895199725364947e+01 +3.3158431382118327e+00 +9.7502058055150701e+03 +6.2605178552151285e+05 -2.7978638392057442e+06 
+4.5000000000000000e+00 -1.0594813085232095e+00 +2.3584205448131441e+00 +1.9892689138389628e+01 +3.1262519807995499e+00 +9.7919650054058056e+03 +6.2754520712486829e+05 -2.9455493861259096e+06 
+4.5999999999999996e+00 -1.0594826262934407e+00 +2.3584172364647484e+00 +1.9890852978614074e+01 +2.9363459068596307e+00 +9.8244562444151961e+03 +6.2908024542491080e+05 -3.0542862569758529e+06 
+4.6999999999999993e+00 -1.0594839694527884e+00 +2.3584136580016768e+00 +1.9889644710449922e+01 +2.7497354578269468e+00 +9.8483133617061540e+03 +6.3062887470800465e+05 -3.1269947256861748e+06 
+4.7999999999999989e+00 -1.0594853366217265e+00 +2.3584097851186301e+00 +1.9889017793689725e+01 +2.5700311350896752e+00 +9.8641702862224774e+03 +6.3216306944172550e+05 -3.1665954618586414e+06 
+4.8999999999999986e+00 -1.0594867264206655e+00 +2.3584055935120505e+00 +1.9888925675770128e+01 +2.4008434960212393e+00 +9.8726612038449894e+03 +6.3365480374273856e+05 -3.1760103809443666e+06 
+4.9999999999999982e+00 -1.0594881374700587e+00 +2.3584010588814799e+00 +1.9889321808244052e+01 +2.2457831252130189e+00 +9.8744202235777266e+03 +6.3507605151418282e+05 -3.1581609964852268e+06 
+5.0999999999999979e+00 -1.0594895683902206e+00 +2.3583961569291425e+00 +1.9890159620280876e+01 +2.1084606603532063e+00 +9.8700819073320199e+03 +6.3639878627523198e+05 -3.1159710104217418e+06 
+5.1999999999999975e+00 -1.0594910178014934e+00 +2.3583908633636215e+00 +1.9891392542271788e+01 +1.9924866983275964e+00 +9.8602807979263835e+03 +6.3759498167894781e+05 -3.0523639992040475e+06 
+5.2999999999999972e+00 -1.0594924843241829e+00 +2.3583851538961942e+00 +1.9892973995998585e+01 +1.9014718955745771e+00 +9.8456516225704399e+03 +6.3863661096080707e+05 -2.9702644272387899e+06 
+5.3999999999999968e+00 -1.0594939665785088e+00 +2.3583790042451227e+00 +1.9894857389006493e+01 +1.8390268703296664e+00 +9.8268293934227222e+03 +6.3949564743281715e+05 -2.8725981050509419e+06 
+5.4999999999999964e+00 -1.0594954631847033e+00 +2.3583723901296150e+00 +1.9896996126411935e+01 +1.8087623754071336e+00 +9.8044491852559131e+03 +6.4014406350928638e+05 -2.7622911341161137e+06 
+5.5999999999999961e+00 -1.0594969727629153e+00 +2.3583652872758050e+00 +1.9899343599022188e+01 +1.8142891469330624e+00 +9.7791463630861108e+03 +6.4055383153206937e+05 -2.6422709930948210e+06 
+5.6999999999999957e+00 -1.0594984939332568e+00 +2.3583576714172034e+00 +1.9901853188782159e+01 +1.8592178863627287e+00 +9.7515564782130714e+03 +6.4069692388778576e+05 -2.5154660400215285e+06 
+5.7999999999999954e+00 -1.0595000253158118e+00 +2.3583495182918295e+00 +1.9904478269653204e+01 +1.9471593603133071e+00 +9.7223152535383397e+03 +6.4054531240720942e+05 -2.3848054440157516e+06 
+5.8999999999999950e+00 -1.0595015655306221e+00 +2.3583408036388365e+00 +1.9907172206176416e+01 +2.0817245095516466e+00 +9.6920586083900816e+03 +6.4007096770790196e+05 -2.2532192962404643e+06 
+5.9999999999999947e+00 -1.0595031131976229e+00 +2.3583315032157910e+00 +1.9909888345025305e+01 +2.2665238725522299e+00 +9.6614228118858882e+03 +6.3924586294609436e+05 -2.1236392916016141e+06 
+6.0999999999999943e+00 -1.0595046671083803e+00 +2.3583215981187649e+00 +1.9912588220927187e+01 +2.5041277472968630e+00 +9.6309158317116671e+03 +6.3805039396722557e+05 -1.9983233779680245e+06 
+6.1999999999999940e+00 -1.0595062267649089e+00 +2.3583110912611143e+00 +1.9915269134709835e+01 +2.7930698279499087e+00 +9.6005392121195728e+03 +6.3649677251109807e+05 -1.8770988527426601e+06 
+6.2999999999999936e+00 -1.0595077918534890e+00 +2.3582999915071277e+00 +1.9917938167675246e+01 +3.1308750628984661e+00 +9.5701674784061670e+03 +6.3460493119033461e+05 -1.7592361280743845e+06 
+6.3999999999999932e+00 -1.0595093620604235e+00 +2.3582883077030861e+00 +1.9920602407815711e+01 +3.5150690075035702e+00 +9.5396750017954600e+03 +6.3239479824893991e+05 -1.6440048071622374e+06 
+6.4999999999999929e+00 -1.0595109370720617e+00 +2.3582760486870944e+00 +1.9923268951105776e+01 +3.9431776060546233e+00 +9.5089359819261972e+03 +6.2988629874636035e+05 -1.5306736282267764e+06 
+6.5999999999999925e+00 -1.0595125165747676e+00 +2.3582632232807210e+00 +1.9925944898229897e+01 +4.4127274070315110e+00 +9.4778245005613535e+03 +6.2709935335562320e+05 -1.4185106947636227e+06 
+6.6999999999999922e+00 -1.0595141002549227e+00 +2.3582498402920300e+00 +1.9928637355928434e+01 +4.9212455171108411e+00 +9.4462144923884753e+03 +6.2405387849350774e+05 -1.3067833297066332e+06 
+6.7999999999999918e+00 -1.0595156877989722e+00 +2.3582359085158817e+00 +1.9931353441453012e+01 +5.4662595670462650e+00 +9.4139796670501546e+03 +6.2076978656205593e+05 -1.1947577226454813e+06 
+6.8999999999999915e+00 -1.0595172788933758e+00 +2.3582214367277246e+00 +1.9934100278018317e+01 +6.0452979087441685e+00 +9.3809935867248532e+03 +6.1726698473393498e+05 -1.0816992746399941e+06 
+6.9999999999999911e+00 -1.0595188732246290e+00 +2.3582064336948529e+00 +1.9936884996826979e+01 +6.6558892889860140e+00 +9.3471296295112461e+03 +6.1356537682476779e+05 -9.6687243123837118e+05 
+7.0999999999999908e+00 -1.0595204704792747e+00 +2.3581909081631167e+00 +1.9939714738673885e+01 +7.2955632545999967e+00 +9.3122609599309435e+03 +6.0968486085418111e+05 -8.4954054416234291e+05 
+7.1999999999999904e+00 -1.0595220703438895e+00 +2.3581748688591984e+00 +1.9942596652281665e+01 +7.9618500747830714e+00 +9.2762605590281109e+03 +6.0564532951566263e+05 -7.2896601218084106e+05 
+7.2999999999999901e+00 -1.0595236725050894e+00 +2.3581583244996027e+00 +1.9945537896185765e+01 +8.6522804863972311e+00 +9.2390011786421910e+03 +6.0146667160045437e+05 -6.0441003390763351e+05 
+7.3999999999999897e+00 -1.0595252766495253e+00 +2.3581412837797924e+00 +1.9948545636544075e+01 +9.3643860243260519e+00 +9.2003553983525544e+03 +5.9716877002975426e+05 -4.7513292633173312e+05 
+7.4999999999999893e+00 -1.0595268824639215e+00 +2.3581237553756065e+00 +1.9951627054130931e+01 +1.0095698980125004e+01 +9.1601954743018996e+03 +5.9277150205231144e+05 -3.4039335211302183e+05 
+7.5999999999999890e+00 -1.0595284896349919e+00 +2.3581057479452530e+00 +1.9954789332177800e+01 +1.0843752344989520e+01 +9.1183935810489093e+03 +5.8829473956527235e+05 -1.9944950118805538e+05 
+7.6999999999999886e+00 -1.0595300978495572e+00 +2.3580872701307918e+00 +1.9958039672335236e+01 +1.1606079778980332e+01 +9.0748215024850088e+03 +5.8375834922825999e+05 -5.1557606723534140e+04 
+7.7999999999999883e+00 -1.0595317067944467e+00 +2.3580683305534058e+00 +1.9961385282305073e+01 +1.2380215748326526e+01 +9.0293508643534897e+03 +5.7918219163839309e+05 +1.0402695684583817e+05 
+7.8999999999999879e+00 -1.0595333161565634e+00 +2.3580489378081331e+00 +1.9964833383528660e+01 +1.3163695685074886e+01 +8.9818529921248537e+03 +5.7458612036252930e+05 +2.6805033758570498e+05 
+7.9999999999999876e+00 -1.0595349256228490e+00 +2.3580291004729430e+00 +1.9968391207329869e+01 +1.3954055782886137e+01 +8.9321989875957734e+03 +5.6998998270334769e+05 +4.4125980550811352e+05 
+8.0999999999999872e+00 -1.0595365349059997e+00 +2.3580088218499773e+00 +1.9972058947825854e+01 +1.4749125026821844e+01 +8.8804140510200468e+03 +5.6541110600484314e+05 +6.2363023115408374e+05 
+8.1999999999999869e+00 -1.0595381438462073e+00 +2.3579881053933085e+00 +1.9975812347074605e+01 +1.5547436315628222e+01 +8.8270472591124926e+03 +5.6085924877156515e+05 +8.1260709039533825e+05 
+8.2999999999999865e+00 -1.0595397523190897e+00 +2.3579669592806014e+00 +1.9979621480090021e+01 +1.6347609964947278e+01 +8.7727651942785742e+03 +5.5634268006620440e+05 +1.0050957208145234e+06 
+8.3999999999999861e+00 -1.0595413602002273e+00 +2.3579453917278905e+00 +1.9983456418450267e+01 +1.7148264774248037e+01 +8.7182345001841913e+03 +5.5186967927731737e+05 +1.1980011827292005e+06 
+8.4999999999999858e+00 -1.0595429673652610e+00 +2.3579234109715967e+00 +1.9987287243844662e+01 +1.7948018500946478e+01 +8.6641216243037979e+03 +5.4744853367334860e+05 +1.3882294633499214e+06 
+8.5999999999999854e+00 -1.0595445736898135e+00 +2.3579010252942068e+00 +1.9991084037567873e+01 +1.8745487097892202e+01 +8.6110930203804837e+03 +5.4308754289291089e+05 +1.5726865054296379e+06 
+8.6999999999999851e+00 -1.0595461790495360e+00 +2.3578782430041261e+00 +1.9994816886523175e+01 +1.9539285271359319e+01 +8.5598150362406559e+03 +5.3879501580848952e+05 +1.7482787347020421e+06 
+8.7999999999999847e+00 -1.0595477833200866e+00 +2.3578550724508229e+00 +1.9998455881032289e+01 +2.0328026031292303e+01 +8.5109539507782411e+03 +5.3457927317903284e+05 +1.9119128976167238e+06 
+8.8999999999999844e+00 -1.0595493863771395e+00 +2.3578315220156809e+00 +2.0001971115547036e+01 +2.1110320958067110e+01 +8.4651759635830622e+03 +5.3044864612083300e+05 +2.0604960986737413e+06 
+8.9999999999999840e+00 -1.0595509880963816e+00 +2.3578076001177659e+00 +2.0005332688211396e+01 +2.1884779993859464e+01 +8.4231472055074664e+03 +5.2641147745294776e+05 +2.1909357458331864e+06 
+9.0999999999999837e+00 -1.0595525883534997e+00 +2.3577833152196179e+00 +2.0008510699731577e+01 +2.2650011278950565e+01 +8.3855337549282376e+03 +5.2247612266143312e+05 +2.3001394869312919e+06 
+9.1999999999999833e+00 -1.0595541870242242e+00 +2.3577586758180158e+00 +2.0011475258626781e+01 +2.3404621392575336e+01 +8.3530015435779733e+03 +5.1865094859198481e+05 +2.3850156370655093e+06 
+9.2999999999999829e+00 -1.0595557839843102e+00 +2.3577336904505160e+00 +2.0014196479049872e+01 +2.4147215165233270e+01 +8.3262163927703132e+03 +5.1494433455013414e+05 +2.4424730271952981e+06 
+9.3999999999999826e+00 -1.0595573791094732e+00 +2.3577083677048125e+00 +2.0016644472174793e+01 +2.4876395365686591e+01 +8.3058441860662460e+03 +5.1136467426740349e+05 +2.4694201507929792e+06 
+9.4999999999999822e+00 -1.0595589722754952e+00 +2.3576827161988110e+00 +2.0018789360662872e+01 +2.5590763292075110e+01 +8.2925505816887908e+03 +5.0792037244108593e+05 +2.4627665699758357e+06 
+9.5999999999999819e+00 -1.0595605633581455e+00 +2.3576567446046339e+00 +2.0020601267846551e+01 +2.6288918041308158e+01 +8.2870012291781768e+03 +5.0461984910093638e+05 +2.4194218527515046e+06 
+9.6999999999999815e+00 -1.0595621522332532e+00 +2.3576304616335224e+00 +2.0022050326751724e+01 +2.6969456940673822e+01 +8.2898615969151597e+03 +5.0147153712987213e+05 +2.3362963937829225e+06 
+9.7999999999999812e+00 -1.0595637387765933e+00 +2.3576038760476363e+00 +2.0023106667188657e+01 +2.7630975193130158e+01 +8.3017972087076741e+03 +4.9848388439479901e+05 +2.2103003144114045e+06 
+9.8999999999999808e+00 -1.0595653228640280e+00 +2.3575769966527917e+00 +2.0023740431791406e+01 +2.8272066058868475e+01 +8.3234733509707839e+03 +4.9566535278066015e+05 +2.0383448225559548e+06 
+9.9999999999999805e+00 -1.0595669043714391e+00 +2.3575498323225794e+00 +2.0023921771700952e+01 +2.8891320364345738e+01 +8.3555551486790355e+03 +4.9302442024115549e+05 +1.8173418221615234e+06 
+1.0099999999999980e+01 -1.0595684830318559e+00 +2.3575224293210351e+00 +2.0023637405656686e+01 +2.9487009514849973e+01 +8.3983496125101210e+03 +4.9056944445944013e+05 +1.5458575265080512e+06 
