# field on trajectory
# s[mm] rx[mm] ry[mm] rz[mm] bx[T] by[T] bz[T]
0.0000000000000000e+00 +9.0449999999999999e+00 +0.0000000000000000e+00 +0.0000000000000000e+00 +1.1140623593470785e-02 -1.0332127867785084e+00 -5.8766369160466993e-02
-1.0000000000000001e-01 +9.0449994837511696e+00 +0.0000000000000000e+00 -9.9999999998223260e-02 +1.1140817420034255e-02 -1.0332116607761601e+00 -5.8766725987659293e-02
-2.0000000000000001e-01 +9.0449979350054335e+00 +0.0000000000000000e+00 -1.9999999998578599e-01 +1.1141007150578785e-02 -1.0332104996195339e+00 -5.8767095319182755e-02
-3.0000000000000004e-01 +9.0449953537639534e+00 +0.0000000000000000e+00 -2.9999999995202775e-01 +1.1141193598504058e-02 -1.0332093084849530e+00 -5.8767477360424800e-02
-4.0000000000000002e-01 +9.0449917400279176e+00 +0.0000000000000000e+00 -3.9999999988628815e-01 +1.1141377577222751e-02 -1.0332080925486880e+00 -5.8767872316774127e-02
-5.0000000000000000e-01 +9.0449870937985430e+00 +0.0000000000000000e+00 -4.9999999977790671e-01 +1.1141559900158379e-02 -1.0332068569868222e+00 -5.8768280393624237e-02
-5.9999999999999998e-01 +9.0449814150770624e+00 +0.0000000000000000e+00 -5.9999999961622308e-01 +1.1141741380743142e-02 -1.0332056069751130e+00 -5.8768701796377026e-02
-6.9999999999999996e-01 +9.0449747038647264e+00 +0.0000000000000000e+00 -6.9999999939057700e-01 +1.1141922832415767e-02 -1.0332043476888506e+00 -5.8769136730446349e-02
-7.9999999999999993e-01 +9.0449669601627942e+00 +0.0000000000000000e+00 -7.9999999909030817e-01 +1.1142105068619367e-02 -1.0332030843027260e+00 -5.8769585401261558e-02
-8.9999999999999991e-01 +9.0449581839725273e+00 +0.0000000000000000e+00 -8.9999999870475644e-01 +1.1142288902799271e-02 -1.0332018219906847e+00 -5.8770048014271083e-02
-9.9999999999999989e-01 +9.0449483752951885e+00 +0.0000000000000000e+00 -9.9999999822326147e-01 +1.1142475148400879e-02 -1.0332005659257946e+00 -5.8770524774946015e-02
-1.0999999999999999e+00 +9.0449375341320337e+00 +0.0000000000000000e+00 -1.0999999976351631e+00 +1.1142664618867495e-02 -1.0331993212801047e+00 -5.8771015888783598e-02
-1.2000000000000000e+00 +9.0449256604843065e+00 +0.0000000000000000e+00 -1.1999999969298014e+00 +1.1142858127638194e-02 -1.0331980932245084e+00 -5.8771521561310852e-02
-1.3000000000000000e+00 +9.0449127543532359e+00 +0.0000000000000000e+00 -1.2999999960965161e+00 +1.1143056488145630e-02 -1.0331968869286021e+00 -5.8772041998088137e-02
-1.4000000000000001e+00 +9.0448988157400283e+00 +0.0000000000000000e+00 -1.3999999951246471e+00 +1.1143260513813919e-02 -1.0331957075605518e+00 -5.8772577404712645e-02
-1.5000000000000002e+00 +9.0448838446458630e+00 +0.0000000000000000e+00 -1.4999999940035347e+00 +1.1143471018056440e-02 -1.0331945602869488e+00 -5.8773127986822001e-02
-1.6000000000000003e+00 +9.0448678410718877e+00 +0.0000000000000000e+00 -1.5999999927225186e+00 +1.1143688567050969e-02 -1.0331934500622744e+00 -5.8773693750455658e-02
-1.7000000000000004e+00 +9.0448508050192125e+00 +0.0000000000000000e+00 -1.6999999912709389e+00 +1.1143912738071077e-02 -1.0331923809979031e+00 -5.8774273903106994e-02
-1.8000000000000005e+00 +9.0448327364889085e+00 +0.0000000000000000e+00 -1.7999999896381358e+00 +1.1144142861156248e-02 -1.0331913569938747e+00 -5.8774867452605684e-02
-1.9000000000000006e+00 +9.0448136354819990e+00 +0.0000000000000000e+00 -1.8999999878134493e+00 +1.1144378266333931e-02 -1.0331903819494046e+00 -5.8775473406746791e-02
-2.0000000000000004e+00 +9.0447935019994610e+00 +0.0000000000000000e+00 -1.9999999857862194e+00 +1.1144618283618301e-02 -1.0331894597629063e+00 -5.8776090773283246e-02
-2.1000000000000005e+00 +9.0447723360422181e+00 +0.0000000000000000e+00 -2.0999999835457865e+00 +1.1144862243009002e-02 -1.0331885943320147e+00 -5.8776718559918027e-02
-2.2000000000000006e+00 +9.0447501376111372e+00 +0.0000000000000000e+00 -2.1999999810814908e+00 +1.1145109474489929e-02 -1.0331877895536128e+00 -5.8777355774296908e-02
-2.3000000000000007e+00 +9.0447269067070248e+00 +0.0000000000000000e+00 -2.2999999783826719e+00 +1.1145359308027958e-02 -1.0331870493238537e+00 -5.8778001424000519e-02
-2.4000000000000008e+00 +9.0447026433306217e+00 +0.0000000000000000e+00 -2.3999999754386705e+00 +1.1145611073571740e-02 -1.0331863775381858e+00 -5.8778654516536979e-02
-2.5000000000000009e+00 +9.0446773474826028e+00 +0.0000000000000000e+00 -2.4999999722388266e+00 +1.1145864101050422e-02 -1.0331857780913742e+00 -5.8779314059334162e-02
-2.6000000000000010e+00 +9.0446510191635685e+00 +0.0000000000000000e+00 -2.5999999687724804e+00 +1.1146117720372457e-02 -1.0331852548775293e+00 -5.8779979059732257e-02
-2.7000000000000011e+00 +9.0446236583740447e+00 +0.0000000000000000e+00 -2.6999999650289723e+00 +1.1146371261424311e-02 -1.0331848117901266e+00 -5.8780648524975963e-02
-2.8000000000000012e+00 +9.0445952651144754e+00 +0.0000000000000000e+00 -2.7999999609976420e+00 +1.1146624054069290e-02 -1.0331844527220340e+00 -5.8781321462207145e-02
-2.9000000000000012e+00 +9.0445658393852231e+00 +0.0000000000000000e+00 -2.8999999566678301e+00 +1.1146875428146245e-02 -1.0331841815655318e+00 -5.8781996878457025e-02
-3.0000000000000013e+00 +9.0445353811865612e+00 +0.0000000000000000e+00 -2.9999999520288765e+00 +1.1147124713468378e-02 -1.0331840022123424e+00 -5.8782673780638735e-02
-3.1000000000000014e+00 +9.0445038905186728e+00 +0.0000000000000000e+00 -3.0999999470701214e+00 +1.1147371239821987e-02 -1.0331839185536480e+00 -5.8783351175539657e-02
-3.2000000000000015e+00 +9.0444713673816448e+00 +0.0000000000000000e+00 -3.1999999417809049e+00 +1.1147614336965265e-02 -1.0331839344801204e+00 -5.8784028069813879e-02
-3.3000000000000016e+00 +9.0444378117754631e+00 +0.0000000000000000e+00 -3.2999999361505670e+00 +1.1147853334627032e-02 -1.0331840538819408e+00 -5.8784703469974608e-02
-3.4000000000000017e+00 +9.0444032237000123e+00 +0.0000000000000000e+00 -3.3999999301684478e+00 +1.1148087562505531e-02 -1.0331842806488249e+00 -5.8785376382386526e-02
-3.5000000000000018e+00 +9.0443676031550684e+00 +0.0000000000000000e+00 -3.4999999238238875e+00 +1.1148316350267201e-02 -1.0331846186700493e+00 -5.8786045813258310e-02
-3.6000000000000019e+00 +9.0443309501402975e+00 +0.0000000000000000e+00 -3.5999999171062256e+00 +1.1148539226901344e-02 -1.0331850690487954e+00 -5.8786711036714817e-02
-3.7000000000000020e+00 +9.0442932646552556e+00 +0.0000000000000000e+00 -3.6999999100048022e+00 +1.1148756518808841e-02 -1.0331856217454882e+00 -5.8787372399097267e-02
-3.8000000000000020e+00 +9.0442545466993938e+00 +0.0000000000000000e+00 -3.7999999025089570e+00 +1.1148968751769978e-02 -1.0331862639355405e+00 -5.8788030514836234e-02
-3.9000000000000021e+00 +9.0442147962720778e+00 +0.0000000000000000e+00 -3.8999998946080301e+00 +1.1149176451595483e-02 -1.0331869827952325e+00 -5.8788685998392348e-02
-4.0000000000000018e+00 +9.0441740133725919e+00 +0.0000000000000000e+00 -3.9999998862913611e+00 +1.1149380144129495e-02 -1.0331877655018069e+00 -5.8789339464262194e-02
-4.1000000000000014e+00 +9.0441321980001614e+00 +0.0000000000000000e+00 -4.0999998775482895e+00 +1.1149580355252500e-02 -1.0331885992335723e+00 -5.8789991526984227e-02
-4.2000000000000011e+00 +9.0440893501539570e+00 +0.0000000000000000e+00 -4.1999998683681552e+00 +1.1149777610884303e-02 -1.0331894711700016e+00 -5.8790642801144752e-02
-4.3000000000000007e+00 +9.0440454698331134e+00 +0.0000000000000000e+00 -4.2999998587402981e+00 +1.1149972436986962e-02 -1.0331903684918324e+00 -5.8791293901383782e-02
-4.4000000000000004e+00 +9.0440005570367408e+00 +0.0000000000000000e+00 -4.3999998486540566e+00 +1.1150165359567761e-02 -1.0331912783811665e+00 -5.8791945442401038e-02
-4.5000000000000000e+00 +9.0439546117639349e+00 +0.0000000000000000e+00 -4.4999998380987716e+00 +1.1150356904682126e-02 -1.0331921880215673e+00 -5.8792598038961835e-02
-4.5999999999999996e+00 +9.0439076340137934e+00 +0.0000000000000000e+00 -4.5999998270637814e+00 +1.1150547598436606e-02 -1.0331930845981638e+00 -5.8793252305902953e-02
-4.6999999999999993e+00 +9.0438596237854263e+00 +0.0000000000000000e+00 -4.6999998155384262e+00 +1.1150737966991786e-02 -1.0331939552977494e+00 -5.8793908858138677e-02
-4.7999999999999989e+00 +9.0438105810779685e+00 +0.0000000000000000e+00 -4.7999998035120459e+00 +1.1150928536565243e-02 -1.0331947873088769e+00 -5.8794568310666623e-02
-4.8999999999999986e+00 +9.0437605058905959e+00 +0.0000000000000000e+00 -4.8999997909739790e+00 +1.1151119833434489e-02 -1.0331955678219655e+00 -5.8795231278573709e-02
-4.9999999999999982e+00 +9.0437093982225338e+00 +0.0000000000000000e+00 -4.9999997779135654e+00 +1.1151312383939904e-02 -1.0331962840293958e+00 -5.8795898377042008e-02
-5.0999999999999979e+00 +9.0436572580730736e+00 +0.0000000000000000e+00 -5.0999997643201445e+00 +1.1151506714487679e-02 -1.0331969231256108e+00 -5.8796570221354712e-02
-5.1999999999999975e+00 +9.0436040854415847e+00 +0.0000000000000000e+00 -5.1999997501830553e+00 +1.1151703351552730e-02 -1.0331974723072170e+00 -5.8797247426902087e-02
-5.2999999999999972e+00 +9.0435498803275234e+00 +0.0000000000000000e+00 -5.2999997354916379e+00 +1.1151902821681652e-02 -1.0331979187730831e+00 -5.8797930609187289e-02
-5.3999999999999968e+00 +9.0434946427304510e+00 +0.0000000000000000e+00 -5.3999997202352317e+00 +1.1152105651495626e-02 -1.0331982497244394e+00 -5.8798620383832295e-02
-5.4999999999999964e+00 +9.0434383726500425e+00 +0.0000000000000000e+00 -5.4999997044031765e+00 +1.1152312367693365e-02 -1.0331984523649800e+00 -5.8799317366583913e-02
-5.5999999999999961e+00 +9.0433810700861041e+00 +0.0000000000000000e+00 -5.5999996879848117e+00 +1.1152523310265361e-02 -1.0331985169327995e+00 -5.8800021988458497e-02
-5.6999999999999957e+00 +9.0433227350385756e+00 +0.0000000000000000e+00 -5.6999996709694774e+00 +1.1152738072070362e-02 -1.0331984457951651e+00 -5.8800733941185894e-02
-5.7999999999999954e+00 +9.0432633675075351e+00 +0.0000000000000000e+00 -5.7999996533465126e+00 +1.1152956059110358e-02 -1.0331982443513128e+00 -5.8801452731852229e-02
-5.8999999999999950e+00 +9.0432029674931886e+00 +0.0000000000000000e+00 -5.8999996351052584e+00 +1.1153176677305225e-02 -1.0331979180002928e+00 -5.8802177867780372e-02
-5.9999999999999947e+00 +9.0431415349958701e+00 +0.0000000000000000e+00 -5.9999996162350540e+00 +1.1153399332488623e-02 -1.0331974721409434e+00 -5.8802908856539764e-02
-6.0999999999999943e+00 +9.0430790700160291e+00 +0.0000000000000000e+00 -6.0999995967252394e+00 +1.1153623430403796e-02 -1.0331969121718636e+00 -5.8803645205955886e-02
-6.1999999999999940e+00 +9.0430155725542321e+00 +0.0000000000000000e+00 -6.1999995765651548e+00 +1.1153848376699423e-02 -1.0331962434913857e+00 -5.8804386424119934e-02
-6.2999999999999936e+00 +9.0429510426111541e+00 +0.0000000000000000e+00 -6.2999995557441411e+00 +1.1154073576925458e-02 -1.0331954714975495e+00 -5.8805132019398410e-02
-6.3999999999999932e+00 +9.0428854801875733e+00 +0.0000000000000000e+00 -6.3999995342515374e+00 +1.1154298436528976e-02 -1.0331946015880729e+00 -5.8805881500442803e-02
-6.4999999999999929e+00 +9.0428188852843654e+00 +0.0000000000000000e+00 -6.4999995120766849e+00 +1.1154522360850022e-02 -1.0331936391603254e+00 -5.8806634376199082e-02
-6.5999999999999925e+00 +9.0427512579024985e+00 +0.0000000000000000e+00 -6.5999994892089244e+00 +1.1154744755117456e-02 -1.0331925896113034e+00 -5.8807390155917454e-02
-6.6999999999999922e+00 +9.0426825980430277e+00 +0.0000000000000000e+00 -6.6999994656375961e+00 +1.1154965024444824e-02 -1.0331914583375994e+00 -5.8808148349161919e-02
-6.7999999999999918e+00 +9.0426129057070899e+00 +0.0000000000000000e+00 -6.7999994413520408e+00 +1.1155182573826186e-02 -1.0331902507353770e+00 -5.8808908465819834e-02
-6.8999999999999915e+00 +9.0425421808959001e+00 +0.0000000000000000e+00 -6.8999994163415987e+00 +1.1155396808132016e-02 -1.0331889722003433e+00 -5.8809670016111586e-02
-6.9999999999999911e+00 +9.0424704236107427e+00 +0.0000000000000000e+00 -6.9999993905956117e+00 +1.1155607132105047e-02 -1.0331876281277228e+00 -5.8810432510600252e-02
-7.0999999999999908e+00 +9.0423976338529677e+00 +0.0000000000000000e+00 -7.0999993641034198e+00 +1.1155812950356125e-02 -1.0331862239122269e+00 -5.8811195460201152e-02
-7.1999999999999904e+00 +9.0423238116239855e+00 +0.0000000000000000e+00 -7.1999993368543649e+00 +1.1156013667360118e-02 -1.0331847649480308e+00 -5.8811958376191478e-02
-7.2999999999999901e+00 +9.0422489569252633e+00 +0.0000000000000000e+00 -7.2999993088377870e+00 +1.1156208687451760e-02 -1.0331832566287429e+00 -5.8812720770219928e-02
-7.3999999999999897e+00 +9.0421730697583147e+00 +0.0000000000000000e+00 -7.3999992800430281e+00 +1.1156397414821570e-02 -1.0331817043473805e+00 -5.8813482154316386e-02
-7.4999999999999893e+00 +9.0420961501246975e+00 +0.0000000000000000e+00 -7.4999992504594291e+00 +1.1156579253511682e-02 -1.0331801134963408e+00 -5.8814242040901403e-02
-7.5999999999999890e+00 +9.0420181980260104e+00 +0.0000000000000000e+00 -7.5999992200763318e+00 +1.1156753827495789e-02 -1.0331784894027103e+00 -5.8815000071856735e-02
-7.6999999999999886e+00 +9.0419392134638841e+00 +0.0000000000000000e+00 -7.6999991888830772e+00 +1.1156921641052349e-02 -1.0331768371339720e+00 -5.8815756405554587e-02
-7.7999999999999883e+00 +9.0418591964399777e+00 +0.0000000000000000e+00 -7.7999991568690072e+00 +1.1157083418687775e-02 -1.0331751616914888e+00 -5.8816511329366480e-02
-7.8999999999999879e+00 +9.0417781469559735e+00 +0.0000000000000000e+00 -7.8999991240234637e+00 +1.1157239885074560e-02 -1.0331734680750531e+00 -5.8817265130546421e-02
-7.9999999999999876e+00 +9.0416960650135714e+00 +0.0000000000000000e+00 -7.9999990903357876e+00 +1.1157391765057390e-02 -1.0331717612828282e+00 -5.8818018096223439e-02
-8.0999999999999872e+00 +9.0416129506144856e+00 +0.0000000000000000e+00 -8.0999990557953208e+00 +1.1157539783659262e-02 -1.0331700463113007e+00 -5.8818770513394097e-02
-8.1999999999999869e+00 +9.0415288037604391e+00 +0.0000000000000000e+00 -8.1999990203914059e+00 +1.1157684666087618e-02 -1.0331683281552217e+00 -5.8819522668915020e-02
-8.2999999999999865e+00 +9.0414436244531569e+00 +0.0000000000000000e+00 -8.2999989841133832e+00 +1.1157827137740460e-02 -1.0331666118075549e+00 -5.8820274849495410e-02
-8.3999999999999861e+00 +9.0413574126943637e+00 +0.0000000000000000e+00 -8.3999989469505962e+00 +1.1157967924212451e-02 -1.0331649022594245e+00 -5.8821027341689529e-02
-8.4999999999999858e+00 +9.0412701684857755e+00 +0.0000000000000000e+00 -8.4999989088923851e+00 +1.1158107751301027e-02 -1.0331632045000574e+00 -5.8821780431889209e-02
-8.5999999999999854e+00 +9.0411818918290994e+00 +0.0000000000000000e+00 -8.5999988699280934e+00 +1.1158247345012501e-02 -1.0331615235167342e+00 -5.8822534406316372e-02
-8.6999999999999851e+00 +9.0410925827260229e+00 +0.0000000000000000e+00 -8.6999988300470612e+00 +1.1158387431568143e-02 -1.0331598642947308e+00 -5.8823289551015574e-02
-8.7999999999999847e+00 +9.0410022411782123e+00 +0.0000000000000000e+00 -8.7999987892386322e+00 +1.1158528737410304e-02 -1.0331582318172687e+00 -5.8824046151846422e-02
-8.8999999999999844e+00 +9.0409108671873089e+00 +0.0000000000000000e+00 -8.8999987474921483e+00 +1.1158671989208476e-02 -1.0331566310654572e+00 -5.8824804494476184e-02
-8.9999999999999840e+00 +9.0408184607549220e+00 +0.0000000000000000e+00 -8.9999987047969512e+00 +1.1158817913865377e-02 -1.0331550670182421e+00 -5.8825564864372133e-02
-9.0999999999999837e+00 +9.0407250218826238e+00 +0.0000000000000000e+00 -9.0999986611423829e+00 +1.1158967238523042e-02 -1.0331535446523532e+00 -5.8826327546794281e-02
-9.1999999999999833e+00 +9.0406305505719455e+00 +0.0000000000000000e+00 -9.1999986165177852e+00 +1.1159120690568874e-02 -1.0331520689422453e+00 -5.8827092826787684e-02
-9.2999999999999829e+00 +9.0405350468243721e+00 +0.0000000000000000e+00 -9.2999985709125017e+00 +1.1159278997641726e-02 -1.0331506448600480e+00 -5.8827860989174967e-02
-9.3999999999999826e+00 +9.0404385106413354e+00 +0.0000000000000000e+00 -9.3999985243158743e+00 +1.1159442887637955e-02 -1.0331492773755129e+00 -5.8828632318548957e-02
-9.4999999999999822e+00 +9.0403409420242120e+00 +0.0000000000000000e+00 -9.4999984767172432e+00 +1.1159613088717461e-02 -1.0331479714559555e+00 -5.8829407099264992e-02
-9.5999999999999819e+00 +9.0402423409743164e+00 +0.0000000000000000e+00 -9.5999984281059518e+00 +1.1159790097232900e-02 -1.0331467312260523e+00 -5.8830185404141894e-02
-9.6999999999999815e+00 +9.0401427074928993e+00 +0.0000000000000000e+00 -9.6999983784713422e+00 +1.1159973481282877e-02 -1.0331455574486181e+00 -5.8830966460568110e-02
-9.7999999999999812e+00 +9.0400420415811436e+00 +0.0000000000000000e+00 -9.7999983278027560e+00 +1.1160162576649030e-02 -1.0331444500476668e+00 -5.8831749284436824e-02
-9.8999999999999808e+00 +9.0399403432401684e+00 +0.0000000000000000e+00 -9.8999982760895353e+00 +1.1160356718842114e-02 -1.0331434089490534e+00 -5.8832532891458456e-02
-9.9999999999999805e+00 +9.0398376124710236e+00 +0.0000000000000000e+00 -9.9999982233210218e+00 +1.1160555243094221e-02 -1.0331424340805349e+00 -5.8833316297155214e-02
-1.0099999999999980e+01 +9.0397338492746933e+00 +0.0000000000000000e+00 -1.0099998169486559e+01 +1.1160757484351068e-02 -1.0331415253718248e+00 -5.8834098516855789e-02
-1.0199999999999980e+01 +9.0396290536520976e+00 +0.0000000000000000e+00 -1.0199998114575488e+01 +1.1160962777264237e-02 -1.0331406827546543e+00 -5.8834878565690016e-02
-1.0299999999999979e+01 +9.0395232256040909e+00 +0.0000000000000000e+00 -1.0299998058577149e+01 +1.1161170456183455e-02 -1.0331399061628281e+00 -5.8835655458583644e-02
-1.0399999999999979e+01 +9.0394163651314585e+00 +0.0000000000000000e+00 -1.0399998001480885e+01 +1.1161379855148859e-02 -1.0331391955322855e+00 -5.8836428210252922e-02
-1.0499999999999979e+01 +9.0393084722349233e+00 +0.0000000000000000e+00 -1.0499997943276037e+01 +1.1161590307883270e-02 -1.0331385508011546e+00 -5.8837195835199314e-02
-1.0599999999999978e+01 +9.0391995469151407e+00 +0.0000000000000000e+00 -1.0599997883951950e+01 +1.1161801147784492e-02 -1.0331379719098148e+00 -5.8837957347704237e-02
-1.0699999999999978e+01 +9.0390895891727006e+00 +0.0000000000000000e+00 -1.0699997823497961e+01 +1.1162011707917590e-02 -1.0331374588009501e+00 -5.8838711761823641e-02
-1.0799999999999978e+01 +9.0389785990081286e+00 +0.0000000000000000e+00 -1.0799997761903414e+01 +1.1162221321007179e-02 -1.0331370114196110e+00 -5.8839458091382836e-02
-1.0899999999999977e+01 +9.0388665764218814e+00 +0.0000000000000000e+00 -1.0899997699157652e+01 +1.1162429319429750e-02 -1.0331366297132705e+00 -5.8840195349971119e-02
-1.0999999999999977e+01 +9.0387535214143551e+00 +0.0000000000000000e+00 -1.0999997635250013e+01 +1.1162635035205964e-02 -1.0331363136318825e+00 -5.8840922550936502e-02
-1.1099999999999977e+01 +9.0386394339858747e+00 +0.0000000000000000e+00 -1.1099997570169840e+01 +1.1162837799992954e-02 -1.0331360631279412e+00 -5.8841638707380406e-02
-1.1199999999999976e+01 +9.0385243141367049e+00 +0.0000000000000000e+00 -1.1199997503906475e+01 +1.1163036945076671e-02 -1.0331358781565347e+00 -5.8842342832152325e-02
-1.1299999999999976e+01 +9.0384081618670429e+00 +0.0000000000000000e+00 -1.1299997436449260e+01 +1.1163231801364193e-02 -1.0331357586754091e+00 -5.8843033937844617e-02
-1.1399999999999975e+01 +9.0382909771770183e+00 +0.0000000000000000e+00 -1.1399997367787535e+01 +1.1163421699376071e-02 -1.0331357046450209e+00 -5.8843711036787226e-02
-1.1499999999999975e+01 +9.0381727600666988e+00 +0.0000000000000000e+00 -1.1499997297910641e+01 +1.1163605969238665e-02 -1.0331357160285979e+00 -5.8844373141042287e-02
-1.1599999999999975e+01 +9.0380535105360860e+00 +0.0000000000000000e+00 -1.1599997226807918e+01 +1.1163784160064194e-02 -1.0331357914246526e+00 -5.8845019506023152e-02
-1.1699999999999974e+01 +9.0379332285851177e+00 +0.0000000000000000e+00 -1.1699997154468710e+01 +1.1163956698411796e-02 -1.0331359239622642e+00 -5.8845650361603156e-02
