# trajectory
# s[mm] rx[mm] ry[mm] rz[mm] px[rad] py[rad] pz[rad]
0.0000000000000000e+00 +9.0984999999999996e+00 +0.0000000000000000e+00 +0.0000000000000000e+00 +0.0000000000000000e+00 +0.0000000000000000e+00 +1.0000000000000000e+00
-1.0000000000000001e-01 +9.0984994834176689e+00 +0.0000000000000000e+00 -9.9999999998220943e-02 +1.0331646591722667e-05 +0.0000000000000000e+00 +9.9999999994662858e-01
-2.0000000000000001e-01 +9.0984979336706786e+00 +0.0000000000000000e+00 -1.9999999998576762e-01 +2.0663293265902680e-05 +0.0000000000000000e+00 +9.9999999978651422e-01
-3.0000000000000004e-01 +9.0984953507589967e+00 +0.0000000000000000e+00 -2.9999999995196569e-01 +3.0994940509253487e-05 +0.0000000000000000e+00 +9.9999999951965690e-01
-4.0000000000000002e-01 +9.0984917346825398e+00 +0.0000000000000000e+00 -3.9999999988614088e-01 +4.1326588884549147e-05 +0.0000000000000000e+00 +9.9999999914605664e-01
-5.0000000000000000e-01 +9.0984870854411621e+00 +0.0000000000000000e+00 -4.9999999977761889e-01 +5.1658239030618933e-05 +0.0000000000000000e+00 +9.9999999866571332e-01
-5.9999999999999998e-01 +9.0984814030346506e+00 +0.0000000000000000e+00 -5.9999999961572548e-01 +6.1989891662342478e-05 +0.0000000000000000e+00 +9.9999999807862683e-01
-6.9999999999999996e-01 +9.0984746874627191e+00 +0.0000000000000000e+00 -6.9999999938978619e-01 +7.2321547570645308e-05 +0.0000000000000000e+00 +9.9999999738479706e-01
-7.9999999999999993e-01 +9.0984669387249983e+00 +0.0000000000000000e+00 -7.9999999908912678e-01 +8.2653207622494863e-05 +0.0000000000000000e+00 +9.9999999658422378e-01
-8.9999999999999991e-01 +9.0984581568210263e+00 +0.0000000000000000e+00 -8.9999999870307290e-01 +9.2984872760897030e-05 +0.0000000000000000e+00 +9.9999999567690689e-01
-9.9999999999999989e-01 +9.0984483417502435e+00 +0.0000000000000000e+00 -9.9999999822095009e-01 +1.0331654400489308e-04 +0.0000000000000000e+00 +9.9999999466284606e-01
-1.0999999999999999e+00 +9.0984374935119856e+00 +0.0000000000000000e+00 -1.0999999976320840e+00 +1.1364822244955709e-04 +0.0000000000000000e+00 +9.9999999354204094e-01
-1.2000000000000000e+00 +9.0984256121054745e+00 +0.0000000000000000e+00 -1.1999999969258002e+00 +1.2397990926599380e-04 +0.0000000000000000e+00 +9.9999999231449122e-01
-1.3000000000000000e+00 +9.0984126975298114e+00 +0.0000000000000000e+00 -1.2999999960914241e+00 +1.3431160570133701e-04 +0.0000000000000000e+00 +9.9999999098019643e-01
-1.4000000000000001e+00 +9.0983987497839696e+00 +0.0000000000000000e+00 -1.3999999951182813e+00 +1.4464331307874838e-04 +0.0000000000000000e+00 +9.9999998953915614e-01
-1.5000000000000002e+00 +9.0983837688667855e+00 +0.0000000000000000e+00 -1.4999999939956972e+00 +1.5497503279741673e-04 +0.0000000000000000e+00 +9.9999998799136969e-01
-1.6000000000000003e+00 +9.0983677547769499e+00 +0.0000000000000000e+00 -1.5999999927129971e+00 +1.6530676632546358e-04 +0.0000000000000000e+00 +9.9999998633683651e-01
-1.7000000000000004e+00 +9.0983507075130099e+00 +0.0000000000000000e+00 -1.6999999912595063e+00 +1.7563851512190760e-04 +0.0000000000000000e+00 +9.9999998457555594e-01
-1.8000000000000005e+00 +9.0983326270733702e+00 +0.0000000000000000e+00 -1.7999999896245500e+00 +1.8597028055862653e-04 +0.0000000000000000e+00 +9.9999998270752732e-01
-1.9000000000000006e+00 +9.0983135134563007e+00 +0.0000000000000000e+00 -1.8999999877974534e+00 +1.9630206391325910e-04 +0.0000000000000000e+00 +9.9999998073274976e-01
-2.0000000000000004e+00 +9.0982933666599504e+00 +0.0000000000000000e+00 -1.9999999857675417e+00 +2.0663386636920062e-04 +0.0000000000000000e+00 +9.9999997865122248e-01
-2.1000000000000005e+00 +9.0982721866823528e+00 +0.0000000000000000e+00 -2.0999999835241394e+00 +2.1696568901559825e-04 +0.0000000000000000e+00 +9.9999997646294470e-01
-2.2000000000000006e+00 +9.0982499735214404e+00 +0.0000000000000000e+00 -2.1999999810565720e+00 +2.2729753284734616e-04 +0.0000000000000000e+00 +9.9999997416791553e-01
-2.3000000000000007e+00 +9.0982267271750477e+00 +0.0000000000000000e+00 -2.2999999783541640e+00 +2.3762939876508050e-04 +0.0000000000000000e+00 +9.9999997176613409e-01
-2.4000000000000008e+00 +9.0982024476409240e+00 +0.0000000000000000e+00 -2.3999999754062404e+00 +2.4796128757517385e-04 +0.0000000000000000e+00 +9.9999996925759949e-01
-2.5000000000000009e+00 +9.0981771349167460e+00 +0.0000000000000000e+00 -2.4999999722021258e+00 +2.5829319998972973e-04 +0.0000000000000000e+00 +9.9999996664231094e-01
-2.6000000000000010e+00 +9.0981507890001190e+00 +0.0000000000000000e+00 -2.5999999687311441e+00 +2.6862513662657673e-04 +0.0000000000000000e+00 +9.9999996392026747e-01
-2.7000000000000011e+00 +9.0981234098885952e+00 +0.0000000000000000e+00 -2.6999999649826205e+00 +2.7895709800926247e-04 +0.0000000000000000e+00 +9.9999996109146816e-01
-2.8000000000000012e+00 +9.0980949975796772e+00 +0.0000000000000000e+00 -2.7999999609458790e+00 +2.8928908456704708e-04 +0.0000000000000000e+00 +9.9999995815591203e-01
-2.9000000000000012e+00 +9.0980655520708300e+00 +0.0000000000000000e+00 -2.8999999566102441e+00 +2.9962109663489678e-04 +0.0000000000000000e+00 +9.9999995511359829e-01
-3.0000000000000013e+00 +9.0980350733594904e+00 +0.0000000000000000e+00 -2.9999999519650400e+00 +3.0995313445347707e-04 +0.0000000000000000e+00 +9.9999995196452618e-01
-3.1000000000000014e+00 +9.0980035614430754e+00 +0.0000000000000000e+00 -3.0999999469995907e+00 +3.2028519816914566e-04 +0.0000000000000000e+00 +9.9999994870869469e-01
-3.2000000000000015e+00 +9.0979710163189917e+00 +0.0000000000000000e+00 -3.1999999417032203e+00 +3.3061728783394500e-04 +0.0000000000000000e+00 +9.9999994534610304e-01
-3.3000000000000016e+00 +9.0979374379846458e+00 +0.0000000000000000e+00 -3.2999999360652525e+00 +3.4094940340559496e-04 +0.0000000000000000e+00 +9.9999994187675045e-01
-3.4000000000000017e+00 +9.0979028264374513e+00 +0.0000000000000000e+00 -3.3999999300750114e+00 +3.5128154474748497e-04 +0.0000000000000000e+00 +9.9999993830063627e-01
-3.5000000000000018e+00 +9.0978671816748449e+00 +0.0000000000000000e+00 -3.4999999237218211e+00 +3.6161371162866593e-04 +0.0000000000000000e+00 +9.9999993461775971e-01
-3.6000000000000019e+00 +9.0978305036942864e+00 +0.0000000000000000e+00 -3.5999999169950048e+00 +3.7194590373199494e-04 +0.0000000000000000e+00 +9.9999993082812000e-01
-3.7000000000000020e+00 +9.0977927924932693e+00 +0.0000000000000000e+00 -3.6999999098838865e+00 +3.8227812074381317e-04 +0.0000000000000000e+00 +9.9999992693171658e-01
-3.8000000000000020e+00 +9.0977540480693158e+00 +0.0000000000000000e+00 -3.7999999023777895e+00 +3.9261036244363885e-04 +0.0000000000000000e+00 +9.9999992292854878e-01
-3.9000000000000021e+00 +9.0977142704199618e+00 +0.0000000000000000e+00 -3.8999998944660375e+00 +4.0294262871233989e-04 +0.0000000000000000e+00 +9.9999991881861583e-01
-4.0000000000000018e+00 +9.0976734595427544e+00 +0.0000000000000000e+00 -3.9999998861379540e+00 +4.1327491953215565e-04 +0.0000000000000000e+00 +9.9999991460191695e-01
-4.1000000000000014e+00 +9.0976316154352350e+00 +0.0000000000000000e+00 -4.0999998773828619e+00 +4.2360723498672002e-04 +0.0000000000000000e+00 +9.9999991027845136e-01
-4.2000000000000011e+00 +9.0975887380949310e+00 +0.0000000000000000e+00 -4.1999998681900852e+00 +4.3393957526108664e-04 +0.0000000000000000e+00 +9.9999990584821818e-01
-4.3000000000000007e+00 +9.0975448275193465e+00 +0.0000000000000000e+00 -4.2999998585489463e+00 +4.4427194064175523e-04 +0.0000000000000000e+00 +9.9999990131121663e-01
-4.4000000000000004e+00 +9.0974998837059537e+00 +0.0000000000000000e+00 -4.3999998484487692e+00 +4.5460433151669989e-04 +0.0000000000000000e+00 +9.9999989666744571e-01
-4.5000000000000000e+00 +9.0974539066521771e+00 +0.0000000000000000e+00 -4.4999998378788764e+00 +4.6493674837539886e-04 +0.0000000000000000e+00 +9.9999989191690430e-01
-4.5999999999999996e+00 +9.0974068963553929e+00 +0.0000000000000000e+00 -4.5999998268285909e+00 +4.7526919180886605e-04 +0.0000000000000000e+00 +9.9999988705959142e-01
-4.6999999999999993e+00 +9.0973588528129081e+00 +0.0000000000000000e+00 -4.6999998152872351e+00 +4.8560166250968405e-04 +0.0000000000000000e+00 +9.9999988209550583e-01
-4.7999999999999989e+00 +9.0973097760219570e+00 +0.0000000000000000e+00 -4.7999998032441322e+00 +4.9593416127203887e-04 +0.0000000000000000e+00 +9.9999987702464643e-01
-4.8999999999999986e+00 +9.0972596659796885e+00 +0.0000000000000000e+00 -4.8999997906886046e+00 +5.0626668899175623e-04 +0.0000000000000000e+00 +9.9999987184701178e-01
-4.9999999999999982e+00 +9.0972085226831592e+00 +0.0000000000000000e+00 -4.9999997776099754e+00 +5.1659924666633977e-04 +0.0000000000000000e+00 +9.9999986656260043e-01
-5.0999999999999979e+00 +9.0971563461293190e+00 +0.0000000000000000e+00 -5.0999997639975660e+00 +5.2693183539501023e-04 +0.0000000000000000e+00 +9.9999986117141093e-01
-5.1999999999999975e+00 +9.0971031363150043e+00 +0.0000000000000000e+00 -5.1999997498406989e+00 +5.3726445637874694e-04 +0.0000000000000000e+00 +9.9999985567344174e-01
-5.2999999999999972e+00 +9.0970488932369253e+00 +0.0000000000000000e+00 -5.2999997351286954e+00 +5.4759711092033079e-04 +0.0000000000000000e+00 +9.9999985006869097e-01
-5.3999999999999968e+00 +9.0969936168916554e+00 +0.0000000000000000e+00 -5.3999997198508778e+00 +5.5792980042438853e-04 +0.0000000000000000e+00 +9.9999984435715694e-01
-5.4999999999999964e+00 +9.0969373072756241e+00 +0.0000000000000000e+00 -5.4999997039965676e+00 +5.6826252639743881e-04 +0.0000000000000000e+00 +9.9999983853883767e-01
-5.5999999999999961e+00 +9.0968799643851064e+00 +0.0000000000000000e+00 -5.5999996875550861e+00 +5.7859529044174357e-04 +0.0000000000000000e+00 +9.9999983261373104e-01
-5.6999999999999957e+00 +9.0968215882162120e+00 +0.0000000000000000e+00 -5.6999996705157541e+00 +5.8892809418718546e-04 +0.0000000000000000e+00 +9.9999982658183506e-01
-5.7999999999999954e+00 +9.0967621787648927e+00 +0.0000000000000000e+00 -5.7999996528678928e+00 +5.9926093922310728e-04 +0.0000000000000000e+00 +9.9999982044314739e-01
-5.8999999999999950e+00 +9.0967017360269402e+00 +0.0000000000000000e+00 -5.8999996346008237e+00 +6.0959382709209736e-04 +0.0000000000000000e+00 +9.9999981419766593e-01
-5.9999999999999947e+00 +9.0966402599979972e+00 +0.0000000000000000e+00 -5.9999996157038664e+00 +6.1992675928996795e-04 +0.0000000000000000e+00 +9.9999980784538833e-01
-6.0999999999999943e+00 +9.0965777506735570e+00 +0.0000000000000000e+00 -6.0999995961663416e+00 +6.3025973726573326e-04 +0.0000000000000000e+00 +9.9999980138631228e-01
-6.1999999999999940e+00 +9.0965142080489709e+00 +0.0000000000000000e+00 -6.1999995759775688e+00 +6.4059276242158522e-04 +0.0000000000000000e+00 +9.9999979482043555e-01
-6.2999999999999936e+00 +9.0964496321194535e+00 +0.0000000000000000e+00 -6.2999995551268686e+00 +6.5092583611286797e-04 +0.0000000000000000e+00 +9.9999978814775570e-01
-6.3999999999999932e+00 +9.0963840228800859e+00 +0.0000000000000000e+00 -6.3999995336035598e+00 +6.6125895964805142e-04 +0.0000000000000000e+00 +9.9999978136827039e-01
-6.4999999999999929e+00 +9.0963173803258197e+00 +0.0000000000000000e+00 -6.4999995113969620e+00 +6.7159213428870260e-04 +0.0000000000000000e+00 +9.9999977448197730e-01
-6.5999999999999925e+00 +9.0962497044514841e+00 +0.0000000000000000e+00 -6.5999994884963948e+00 +6.8192536124945635e-04 +0.0000000000000000e+00 +9.9999976748887398e-01
-6.6999999999999922e+00 +9.0961809952517871e+00 +0.0000000000000000e+00 -6.6999994648911763e+00 +6.9225864169798377e-04 +0.0000000000000000e+00 +9.9999976038895799e-01
-6.7999999999999918e+00 +9.0961112527213235e+00 +0.0000000000000000e+00 -6.7999994405706259e+00 +7.0259197675495981e-04 +0.0000000000000000e+00 +9.9999975318222689e-01
-6.8999999999999915e+00 +9.0960404768545793e+00 +0.0000000000000000e+00 -6.8999994155240616e+00 +7.1292536749402934e-04 +0.0000000000000000e+00 +9.9999974586867812e-01
-6.9999999999999911e+00 +9.0959686676459341e+00 +0.0000000000000000e+00 -6.9999993897408013e+00 +7.2325881494177135e-04 +0.0000000000000000e+00 +9.9999973844830936e-01
-7.0999999999999908e+00 +9.0958958250896682e+00 +0.0000000000000000e+00 -7.0999993632101628e+00 +7.3359232007766232e-04 +0.0000000000000000e+00 +9.9999973092111805e-01
-7.1999999999999904e+00 +9.0958219491799657e+00 +0.0000000000000000e+00 -7.1999993359214640e+00 +7.4392588383403763e-04 +0.0000000000000000e+00 +9.9999972328710163e-01
-7.2999999999999901e+00 +9.0957470399109184e+00 +0.0000000000000000e+00 -7.2999993078640220e+00 +7.5425950709605185e-04 +0.0000000000000000e+00 +9.9999971554625777e-01
-7.3999999999999897e+00 +9.0956710972765347e+00 +0.0000000000000000e+00 -7.3999992790271545e+00 +7.6459319070163758e-04 +0.0000000000000000e+00 +9.9999970769858393e-01
-7.4999999999999893e+00 +9.0955941212707394e+00 +0.0000000000000000e+00 -7.4999992494001777e+00 +7.7492693544146236e-04 +0.0000000000000000e+00 +9.9999969974407754e-01
-7.5999999999999890e+00 +9.0955161118873828e+00 +0.0000000000000000e+00 -7.5999992189724086e+00 +7.8526074205439230e-04 +0.0000000000000000e+00 +9.9999969168273617e-01
-7.6999999999999886e+00 +9.0954370691202442e+00 +0.0000000000000000e+00 -7.6999991877331633e+00 +7.9559461117802914e-04 +0.0000000000000000e+00 +9.9999968351455748e-01
-7.7999999999999883e+00 +9.0953569929630476e+00 +0.0000000000000000e+00 -7.7999991556717587e+00 +8.0592854329926194e-04 +0.0000000000000000e+00 +9.9999967523953903e-01
-7.8999999999999879e+00 +9.0952758834094745e+00 +0.0000000000000000e+00 -7.8999991227775102e+00 +8.1626253874975564e-04 +0.0000000000000000e+00 +9.9999966685767860e-01
-7.9999999999999876e+00 +9.0951937404531815e+00 +0.0000000000000000e+00 -7.9999990890397328e+00 +8.2659659770593279e-04 +0.0000000000000000e+00 +9.9999965836897420e-01
-8.0999999999999872e+00 +9.0951105640878165e+00 +0.0000000000000000e+00 -8.0999990544477427e+00 +8.3693072018895442e-04 +0.0000000000000000e+00 +9.9999964977342370e-01
-8.1999999999999869e+00 +9.0950263543070307e+00 +0.0000000000000000e+00 -8.1999990189908551e+00 +8.4726490606470105e-04 +0.0000000000000000e+00 +9.9999964107102535e-01
-8.2999999999999865e+00 +9.0949411111045002e+00 +0.0000000000000000e+00 -8.2999989826583853e+00 +8.5759915504375259e-04 +0.0000000000000000e+00 +9.9999963226177735e-01
-8.3999999999999861e+00 +9.0948548344739333e+00 +0.0000000000000000e+00 -8.3999989454396484e+00 +8.6793346668136801e-04 +0.0000000000000000e+00 +9.9999962334567816e-01
-8.4999999999999858e+00 +9.0947675244090949e+00 +0.0000000000000000e+00 -8.4999989073239597e+00 +8.7826784037746506e-04 +0.0000000000000000e+00 +9.9999961432272633e-01
-8.5999999999999854e+00 +9.0946791809038139e+00 +0.0000000000000000e+00 -8.5999988683006325e+00 +8.8860227537659842e-04 +0.0000000000000000e+00 +9.9999960519292064e-01
-8.6999999999999851e+00 +9.0945898039520063e+00 +0.0000000000000000e+00 -8.6999988283589822e+00 +8.9893677076793865e-04 +0.0000000000000000e+00 +9.9999959595625998e-01
-8.7999999999999847e+00 +9.0944993935476823e+00 +0.0000000000000000e+00 -8.7999987874883221e+00 +9.0927132548524966e-04 +0.0000000000000000e+00 +9.9999958661274335e-01
-8.8999999999999844e+00 +9.0944079496849710e+00 +0.0000000000000000e+00 -8.8999987456779674e+00 +9.1960593830686622e-04 +0.0000000000000000e+00 +9.9999957716237020e-01
-8.9999999999999840e+00 +9.0943154723581294e+00 +0.0000000000000000e+00 -8.9999987029172335e+00 +9.2994060785567116e-04 +0.0000000000000000e+00 +9.9999956760513997e-01
-9.0999999999999837e+00 +9.0942219615615603e+00 +0.0000000000000000e+00 -9.0999986591954336e+00 +9.4027533259907151e-04 +0.0000000000000000e+00 +9.9999955794105222e-01
-9.1999999999999833e+00 +9.0941274172898261e+00 +0.0000000000000000e+00 -9.1999986145018813e+00 +9.5061011084897470e-04 +0.0000000000000000e+00 +9.9999954817010694e-01
-9.2999999999999829e+00 +9.0940318395376671e+00 +0.0000000000000000e+00 -9.2999985688258917e+00 +9.6094494076176421e-04 +0.0000000000000000e+00 +9.9999953829230426e-01
-9.3999999999999826e+00 +9.0939352283000172e+00 +0.0000000000000000e+00 -9.3999985221567801e+00 +9.7127982033827455e-04 +0.0000000000000000e+00 +9.9999952830764449e-01
-9.4999999999999822e+00 +9.0938375835720162e+00 +0.0000000000000000e+00 -9.4999984744838599e+00 +9.8161474742376612e-04 +0.0000000000000000e+00 +9.9999951821612820e-01
-9.5999999999999819e+00 +9.0937389053490261e+00 +0.0000000000000000e+00 -9.5999984257964446e+00 +9.9194971971703380e-04 +0.0000000000000000e+00 +9.9999950801775617e-01
-9.6999999999999815e+00 +9.0936391936266450e+00 +0.0000000000000000e+00 -9.6999983760838493e+00 +1.0022847348708720e-03 +0.0000000000000000e+00 +9.9999949771252938e-01
-9.7999999999999812e+00 +9.0935384484007002e+00 +0.0000000000000000e+00 -9.7999983253353893e+00 +1.0126197905925762e-03 +0.0000000000000000e+00 +9.9999948730044885e-01
-9.8999999999999808e+00 +9.0934366696672484e+00 +0.0000000000000000e+00 -9.8999982735403780e+00 +1.0229548846531103e-03 +0.0000000000000000e+00 +9.9999947678151557e-01
-9.9999999999999805e+00 +9.0933338574225644e+00 +0.0000000000000000e+00 -9.9999982206881306e+00 +1.0332900148871417e-03 +0.0000000000000000e+00 +9.9999946615573054e-01
-1.0099999999999980e+01 +9.0932300116631364e+00 +0.0000000000000000e+00 -1.0099998166767962e+01 +1.0436251791930767e-03 +0.0000000000000000e+00 +9.9999945542309487e-01
-1.0199999999999980e+01 +9.0931251323856586e+00 +0.0000000000000000e+00 -1.0199998111769188e+01 +1.0539603755330966e-03 +0.0000000000000000e+00 +9.9999944458360968e-01
-1.0299999999999979e+01 +9.0930192195870276e+00 +0.0000000000000000e+00 -1.0299998055681122e+01 +1.0642956019331963e-03 +0.0000000000000000e+00 +9.9999943363727595e-01
-1.0399999999999979e+01 +9.0929122732643339e+00 +0.0000000000000000e+00 -1.0399997998493081e+01 +1.0746308564832216e-03 +0.0000000000000000e+00 +9.9999942258409491e-01
-1.0499999999999979e+01 +9.0928042934148543e+00 +0.0000000000000000e+00 -1.0499997940194380e+01 +1.0849661373369104e-03 +0.0000000000000000e+00 +9.9999941142406767e-01
-1.0599999999999978e+01 +9.0926952800360485e+00 +0.0000000000000000e+00 -1.0599997880774334e+01 +1.0953014427119328e-03 +0.0000000000000000e+00 +9.9999940015719535e-01
-1.0699999999999978e+01 +9.0925852331255523e+00 +0.0000000000000000e+00 -1.0699997820222258e+01 +1.1056367708899327e-03 +0.0000000000000000e+00 +9.9999938878347905e-01
-1.0799999999999978e+01 +9.0924741526811665e+00 +0.0000000000000000e+00 -1.0799997758527468e+01 +1.1159721202165711e-03 +0.0000000000000000e+00 +9.9999937730291999e-01
-1.0899999999999977e+01 +9.0923620387008572e+00 +0.0000000000000000e+00 -1.0899997695679280e+01 +1.1263074891015702e-03 +0.0000000000000000e+00 +9.9999936571551928e-01
-1.0999999999999977e+01 +9.0922488911827450e+00 +0.0000000000000000e+00 -1.0999997631667011e+01 +1.1366428760187580e-03 +0.0000000000000000e+00 +9.9999935402127804e-01
-1.1099999999999977e+01 +9.0921347101251015e+00 +0.0000000000000000e+00 -1.1099997566479974e+01 +1.1469782795061145e-03 +0.0000000000000000e+00 +9.9999934222019737e-01
-1.1199999999999976e+01 +9.0920194955263387e+00 +0.0000000000000000e+00 -1.1199997500107488e+01 +1.1573136981658193e-03 +0.0000000000000000e+00 +9.9999933031227828e-01
-1.1299999999999976e+01 +9.0919032473850070e+00 +0.0000000000000000e+00 -1.1299997432538868e+01 +1.1676491306642990e-03 +0.0000000000000000e+00 +9.9999931829752198e-01
-1.1399999999999975e+01 +9.0917859656997866e+00 +0.0000000000000000e+00 -1.1399997363763431e+01 +1.1779845757322769e-03 +0.0000000000000000e+00 +9.9999930617592947e-01
-1.1499999999999975e+01 +9.0916676504694820e+00 +0.0000000000000000e+00 -1.1499997293770493e+01 +1.1883200321648230e-03 +0.0000000000000000e+00 +9.9999929394750187e-01
-1.1599999999999975e+01 +9.0915483016930132e+00 +0.0000000000000000e+00 -1.1599997222549371e+01 +1.1986554988213959e-03 +0.0000000000000000e+00 +9.9999928161224005e-01
-1.1699999999999974e+01 +9.0914279193694121e+00 +0.0000000000000000e+00 -1.1699997150089381e+01 +1.2089909746257823e-03 +0.0000000000000000e+00 +9.9999926917014514e-01
