# multipoles
# s[mm] polynom_b[n=0][T/m^n] polynom_b[n=1][T/m^n] polynom_b[n=2][T/m^n] polynom_b[n=3][T/m^n] polynom_b[n=4][T/m^n] polynom_b[n=5][T/m^n] polynom_b[n=6][T/m^n] 
+0.0000000000000000e+00 -1.7036687554164695e-01 +3.8128102841396055e-01 +3.5393696937199333e+00 -5.7777353999206227e+00 -3.5763374947187085e+03 +1.7479147512271849e+05 +2.0442555605199791e+07 
-1.0000000000000001e-01 -1.7036684843807842e-01 +3.8128108624104257e-01 +3.5398591057662054e+00 -5.8059290116722000e+00 -3.5800003743321768e+03 +1.7505745282837949e+05 +2.0450322581060950e+07 
-2.0000000000000001e-01 -1.7036682522839816e-01 +3.8128174953787519e-01 +3.5405334045445049e+00 -5.8396462657695807e+00 -3.5866268679782861e+03 +1.7531528622508081e+05 +2.0470167576615904e+07 
-3.0000000000000004e-01 -1.7036680573086996e-01 +3.8128295529948075e-01 +3.5413735885906701e+00 -5.8775687252921758e+00 -3.5959222440806316e+03 +1.7555976370588320e+05 +2.0500905497519143e+07 
-4.0000000000000002e-01 -1.7036678976375605e-01 +3.8128464051964872e-01 +3.5423606557330887e+00 -5.9183779121243312e+00 -3.6075917519862305e+03 +1.7578567341427217e+05 +2.0541351142914850e+07 
-5.0000000000000000e-01 -1.7036677714531331e-01 +3.8128674219036696e-01 +3.5434756026351182e+00 -5.9607552942478010e+00 -3.6213406148093618e+03 +1.7598780318015930e+05 +2.0590319176379930e+07 
-5.9999999999999998e-01 -1.7036676769379935e-01 +3.8128919730373678e-01 +3.5446994256940041e+00 -6.0033823395098871e+00 -3.6368740468592487e+03 +1.7616094082875035e+05 +2.0646624209678240e+07 
-6.9999999999999996e-01 -1.7036676122747590e-01 +3.8129194285071843e-01 +3.5460131214655970e+00 -6.0449404815216639e+00 -3.6538972626020682e+03 +1.7629987398679942e+05 +2.0709080848625969e+07 
-7.9999999999999993e-01 -1.7036675756459232e-01 +3.8129491582260372e-01 +3.5473976846334425e+00 -6.0841111630820786e+00 -3.6721154388503091e+03 +1.7639939033861153e+05 +2.0776503515957586e+07 
-8.9999999999999991e-01 -1.7036675652340055e-01 +3.8129805321087640e-01 +3.5488341099929510e+00 -6.1195758305884720e+00 -3.6912337532106626e+03 +1.7645427758733515e+05 +2.0847706636208761e+07 
-9.9999999999999989e-01 -1.7036675792214950e-01 +3.8130129200801149e-01 +3.5503033917802260e+00 -6.1500159612649616e+00 -3.7109573723691028e+03 +1.7645932362639159e+05 +2.0921504583798658e+07 
-1.0999999999999999e+00 -1.7036676157908731e-01 +3.8130456920711009e-01 +3.5517865240070234e+00 -6.1741130483579045e+00 -3.7309914588042461e+03 +1.7640931643972435e+05 +2.0996711715925504e+07 
-1.2000000000000000e+00 -1.7036676731245198e-01 +3.8130782180298439e-01 +3.5532644992864393e+00 -6.1905486379912285e+00 -3.7510411491640202e+03 +1.7629904433225255e+05 +2.1072142272224285e+07 
-1.3000000000000000e+00 -1.7036677494048397e-01 +3.8131098679229136e-01 +3.5547183106445819e+00 -6.1980043316053299e+00 -3.7708115906585917e+03 +1.7612329593878044e+05 +2.1146610553834829e+07 
-1.4000000000000001e+00 -1.7036678428141108e-01 +3.8131400117385117e-01 +3.5561289494771495e+00 -6.1951617950499900e+00 -3.7900079016540799e+03 +1.7587686027759520e+05 +2.1218930734643009e+07 
-1.5000000000000002e+00 -1.7036679515346578e-01 +3.8131680194919854e-01 +3.5574774078765707e+00 -6.1807027771318648e+00 -3.8083352170709877e+03 +1.7555452686474091e+05 +2.1287917080847263e+07 
-1.6000000000000003e+00 -1.7036680737486956e-01 +3.8131932612264308e-01 +3.5587446767398179e+00 -6.1533091091700935e+00 -3.8254986536427004e+03 +1.7515108570395538e+05 +2.1352383789613467e+07 
-1.7000000000000004e+00 -1.7036682076383911e-01 +3.8132151070203113e-01 +3.5599117465571641e+00 -6.1116627310213696e+00 -3.8412033252214119e+03 +1.7466132745177299e+05 +2.1411145063105047e+07 
-1.8000000000000005e+00 -1.7036683513858905e-01 +3.8132329269880033e-01 +3.5609596078319532e+00 -6.0544456908225097e+00 -3.8551543518075991e+03 +1.7408004340742121e+05 +2.1463015154937822e+07 
-1.9000000000000006e+00 -1.7036685031731816e-01 +3.8132460912833588e-01 +3.5618692494083191e+00 -5.9803401554806674e+00 -3.8670568284481810e+03 +1.7340202557617336e+05 +2.1506808224182844e+07 
-2.0000000000000004e+00 -1.7036686611822910e-01 +3.8132539701106000e-01 +3.5626216610043788e+00 -5.8880284463650900e+00 -3.8766158740827655e+03 +1.7262206688601986e+05 +2.1541338570097677e+07 
-2.1000000000000005e+00 -1.7036688240197159e-01 +3.8132560818808992e-01 +3.5632036566388443e+00 -5.7766474959060039e+00 -3.8836272998282689e+03 +1.7173732273668042e+05 +2.1565789271577537e+07 
-2.2000000000000006e+00 -1.7036689919647580e-01 +3.8132525248240035e-01 +3.5636246275143173e+00 -5.6471522531872429e+00 -3.8882311672251349e+03 +1.7075447162502218e+05 +2.1580723736907069e+07 
-2.3000000000000007e+00 -1.7036691657088240e-01 +3.8132435392286523e-01 +3.5638994340398273e+00 -5.5009533370774646e+00 -3.8906490376242095e+03 +1.6968259772568507e+05 +2.1587027001272179e+07 
-2.4000000000000008e+00 -1.7036693459432548e-01 +3.8132293653817723e-01 +3.5640429362804276e+00 -5.3394613621200095e+00 -3.8911024688081707e+03 +1.6853078517997309e+05 +2.1585584090001509e+07 
-2.5000000000000009e+00 -1.7036695333594562e-01 +3.8132102435490206e-01 +3.5640699954003296e+00 -5.1640868790713821e+00 -3.8898130418431738e+03 +1.6730811774514883e+05 +2.1577280144918051e+07 
-2.6000000000000010e+00 -1.7036697286488278e-01 +3.8131864139902188e-01 +3.5639954730034975e+00 -4.9762404203069899e+00 -3.8870023493180265e+03 +1.6602367905612342e+05 +2.1563000369189613e+07 
-2.7000000000000011e+00 -1.7036699325028426e-01 +3.8131581169440992e-01 +3.5638342321055791e+00 -4.7773324577040972e+00 -3.8828920137527489e+03 +1.6468655238917223e+05 +2.1543630114753436e+07 
-2.8000000000000012e+00 -1.7036701456129813e-01 +3.8131255926216440e-01 +3.5636011362320361e+00 -4.5687733778093458e+00 -3.8777036695224078e+03 +1.6330582049821047e+05 +2.1520054793124106e+07 
-2.9000000000000012e+00 -1.7036703686707982e-01 +3.8130890812185603e-01 +3.5633110504599466e+00 -4.3519735230155820e+00 -3.8716589841338432e+03 +1.6189056586806488e+05 +2.1493159980114404e+07 
-3.0000000000000013e+00 -1.7036706023678649e-01 +3.8130488228971332e-01 +3.5629788405912222e+00 -4.1283431348673227e+00 -3.8649796411504508e+03 +1.6044987037197081e+05 +2.1463831330398206e+07 
-3.1000000000000014e+00 -1.7036708473958467e-01 +3.8130050577887958e-01 +3.5626193742706427e+00 -3.8992923624098905e+00 -3.8578873628810006e+03 +1.5899281532199681e+05 +2.1432954689130470e+07 
-3.2000000000000015e+00 -1.7036711044464509e-01 +3.8129580259968887e-01 +3.5622475202359785e+00 -3.6662312717199450e+00 -3.8506038943650119e+03 +1.5752848152718533e+05 +2.1401416009873521e+07 
-3.3000000000000016e+00 -1.7036713742114609e-01 +3.8129079675793326e-01 +3.5618781489141060e+00 -3.4305697916312785e+00 -3.8433510164982731e+03 +1.5606594896673269e+05 +2.1370101422104347e+07 
-3.4000000000000017e+00 -1.7036716573827551e-01 +3.8128551225568286e-01 +3.5615261326041585e+00 -3.1937177407233155e+00 -3.8363505486865115e+03 +1.5461429695274553e+05 +2.1339897240815621e+07 
-3.5000000000000018e+00 -1.7036719546522555e-01 +3.8127997309113509e-01 +3.5612063448742606e+00 -2.9570848203374220e+00 -3.8298243370765344e+03 +1.5318260408325342e+05 +2.1311689909138732e+07 
-3.6000000000000019e+00 -1.7036722667120194e-01 +3.8127420325766725e-01 +3.5609336617395453e+00 -2.7220805886577897e+00 -3.8239942772758454e+03 +1.5177994809350750e+05 +2.1286366106777083e+07 
-3.7000000000000020e+00 -1.7036725942541320e-01 +3.8126822674280825e-01 +3.5607229604963018e+00 -2.4901144273057332e+00 -3.8190822932269562e+03 +1.5041540565080024e+05 +2.1264812652068503e+07 
-3.8000000000000020e+00 -1.7036729379708662e-01 +3.8126206752994451e-01 +3.5605891214183396e+00 -2.2625955950568293e+00 -3.8153103671242047e+03 +1.4909805267775588e+05 +2.1247916637459718e+07 
-3.9000000000000021e+00 -1.7036732985545211e-01 +3.8125574959647707e-01 +3.5605470262048424e+00 -2.0409331710713867e+00 -3.8129005128633489e+03 +1.4783696401288142e+05 +2.1236565310575441e+07 
-4.0000000000000018e+00 -1.7036736766975655e-01 +3.8124929691400866e-01 +3.5606115593420156e+00 -1.8265360569293951e+00 -3.8120747981455252e+03 +1.4664121340945986e+05 +2.1231646168212276e+07 
-4.1000000000000014e+00 -1.7036740726519242e-01 +3.8124273669640391e-01 +3.5607933748664684e+00 -1.6206390599711535e+00 -3.8129906457999523e+03 +1.4551829533573060e+05 +2.1233780096008740e+07 
-4.2000000000000011e+00 -1.7036744849037982e-01 +3.8123611033378851e-01 +3.5610859821877288e+00 -1.4237753084498310e+00 -3.8155544063306816e+03 +1.4446928390224514e+05 +2.1242594626760494e+07 
-4.3000000000000007e+00 -1.7036749114964023e-01 +3.8122946299844862e-01 +3.5614785365919626e+00 -1.2362967919365593e+00 -3.8196113976159995e+03 +1.4349359117877757e+05 +2.1257486804692768e+07 
-4.4000000000000004e+00 -1.7036753504729529e-01 +3.8122283986606587e-01 +3.5619601924098094e+00 -1.0585555983386705e+00 -3.8250069097957980e+03 +1.4259062984455650e+05 +2.1277853512469735e+07 
-4.5000000000000000e+00 -1.7036757998768157e-01 +3.8121628611710440e-01 +3.5625201049549395e+00 -8.9090396597777421e-01 -3.8315862417401345e+03 +1.4175981352176881e+05 +2.1303091643453490e+07 
-4.5999999999999996e+00 -1.7036762577512612e-01 +3.8120984693545257e-01 +3.5631474274326380e+00 -7.3369423968009562e-01 -3.8391946417859358e+03 +1.4100055650964123e+05 +2.1332597817991208e+07 
-4.6999999999999993e+00 -1.7036767221396878e-01 +3.8120356750891543e-01 +3.5638313134537118e+00 -5.8727888833894704e-01 -3.8476773536052042e+03 +1.4031227389763563e+05 +2.1365768596581329e+07 
-4.7999999999999989e+00 -1.7036771910854490e-01 +3.8119749303011896e-01 +3.5645609149212043e+00 -4.5201052936076846e-01 -3.8568795759424647e+03 +1.3969438170559076e+05 +2.1402000287819408e+07 
-4.8999999999999986e+00 -1.7036776626320116e-01 +3.8119166869724475e-01 +3.5653253840498982e+00 -3.2824195596572564e-01 -3.8666465011627693e+03 +1.3914629706254220e+05 +2.1440689131951518e+07 
-4.9999999999999982e+00 -1.7036781348228219e-01 +3.8118613971278487e-01 +3.5661138714467069e+00 -2.1632609433065370e-01 -3.8768232769229489e+03 +1.3866743793875055e+05 +2.1481231113661427e+07 
-5.0999999999999979e+00 -1.7036786057013706e-01 +3.8118095128475249e-01 +3.5669155267926844e+00 -1.1661604439099900e-01 -3.8872550180743942e+03 +1.3825722340366663e+05 +2.1523022015739352e+07 
-5.1999999999999975e+00 -1.7036790733112211e-01 +3.8117614862779331e-01 +3.5677194994625938e+00 -2.9465111644970170e-02 -3.8977868197405564e+03 +1.3791507381041688e+05 +2.1565457484167408e+07 
-5.2999999999999972e+00 -1.7036795356959236e-01 +3.8117177696155158e-01 +3.5685149369870048e+00 +4.4773241094504979e-02 -3.9082637254682695e+03 +1.3764041051581991e+05 +2.1607932870295878e+07 
-5.3999999999999968e+00 -1.7036799908990941e-01 +3.8116788151237219e-01 +3.5692909862131139e+00 +1.0574534452419689e-01 -3.9185307490803680e+03 +1.3743265616830028e+05 +2.1649843333086014e+07 
-5.4999999999999964e+00 -1.7036804369643738e-01 +3.8116450751309311e-01 +3.5700367926168108e+00 +1.5309732389643566e-01 -3.9284328616088678e+03 +1.3729123471782872e+05 +2.1690583777701203e+07 
-5.5999999999999961e+00 -1.7036808719354440e-01 +3.8116170020324358e-01 +3.5707415005048397e+00 +1.8647509743276436e-01 -3.9378149938497036e+03 +1.3721557141589990e+05 +2.1729548863586079e+07 
-5.6999999999999957e+00 -1.7036812938560272e-01 +3.8115950483026834e-01 +3.5713942528785889e+00 +2.0552433672955109e-01 -3.9465220330361913e+03 +1.3720509306075587e+05 +2.1766132986490652e+07 
-5.7999999999999954e+00 -1.7036817007698971e-01 +3.8115796664770851e-01 +3.5719841914531552e+00 +2.0989052476491069e-01 -3.9543988223318424e+03 +1.3725922764496465e+05 +2.1799730273804378e+07 
-5.8999999999999950e+00 -1.7036820907208272e-01 +3.8115713091781128e-01 +3.5725004560651863e+00 +1.9921887086450388e-01 -3.9612901497478124e+03 +1.3737740488243708e+05 +2.1829734532295089e+07 
-5.9999999999999947e+00 -1.7036824617526355e-01 +3.8115704291026936e-01 +3.5729321850181410e+00 +1.7315434611315036e-01 -3.9670407536436696e+03 +1.3755905600694648e+05 +2.1855539271785859e+07 
-6.0999999999999943e+00 -1.7036828123601638e-01 +3.8115773162267741e-01 +3.5732706300859975e+00 +1.3157731822862395e-01 -3.9715258546463110e+03 +1.3780298063977031e+05 +2.1876655273426373e+07 
-6.1999999999999940e+00 -1.7036831428641150e-01 +3.8115916180604409e-01 +3.5735170118468051e+00 +7.5291212620285985e-02 -3.9747663787260562e+03 +1.3810567759859466e+05 +2.1893139549778271e+07 
-6.2999999999999936e+00 -1.7036834540487572e-01 +3.8116128227972529e-01 +3.5736754410892360e+00 +5.3242490509455296e-03 -3.9768259712283152e+03 +1.3846315233209636e+05 +2.1905205899985410e+07 
-6.3999999999999932e+00 -1.7036837466982463e-01 +3.8116404185937169e-01 +3.5737500281063648e+00 -7.7295217352981990e-02 -3.9777682797854573e+03 +1.3887140945294916e+05 +2.1913068169207301e+07 
-6.4999999999999929e+00 -1.7036840215968710e-01 +3.8116738935572098e-01 +3.5737448859502452e+00 -1.7153864738882155e-01 -3.9776570186570370e+03 +1.3932645235149947e+05 +2.1916940568224989e+07 
-6.5999999999999925e+00 -1.7036842795286816e-01 +3.8117127357685460e-01 +3.5736641254932149e+00 -2.7637738274552692e-01 -3.9765558739442026e+03 +1.3982428357047276e+05 +2.1917037220834885e+07 
-6.6999999999999922e+00 -1.7036845212778973e-01 +3.8117564332465403e-01 +3.5735118609211076e+00 -3.9078253903110349e-01 -3.9745286103535291e+03 +1.4036090416885907e+05 +2.1913572678355999e+07 
-6.7999999999999918e+00 -1.7036847476285283e-01 +3.8118044739650825e-01 +3.5732922047664353e+00 -5.1372505535256241e-01 -3.9716389759213766e+03 +1.4093231400824193e+05 +2.1906761464793961e+07 
-6.8999999999999915e+00 -1.7036849593646688e-01 +3.8118563458568006e-01 +3.5730092719125750e+00 -6.4417570282608227e-01 -3.9679507802477769e+03 +1.4153451179507968e+05 +2.1896818454771910e+07 
-6.9999999999999911e+00 -1.7036851572702250e-01 +3.8119115367923545e-01 +3.5726671758927662e+00 -7.8110502237319956e-01 -3.9635278235550431e+03 +1.4216349471067477e+05 +2.1883958535851344e+07 
-7.0999999999999908e+00 -1.7036853421292089e-01 +3.8119695345926391e-01 +3.5722700330216242e+00 -9.2348335953055560e-01 -3.9584339772985641e+03 +1.4281525860862050e+05 +2.1868396997105293e+07 
-7.1999999999999904e+00 -1.7036855147255059e-01 +3.8120298270220637e-01 +3.5718219591719516e+00 -1.0702808399267425e+00 -3.9527331225152925e+03 +1.4348579785816802e+05 +2.1850349236308467e+07 
-7.2999999999999901e+00 -1.7036856758429306e-01 +3.8120919017848942e-01 +3.5713270707267006e+00 -1.2204673629183571e+00 -3.9464891685196317e+03 +1.4417110531545104e+05 +2.1830030849819191e+07 
-7.3999999999999897e+00 -1.7036858262652968e-01 +3.8121552465222902e-01 +3.5707894855280986e+00 -1.3730125853147861e+00 -3.9397660732122367e+03 +1.4486717220626803e+05 +2.1807657737206310e+07 
-7.4999999999999893e+00 -1.7036859667763171e-01 +3.8122193488186046e-01 +3.5702133215136418e+00 -1.5268859408510360e+00 -3.9326278158767618e+03 +1.4556998823911935e+05 +2.1783445967886850e+07 
-7.5999999999999890e+00 -1.7036860981596683e-01 +3.8122836961837214e-01 +3.5696026976668005e+00 -1.6810565854448836e+00 -3.9251384168481327e+03 +1.4627554127739661e+05 +2.1757611879874956e+07 
-7.6999999999999886e+00 -1.7036862211989576e-01 +3.8123477760675822e-01 +3.5689617337167552e+00 -1.8344934412199405e+00 -3.9173619328698624e+03 +1.4697981759620656e+05 +2.1730372061159842e+07 
-7.7999999999999883e+00 -1.7036863366777075e-01 +3.8124110758472063e-01 +3.5682945499510565e+00 -1.9861651532428188e+00 -3.9093624539506945e+03 +1.4767880161463475e+05 +2.1701943336138736e+07 
-7.8999999999999879e+00 -1.7036864453794198e-01 +3.8124730828238029e-01 +3.5676052679702037e+00 -2.1350400793296558e+00 -3.9012041177931760e+03 +1.4836847582773786e+05 +2.1672542835319538e+07 
-7.9999999999999876e+00 -1.7036865480875085e-01 +3.8125332842412574e-01 +3.5668980101572454e+00 -2.2800863479107938e+00 -3.8929511019472338e+03 +1.4904482121282522e+05 +2.1642387969427191e+07 
-8.0999999999999872e+00 -1.7036866456148142e-01 +3.8125912781794691e-01 +3.5661777788697813e+00 -2.4204910297441691e+00 -3.8846817668653966e+03 +1.4970473229726942e+05 +2.1611779378047999e+07 
-8.1999999999999869e+00 -1.7036867388494426e-01 +3.8126470919818700e-01 +3.5654514113535245e+00 -2.5562815494506883e+00 -3.8764976288706539e+03 +1.5034821974850525e+05 +2.1581205587535925e+07 
-8.2999999999999865e+00 -1.7036868286855719e-01 +3.8127008587034450e-01 +3.5647257594736401e+00 -2.6876898276541121e+00 -3.8684971962787545e+03 +1.5097593805039435e+05 +2.1551166202885304e+07 
-8.3999999999999861e+00 -1.7036869160172946e-01 +3.8127527114206233e-01 +3.5640076732431170e+00 -2.8149478884817536e+00 -3.8607789343459076e+03 +1.5158854216182217e+05 +2.1522160614862349e+07 
-8.4999999999999858e+00 -1.7036870017387268e-01 +3.8128027832212052e-01 +3.5633040023928810e+00 -2.9382878529483203e+00 -3.8534412942908007e+03 +1.5218668774372124e+05 +2.1494688115743637e+07 
-8.5999999999999854e+00 -1.7036870867439544e-01 +3.8128512071929826e-01 +3.5626215957126219e+00 -3.0579419069773901e+00 -3.8465827015333098e+03 +1.5277103097476892e+05 +2.1469247845285177e+07 
-8.6999999999999851e+00 -1.7036871719269706e-01 +3.8128981164434134e-01 +3.5619673001905139e+00 -3.1741423600200314e+00 -3.8403015382880167e+03 +1.5334222889573593e+05 +2.1446338705006398e+07 
-8.7999999999999847e+00 -1.7036872581818943e-01 +3.8129436440861009e-01 +3.5613479637846090e+00 -3.2871216111463593e+00 -3.8346961962278483e+03 +1.5390093922583570e+05 +2.1426459607894238e+07 
-8.8999999999999844e+00 -1.7036873464026661e-01 +3.8129879232512010e-01 +3.5607704315002455e+00 -3.3971121778527875e+00 -3.8298650012842404e+03 +1.5444782052624010e+05 +2.1410109118960232e+07 
-8.9999999999999840e+00 -1.7036874374832878e-01 +3.8130310870730061e-01 +3.5602415484625998e+00 -3.5043466644994341e+00 -3.8259062721544337e+03 +1.5498353202664421e+05 +2.1397785733550008e+07 
-9.0999999999999837e+00 -1.7036875323177006e-01 +3.8130732686990343e-01 +3.5597681583182297e+00 -3.6090577899604259e+00 -3.8229182889925391e+03 +1.5550873379006959e+05 +2.1389987725083794e+07 
-9.1999999999999833e+00 -1.7036876317998445e-01 +3.8131146013021150e-01 +3.5593571039191834e+00 -3.7114784257512889e+00 -3.8209993066003922e+03 +1.5602408694158669e+05 +2.1387213208903249e+07 
-9.2999999999999829e+00 -1.7036877368236419e-01 +3.8131552180558781e-01 +3.5590152272905531e+00 -3.8118415266479118e+00 -3.8202475540222749e+03 +1.5653025326862815e+05 +2.1389960139594499e+07 
-9.3999999999999826e+00 -1.7036878482829371e-01 +3.8131952521514456e-01 +3.5587493684737703e+00 -3.9103801811748364e+00 -3.8207612101135001e+03 +1.5702789551913747e+05 +2.1398726188542295e+07 
-9.4999999999999822e+00 -1.7036879670716049e-01 +3.8132348367978902e-01 +3.5585663673670913e+00 -4.0073276155692952e+00 -3.8226384413238034e+03 +1.5751767743256310e+05 +2.1414008930572383e+07 
-9.5999999999999819e+00 -1.7036880940834567e-01 +3.8132741052088898e-01 +3.5584730620317035e+00 -4.1029171567678215e+00 -3.8259773662808884e+03 +1.5800026352569379e+05 +2.1436305666645441e+07 
-9.6999999999999815e+00 -1.7036882302123035e-01 +3.8133131906254852e-01 +3.5584762898336426e+00 -4.1973823019890082e+00 -3.8308760792971393e+03 +1.5847631950911251e+05 +2.1466113540033750e+07 
-9.7999999999999812e+00 -1.7036883763518554e-01 +3.8133522263045883e-01 +3.5585828859009898e+00 -4.2909566871564202e+00 -3.8374326187572997e+03 +1.5894651210630714e+05 +2.1503929379475210e+07 
-9.8999999999999808e+00 -1.7036885333958846e-01 +3.8133913455076401e-01 +3.5587996853737982e+00 -4.3838740539813754e+00 -3.8457450119879677e+03 +1.5941150886059232e+05 +2.1550249918234885e+07 
-9.9999999999999805e+00 -1.7036887022380842e-01 +3.8134306815084434e-01 +3.5591335212216326e+00 -4.4763682526692481e+00 -3.8559112278272619e+03 +1.5987197784863526e+05 +2.1605571527503952e+07 
-1.0099999999999980e+01 -1.7036888834376154e-01 +3.8134703202729664e-01 +3.5595886278314168e+00 -4.5685746964889660e+00 -3.8679866010215178e+03 +1.6032799501672387e+05 +2.1670172315581404e+07 
