# trajectory
# s[mm] rx[mm] ry[mm] rz[mm] px[rad] py[rad] pz[rad]
0.0000000000000000e+00 +9.1013000000000002e+00 +0.0000000000000000e+00 +0.0000000000000000e+00 +0.0000000000000000e+00 +0.0000000000000000e+00 +1.0000000000000000e+00
-1.0000000000000001e-01 +9.1012994847440449e+00 +0.0000000000000000e+00 -9.9999999998230060e-02 +1.0305118821093973e-05 +0.0000000000000000e+00 +9.9999999994690225e-01
-2.0000000000000001e-01 +9.1012979389762894e+00 +0.0000000000000000e+00 -1.9999999998584056e-01 +2.0610236043862937e-05 +0.0000000000000000e+00 +9.9999999978760912e-01
-3.0000000000000004e-01 +9.1012953626968827e+00 +0.0000000000000000e+00 -2.9999999995221199e-01 +3.0915351886765804e-05 +0.0000000000000000e+00 +9.9999999952212049e-01
-4.0000000000000002e-01 +9.1012917559059510e+00 +0.0000000000000000e+00 -3.9999999988672480e-01 +4.1220466557584899e-05 +0.0000000000000000e+00 +9.9999999915043658e-01
-5.0000000000000000e-01 +9.1012871186036026e+00 +0.0000000000000000e+00 -4.9999999977875947e-01 +5.1525580253424803e-05 +0.0000000000000000e+00 +9.9999999867255729e-01
-5.9999999999999998e-01 +9.1012814507899265e+00 +0.0000000000000000e+00 -5.9999999961769646e-01 +6.1830693160711307e-05 +0.0000000000000000e+00 +9.9999999808848272e-01
-6.9999999999999996e-01 +9.1012747524649917e+00 +0.0000000000000000e+00 -6.9999999939291624e-01 +7.2135805455190514e-05 +0.0000000000000000e+00 +9.9999999739821277e-01
-7.9999999999999993e-01 +9.1012670236288500e+00 +0.0000000000000000e+00 -7.9999999909379915e-01 +8.2440917301928132e-05 +0.0000000000000000e+00 +9.9999999660174754e-01
-8.9999999999999991e-01 +9.1012582642815403e+00 +0.0000000000000000e+00 -8.9999999870972580e-01 +9.2746028855308885e-05 +0.0000000000000000e+00 +9.9999999569908704e-01
-9.9999999999999989e-01 +9.1012484744230839e+00 +0.0000000000000000e+00 -9.9999999823007668e-01 +1.0305114025903612e-04 +0.0000000000000000e+00 +9.9999999469023126e-01
-1.0999999999999999e+00 +9.1012376540534898e+00 +0.0000000000000000e+00 -1.0999999976442323e+00 +1.1335625164613145e-04 +0.0000000000000000e+00 +9.9999999357518010e-01
-1.2000000000000000e+00 +9.1012258031727526e+00 +0.0000000000000000e+00 -1.1999999969415729e+00 +1.2366136313893476e-04 +0.0000000000000000e+00 +9.9999999235393366e-01
-1.3000000000000000e+00 +9.1012129217808546e+00 +0.0000000000000000e+00 -1.2999999961114792e+00 +1.3396647484910409e-04 +0.0000000000000000e+00 +9.9999999102649184e-01
-1.4000000000000001e+00 +9.1011990098777709e+00 +0.0000000000000000e+00 -1.3999999951433315e+00 +1.4427158687761594e-04 +0.0000000000000000e+00 +9.9999998959285463e-01
-1.5000000000000002e+00 +9.1011840674634659e+00 +0.0000000000000000e+00 -1.4999999940265103e+00 +1.5457669931476557e-04 +0.0000000000000000e+00 +9.9999998805302204e-01
-1.6000000000000003e+00 +9.1011680945378917e+00 +0.0000000000000000e+00 -1.5999999927503961e+00 +1.6488181224016743e-04 +0.0000000000000000e+00 +9.9999998640699395e-01
-1.7000000000000004e+00 +9.1011510911009985e+00 +0.0000000000000000e+00 -1.6999999913043693e+00 +1.7518692572275591e-04 +0.0000000000000000e+00 +9.9999998465477047e-01
-1.8000000000000005e+00 +9.1011330571527260e+00 +0.0000000000000000e+00 -1.7999999896778103e+00 +1.8549203982078601e-04 +0.0000000000000000e+00 +9.9999998279635149e-01
-1.9000000000000006e+00 +9.1011139926930120e+00 +0.0000000000000000e+00 -1.8999999878600997e+00 +1.9579715458183439e-04 +0.0000000000000000e+00 +9.9999998083173702e-01
-2.0000000000000004e+00 +9.1010938977217872e+00 +0.0000000000000000e+00 -1.9999999858406179e+00 +2.0610227004280040e-04 +0.0000000000000000e+00 +9.9999997876092694e-01
-2.1000000000000005e+00 +9.1010727722389806e+00 +0.0000000000000000e+00 -2.0999999836087451e+00 +2.1640738623067917e-04 +0.0000000000000000e+00 +9.9999997658392137e-01
-2.2000000000000006e+00 +9.1010506162445175e+00 +0.0000000000000000e+00 -2.1999999811538622e+00 +2.2671250317105279e-04 +0.0000000000000000e+00 +9.9999997430072018e-01
-2.3000000000000007e+00 +9.1010274297383216e+00 +0.0000000000000000e+00 -2.2999999784653493e+00 +2.3701762089658066e-04 +0.0000000000000000e+00 +9.9999997191132339e-01
-2.4000000000000008e+00 +9.1010032127203111e+00 +0.0000000000000000e+00 -2.3999999755325869e+00 +2.4732273944777082e-04 +0.0000000000000000e+00 +9.9999996941573088e-01
-2.5000000000000009e+00 +9.1009779651904026e+00 +0.0000000000000000e+00 -2.4999999723449555e+00 +2.5762785887297937e-04 +0.0000000000000000e+00 +9.9999996681394265e-01
-2.6000000000000010e+00 +9.1009516871485054e+00 +0.0000000000000000e+00 -2.5999999688918356e+00 +2.6793297922841013e-04 +0.0000000000000000e+00 +9.9999996410595871e-01
-2.7000000000000011e+00 +9.1009243785945237e+00 +0.0000000000000000e+00 -2.6999999651626077e+00 +2.7823810057811375e-04 +0.0000000000000000e+00 +9.9999996129177893e-01
-2.8000000000000012e+00 +9.1008960395283545e+00 +0.0000000000000000e+00 -2.7999999611466517e+00 +2.8854322299398709e-04 +0.0000000000000000e+00 +9.9999995837140332e-01
-2.9000000000000012e+00 +9.1008666699498875e+00 +0.0000000000000000e+00 -2.8999999568333483e+00 +2.9884834655577236e-04 +0.0000000000000000e+00 +9.9999995534483188e-01
-3.0000000000000013e+00 +9.1008362698590020e+00 +0.0000000000000000e+00 -2.9999999522120779e+00 +3.0915347135105633e-04 +0.0000000000000000e+00 +9.9999995221206439e-01
-3.1000000000000014e+00 +9.1008048392555718e+00 +0.0000000000000000e+00 -3.0999999472722211e+00 +3.1945859747526935e-04 +0.0000000000000000e+00 +9.9999994897310096e-01
-3.2000000000000015e+00 +9.1007723781394585e+00 +0.0000000000000000e+00 -3.1999999420031582e+00 +3.2976372503168427e-04 +0.0000000000000000e+00 +9.9999994562794137e-01
-3.3000000000000016e+00 +9.1007388865105145e+00 +0.0000000000000000e+00 -3.2999999363942694e+00 +3.4006885413141540e-04 +0.0000000000000000e+00 +9.9999994217658561e-01
-3.4000000000000017e+00 +9.1007043643685783e+00 +0.0000000000000000e+00 -3.3999999304349351e+00 +3.5037398489341732e-04 +0.0000000000000000e+00 +9.9999993861903358e-01
-3.5000000000000018e+00 +9.1006688117134775e+00 +0.0000000000000000e+00 -3.4999999241145359e+00 +3.6067911744448370e-04 +0.0000000000000000e+00 +9.9999993495528516e-01
-3.6000000000000019e+00 +9.1006322285450256e+00 +0.0000000000000000e+00 -3.5999999174224522e+00 +3.7098425191924586e-04 +0.0000000000000000e+00 +9.9999993118534025e-01
-3.7000000000000020e+00 +9.1005946148630237e+00 +0.0000000000000000e+00 -3.6999999103480641e+00 +3.8128938846017157e-04 +0.0000000000000000e+00 +9.9999992730919873e-01
-3.8000000000000020e+00 +9.1005559706672585e+00 +0.0000000000000000e+00 -3.7999999028807521e+00 +3.9159452721756343e-04 +0.0000000000000000e+00 +9.9999992332686038e-01
-3.9000000000000021e+00 +9.1005162959575010e+00 +0.0000000000000000e+00 -3.8999998950098962e+00 +4.0189966834955739e-04 +0.0000000000000000e+00 +9.9999991923832521e-01
-4.0000000000000018e+00 +9.1004755907335042e+00 +0.0000000000000000e+00 -3.9999998867248769e+00 +4.1220481202212109e-04 +0.0000000000000000e+00 +9.9999991504359309e-01
-4.1000000000000014e+00 +9.1004338549950052e+00 +0.0000000000000000e+00 -4.0999998780150744e+00 +4.2250995840790632e-04 +0.0000000000000000e+00 +9.9999991074266381e-01
-4.2000000000000011e+00 +9.1003910887417252e+00 +0.0000000000000000e+00 -4.1999998688698694e+00 +4.3281510767364102e-04 +0.0000000000000000e+00 +9.9999990633553715e-01
-4.3000000000000007e+00 +9.1003472919733692e+00 +0.0000000000000000e+00 -4.2999998592786417e+00 +4.4312025996752361e-04 +0.0000000000000000e+00 +9.9999990182221299e-01
-4.4000000000000004e+00 +9.1003024646896264e+00 +0.0000000000000000e+00 -4.3999998492307721e+00 +4.5342541541807860e-04 +0.0000000000000000e+00 +9.9999989720269122e-01
-4.5000000000000000e+00 +9.1002566068901771e+00 +0.0000000000000000e+00 -4.4999998387156399e+00 +4.6373057413415865e-04 +0.0000000000000000e+00 +9.9999989247697174e-01
-4.5999999999999996e+00 +9.1002097185746891e+00 +0.0000000000000000e+00 -4.5999998277226259e+00 +4.7403573620494671e-04 +0.0000000000000000e+00 +9.9999988764505432e-01
-4.6999999999999993e+00 +9.1001617997428230e+00 +0.0000000000000000e+00 -4.6999998162411103e+00 +4.8434090169995823e-04 +0.0000000000000000e+00 +9.9999988270693885e-01
-4.7999999999999989e+00 +9.1001128503942343e+00 +0.0000000000000000e+00 -4.7999998042604739e+00 +4.9464607066904370e-04 +0.0000000000000000e+00 +9.9999987766262521e-01
-4.8999999999999986e+00 +9.1000628705285731e+00 +0.0000000000000000e+00 -4.8999997917700959e+00 +5.0495124314239100e-04 +0.0000000000000000e+00 +9.9999987251211320e-01
-4.9999999999999982e+00 +9.1000118601454894e+00 +0.0000000000000000e+00 -4.9999997787593564e+00 +5.1525641913052842e-04 +0.0000000000000000e+00 +9.9999986725540280e-01
-5.0999999999999979e+00 +9.0999598192446314e+00 +0.0000000000000000e+00 -5.0999997652176363e+00 +5.2556159862432710e-04 +0.0000000000000000e+00 +9.9999986189249379e-01
-5.1999999999999975e+00 +9.0999067478256492e+00 +0.0000000000000000e+00 -5.1999997511343157e+00 +5.3586678159500440e-04 +0.0000000000000000e+00 +9.9999985642338618e-01
-5.2999999999999972e+00 +9.0998526458881983e+00 +0.0000000000000000e+00 -5.2999997364987737e+00 +5.4617196799412672e-04 +0.0000000000000000e+00 +9.9999985084807985e-01
-5.3999999999999968e+00 +9.0997975134319393e+00 +0.0000000000000000e+00 -5.3999997213003912e+00 +5.5647715775361301e-04 +0.0000000000000000e+00 +9.9999984516657470e-01
-5.4999999999999964e+00 +9.0997413504565401e+00 +0.0000000000000000e+00 -5.4999997055285483e+00 +5.6678235078573796e-04 +0.0000000000000000e+00 +9.9999983937887071e-01
-5.5999999999999961e+00 +9.0996841569616773e+00 +0.0000000000000000e+00 -5.5999996891726251e+00 +5.7708754698313565e-04 +0.0000000000000000e+00 +9.9999983348496790e-01
-5.6999999999999957e+00 +9.0996259329470419e+00 +0.0000000000000000e+00 -5.6999996722220017e+00 +5.8739274621880328e-04 +0.0000000000000000e+00 +9.9999982748486616e-01
-5.7999999999999954e+00 +9.0995666784123372e+00 +0.0000000000000000e+00 -5.7999996546660579e+00 +5.9769794834610489e-04 +0.0000000000000000e+00 +9.9999982137856547e-01
-5.8999999999999950e+00 +9.0995063933572826e+00 +0.0000000000000000e+00 -5.8999996364941749e+00 +6.0800315319877536e-04 +0.0000000000000000e+00 +9.9999981516606595e-01
-5.9999999999999947e+00 +9.0994450777816134e+00 +0.0000000000000000e+00 -5.9999996176957318e+00 +6.1830836059092477e-04 +0.0000000000000000e+00 +9.9999980884736750e-01
-6.0999999999999943e+00 +9.0993827316850862e+00 +0.0000000000000000e+00 -6.0999995982601085e+00 +6.2861357031828845e-04 +0.0000000000000000e+00 +9.9999980242247022e-01
-6.1999999999999940e+00 +9.0993193550674789e+00 +0.0000000000000000e+00 -6.1999995781766861e+00 +6.3891878217193891e-04 +0.0000000000000000e+00 +9.9999979589137422e-01
-6.2999999999999936e+00 +9.0992549479285874e+00 +0.0000000000000000e+00 -6.2999995574348437e+00 +6.4922399595199458e-04 +0.0000000000000000e+00 +9.9999978925407951e-01
-6.3999999999999932e+00 +9.0991895102682303e+00 +0.0000000000000000e+00 -6.3999995360239623e+00 +6.5952921146886429e-04 +0.0000000000000000e+00 +9.9999978251058619e-01
-6.4999999999999929e+00 +9.0991230420862426e+00 +0.0000000000000000e+00 -6.4999995139334210e+00 +6.6983442854324571e-04 +0.0000000000000000e+00 +9.9999977566089426e-01
-6.5999999999999925e+00 +9.0990555433824767e+00 +0.0000000000000000e+00 -6.5999994911526008e+00 +6.8013964700612355e-04 +0.0000000000000000e+00 +9.9999976870500384e-01
-6.6999999999999922e+00 +9.0989870141568012e+00 +0.0000000000000000e+00 -6.6999994676708816e+00 +6.9044486669876768e-04 +0.0000000000000000e+00 +9.9999976164291493e-01
-6.7999999999999918e+00 +9.0989174544091007e+00 +0.0000000000000000e+00 -6.7999994434776436e+00 +7.0075008747273087e-04 +0.0000000000000000e+00 +9.9999975447462763e-01
-6.8999999999999915e+00 +9.0988468641392757e+00 +0.0000000000000000e+00 -6.8999994185622668e+00 +7.1105530918984684e-04 +0.0000000000000000e+00 +9.9999974720014195e-01
-6.9999999999999911e+00 +9.0987752433472355e+00 +0.0000000000000000e+00 -6.9999993929141322e+00 +7.2136053172222809e-04 +0.0000000000000000e+00 +9.9999973981945811e-01
-7.0999999999999908e+00 +9.0987025920329074e+00 +0.0000000000000000e+00 -7.0999993665226189e+00 +7.3166575495226341e-04 +0.0000000000000000e+00 +9.9999973233257600e-01
-7.1999999999999904e+00 +9.0986289101962257e+00 +0.0000000000000000e+00 -7.1999993393771078e+00 +7.4197097877261558e-04 +0.0000000000000000e+00 +9.9999972473949572e-01
-7.2999999999999901e+00 +9.0985541978371369e+00 +0.0000000000000000e+00 -7.2999993114669781e+00 +7.5227620308621849e-04 +0.0000000000000000e+00 +9.9999971704021740e-01
-7.3999999999999897e+00 +9.0984784549555950e+00 +0.0000000000000000e+00 -7.3999992827816108e+00 +7.6258142780627491e-04 +0.0000000000000000e+00 +9.9999970923474102e-01
-7.4999999999999893e+00 +9.0984016815515645e+00 +0.0000000000000000e+00 -7.4999992533103859e+00 +7.7288665285625351e-04 +0.0000000000000000e+00 +9.9999970132306659e-01
-7.5999999999999890e+00 +9.0983238776250150e+00 +0.0000000000000000e+00 -7.5999992230426843e+00 +7.8319187816988602e-04 +0.0000000000000000e+00 +9.9999969330519423e-01
-7.6999999999999886e+00 +9.0982450431759236e+00 +0.0000000000000000e+00 -7.6999991919678852e+00 +7.9349710369116427e-04 +0.0000000000000000e+00 +9.9999968518112392e-01
-7.7999999999999883e+00 +9.0981651782042707e+00 +0.0000000000000000e+00 -7.7999991600753695e+00 +8.0380232937433699e-04 +0.0000000000000000e+00 +9.9999967695085568e-01
-7.8999999999999879e+00 +9.0980842827100439e+00 +0.0000000000000000e+00 -7.8999991273545165e+00 +8.1410755518390677e-04 +0.0000000000000000e+00 +9.9999966861438960e-01
-7.9999999999999876e+00 +9.0980023566932307e+00 +0.0000000000000000e+00 -7.9999990937947070e+00 +8.2441278109462687e-04 +0.0000000000000000e+00 +9.9999966017172570e-01
-8.0999999999999872e+00 +9.0979194001538222e+00 +0.0000000000000000e+00 -8.0999990593853219e+00 +8.3471800709133688e-04 +0.0000000000000000e+00 +9.9999965162286386e-01
-8.1999999999999869e+00 +9.0978354130918095e+00 +0.0000000000000000e+00 -8.1999990241157406e+00 +8.4502323316719354e-04 +0.0000000000000000e+00 +9.9999964296780419e-01
-8.2999999999999865e+00 +9.0977503955071857e+00 +0.0000000000000000e+00 -8.2999989879753429e+00 +8.5532845932190270e-04 +0.0000000000000000e+00 +9.9999963420654669e-01
-8.3999999999999861e+00 +9.0976643473999417e+00 +0.0000000000000000e+00 -8.3999989509535098e+00 +8.6563368556155814e-04 +0.0000000000000000e+00 +9.9999962533909126e-01
-8.4999999999999858e+00 +9.0975772687700687e+00 +0.0000000000000000e+00 -8.4999989130396205e+00 +8.7593891189864117e-04 +0.0000000000000000e+00 +9.9999961636543799e-01
-8.5999999999999854e+00 +9.0974891596175578e+00 +0.0000000000000000e+00 -8.5999988742230560e+00 +8.8624413835202017e-04 +0.0000000000000000e+00 +9.9999960728558679e-01
-8.6999999999999851e+00 +9.0974000199423948e+00 +0.0000000000000000e+00 -8.6999988344931971e+00 +8.9654936494694968e-04 +0.0000000000000000e+00 +9.9999959809953765e-01
-8.7999999999999847e+00 +9.0973098497445637e+00 +0.0000000000000000e+00 -8.7999987938394231e+00 +9.0685459171507029e-04 +0.0000000000000000e+00 +9.9999958880729045e-01
-8.8999999999999844e+00 +9.0972186490240450e+00 +0.0000000000000000e+00 -8.8999987522511148e+00 +9.1715981869440802e-04 +0.0000000000000000e+00 +9.9999957940884532e-01
-8.9999999999999840e+00 +9.0971264177808155e+00 +0.0000000000000000e+00 -8.9999987097176515e+00 +9.2746504592937352e-04 +0.0000000000000000e+00 +9.9999956990420202e-01
-9.0999999999999837e+00 +9.0970331560148487e+00 +0.0000000000000000e+00 -9.0999986662284140e+00 +9.3777027347076176e-04 +0.0000000000000000e+00 +9.9999956029336068e-01
-9.1999999999999833e+00 +9.0969388637261090e+00 +0.0000000000000000e+00 -9.1999986217727834e+00 +9.4807550137575129e-04 +0.0000000000000000e+00 +9.9999955057632106e-01
-9.2999999999999829e+00 +9.0968435409145592e+00 +0.0000000000000000e+00 -9.2999985763401387e+00 +9.5838072970790391e-04 +0.0000000000000000e+00 +9.9999954075308317e-01
-9.3999999999999826e+00 +9.0967471875801511e+00 +0.0000000000000000e+00 -9.3999985299198610e+00 +9.6868595853716376e-04 +0.0000000000000000e+00 +9.9999953082364701e-01
-9.4999999999999822e+00 +9.0966498037228316e+00 +0.0000000000000000e+00 -9.4999984825013293e+00 +9.7899118793985684e-04 +0.0000000000000000e+00 +9.9999952078801235e-01
-9.5999999999999819e+00 +9.0965513893425403e+00 +0.0000000000000000e+00 -9.5999984340739246e+00 +9.8929641799869053e-04 +0.0000000000000000e+00 +9.9999951064617909e-01
-9.6999999999999815e+00 +9.0964519444392060e+00 +0.0000000000000000e+00 -9.6999983846270261e+00 +9.9960164880275276e-04 +0.0000000000000000e+00 +9.9999950039814722e-01
-9.7999999999999812e+00 +9.0963514690127507e+00 +0.0000000000000000e+00 -9.7999983341500148e+00 +1.0099068804475116e-03 +0.0000000000000000e+00 +9.9999949004391653e-01
-9.8999999999999808e+00 +9.0962499630630855e+00 +0.0000000000000000e+00 -9.8999982826322697e+00 +1.0202121130348143e-03 +0.0000000000000000e+00 +9.9999947958348689e-01
-9.9999999999999805e+00 +9.0961474265901092e+00 +0.0000000000000000e+00 -9.9999982300631718e+00 +1.0305173466728871e-03 +0.0000000000000000e+00 +9.9999946901685821e-01
-1.0099999999999980e+01 +9.0960438595937116e+00 +0.0000000000000000e+00 -1.0099998176432102e+01 +1.0408225814755884e-03 +0.0000000000000000e+00 +9.9999945834403037e-01
-1.0199999999999980e+01 +9.0959392620737720e+00 +0.0000000000000000e+00 -1.0199998121728438e+01 +1.0511278175542055e-03 +0.0000000000000000e+00 +9.9999944756500314e-01
-1.0299999999999979e+01 +9.0958336340301553e+00 +0.0000000000000000e+00 -1.0299998065941562e+01 +1.0614330550092505e-03 +0.0000000000000000e+00 +9.9999943667977631e-01
-1.0399999999999979e+01 +9.0957269754627212e+00 +0.0000000000000000e+00 -1.0399998009060853e+01 +1.0717382939297128e-03 +0.0000000000000000e+00 +9.9999942568834987e-01
-1.0499999999999979e+01 +9.0956192863713188e+00 +0.0000000000000000e+00 -1.0499997951075692e+01 +1.0820435343930589e-03 +0.0000000000000000e+00 +9.9999941459072361e-01
-1.0599999999999978e+01 +9.0955105667557898e+00 +0.0000000000000000e+00 -1.0599997891975457e+01 +1.0923487764652304e-03 +0.0000000000000000e+00 +9.9999940338689741e-01
-1.0699999999999978e+01 +9.0954008166159710e+00 +0.0000000000000000e+00 -1.0699997831749531e+01 +1.1026540202006435e-03 +0.0000000000000000e+00 +9.9999939207687116e-01
-1.0799999999999978e+01 +9.0952900359516935e+00 +0.0000000000000000e+00 -1.0799997770387293e+01 +1.1129592656421879e-03 +0.0000000000000000e+00 +9.9999938066064475e-01
-1.0899999999999977e+01 +9.0951782247627850e+00 +0.0000000000000000e+00 -1.0899997707878121e+01 +1.1232645128212253e-03 +0.0000000000000000e+00 +9.9999936913821819e-01
-1.0999999999999977e+01 +9.0950653830490715e+00 +0.0000000000000000e+00 -1.0999997644211398e+01 +1.1335697617575881e-03 +0.0000000000000000e+00 +9.9999935750959124e-01
-1.1099999999999977e+01 +9.0949515108103753e+00 +0.0000000000000000e+00 -1.1099997579376501e+01 +1.1438750124595787e-03 +0.0000000000000000e+00 +9.9999934577476390e-01
-1.1199999999999976e+01 +9.0948366080465206e+00 +0.0000000000000000e+00 -1.1199997513362810e+01 +1.1541802649239676e-03 +0.0000000000000000e+00 +9.9999933393373619e-01
-1.1299999999999976e+01 +9.0947206747573315e+00 +0.0000000000000000e+00 -1.1299997446159708e+01 +1.1644855191359931e-03 +0.0000000000000000e+00 +9.9999932198650798e-01
-1.1399999999999975e+01 +9.0946037109426356e+00 +0.0000000000000000e+00 -1.1399997377756572e+01 +1.1747907750693589e-03 +0.0000000000000000e+00 +9.9999930993307928e-01
-1.1499999999999975e+01 +9.0944857166022626e+00 +0.0000000000000000e+00 -1.1499997308142783e+01 +1.1850960326862340e-03 +0.0000000000000000e+00 +9.9999929777345009e-01
-1.1599999999999975e+01 +9.0943666917360453e+00 +0.0000000000000000e+00 -1.1599997237307722e+01 +1.1954012919372502e-03 +0.0000000000000000e+00 +9.9999928550762041e-01
-1.1699999999999974e+01 +9.0942466363438239e+00 +0.0000000000000000e+00 -1.1699997165240768e+01 +1.2057065527615019e-03 +0.0000000000000000e+00 +9.9999927313559023e-01
