# field on trajectory
# s[mm] rx[mm] ry[mm] rz[mm] bx[T] by[T] bz[T]
0.0000000000000000e+00 +9.0901999999999994e+00 +0.0000000000000000e+00 +0.0000000000000000e+00 +1.1295815518886695e-02 -1.0338948816529121e+00 -5.8779511183151383e-02
-1.0000000000000001e-01 +9.0901994834093802e+00 +0.0000000000000000e+00 -9.9999999998220887e-02 +1.1296053989597985e-02 -1.0338996377119729e+00 -5.8780983610749717e-02
-2.0000000000000001e-01 +9.0901979336343484e+00 +0.0000000000000000e+00 -1.9999999998576709e-01 +1.1296293297700473e-02 -1.0339044391669492e+00 -5.8782451704948828e-02
-3.0000000000000004e-01 +9.0901953506701059e+00 +0.0000000000000000e+00 -2.9999999995196375e-01 +1.1296533619871383e-02 -1.0339092848184528e+00 -5.8783915334209895e-02
-4.0000000000000002e-01 +9.0901917345118122e+00 +0.0000000000000000e+00 -3.9999999988613594e-01 +1.1296775132805283e-02 -1.0339141734669439e+00 -5.8785374366993062e-02
-5.0000000000000000e-01 +9.0901870851545805e+00 +0.0000000000000000e+00 -4.9999999977760851e-01 +1.1297018013204341e-02 -1.0339191039126570e+00 -5.8786828671756879e-02
-5.9999999999999998e-01 +9.0901814025934851e+00 +0.0000000000000000e+00 -5.9999999961570616e-01 +1.1297262437768700e-02 -1.0339240749555267e+00 -5.8788278116957762e-02
-6.9999999999999996e-01 +9.0901746868235591e+00 +0.0000000000000000e+00 -6.9999999938975355e-01 +1.1297508583186771e-02 -1.0339290853951217e+00 -5.8789722571049537e-02
-7.9999999999999993e-01 +9.0901669378397969e+00 +0.0000000000000000e+00 -7.9999999908907493e-01 +1.1297756626125543e-02 -1.0339341340305646e+00 -5.8791161902482791e-02
-8.9999999999999991e-01 +9.0901581556371536e+00 +0.0000000000000000e+00 -8.9999999870299474e-01 +1.1298006743220918e-02 -1.0339392196604655e+00 -5.8792595979704439e-02
-9.9999999999999989e-01 +9.0901483402105470e+00 +0.0000000000000000e+00 -9.9999999822083696e-01 +1.1298259111068019e-02 -1.0339443410828482e+00 -5.8794024671157109e-02
-1.0999999999999999e+00 +9.0901374915548629e+00 +0.0000000000000000e+00 -1.0999999976319255e+00 +1.1298513906211498e-02 -1.0339494970950753e+00 -5.8795447845278653e-02
-1.2000000000000000e+00 +9.0901256096649483e+00 +0.0000000000000000e+00 -1.1999999969255841e+00 +1.1298771305135884e-02 -1.0339546864937801e+00 -5.8796865370501564e-02
-1.3000000000000000e+00 +9.0901126945356197e+00 +0.0000000000000000e+00 -1.2999999960911364e+00 +1.1299031484255852e-02 -1.0339599080747894e+00 -5.8798277115252456e-02
-1.4000000000000001e+00 +9.0900987461616598e+00 +0.0000000000000000e+00 -1.3999999951179058e+00 +1.1299294619906588e-02 -1.0339651606330564e+00 -5.8799682947951577e-02
-1.5000000000000002e+00 +9.0900837645378214e+00 +0.0000000000000000e+00 -1.4999999939952158e+00 +1.1299560888334068e-02 -1.0339704429625840e+00 -5.8801082737012220e-02
-1.6000000000000003e+00 +9.0900677496588269e+00 +0.0000000000000000e+00 -1.5999999927123891e+00 +1.1299830430411753e-02 -1.0339757544404480e+00 -5.8802476308847308e-02
-1.7000000000000004e+00 +9.0900507015193721e+00 +0.0000000000000000e+00 -1.6999999912587489e+00 +1.1300103245844087e-02 -1.0339810967793086e+00 -5.8803863321890623e-02
-1.8000000000000005e+00 +9.0900326201141191e+00 +0.0000000000000000e+00 -1.7999999896236178e+00 +1.1300379299044512e-02 -1.0339864722756584e+00 -5.8805243392575070e-02
-1.9000000000000006e+00 +9.0900135054376960e+00 +0.0000000000000000e+00 -1.8999999877963187e+00 +1.1300658554422739e-02 -1.0339918832258661e+00 -5.8806616137325123e-02
-2.0000000000000004e+00 +9.0899933574846994e+00 +0.0000000000000000e+00 -1.9999999857661739e+00 +1.1300940976390565e-02 -1.0339973319262417e+00 -5.8807981172556339e-02
-2.1000000000000005e+00 +9.0899721762496863e+00 +0.0000000000000000e+00 -2.0999999835225056e+00 +1.1301226529367752e-02 -1.0340028206731056e+00 -5.8809338114674994e-02
-2.2000000000000006e+00 +9.0899499617271733e+00 +0.0000000000000000e+00 -2.1999999810546358e+00 +1.1301515177787828e-02 -1.0340083517628533e+00 -5.8810686580077542e-02
-2.3000000000000007e+00 +9.0899267139116358e+00 +0.0000000000000000e+00 -2.2999999783518863e+00 +1.1301806886103960e-02 -1.0340139274920253e+00 -5.8812026185150239e-02
-2.4000000000000008e+00 +9.0899024327975031e+00 +0.0000000000000000e+00 -2.3999999754035790e+00 +1.1302101618794776e-02 -1.0340195501573710e+00 -5.8813356546268604e-02
-2.5000000000000009e+00 +9.0898771183791602e+00 +0.0000000000000000e+00 -2.4999999721990354e+00 +1.1302399340370197e-02 -1.0340252220559165e+00 -5.8814677279797077e-02
-2.6000000000000010e+00 +9.0898507706509406e+00 +0.0000000000000000e+00 -2.5999999687275763e+00 +1.1302700015377297e-02 -1.0340309454850323e+00 -5.8815988002088482e-02
-2.7000000000000011e+00 +9.0898233896071279e+00 +0.0000000000000000e+00 -2.6999999649785233e+00 +1.1303003608406137e-02 -1.0340367227424987e+00 -5.8817288329483637e-02
-2.8000000000000012e+00 +9.0897949752419507e+00 +0.0000000000000000e+00 -2.7999999609411974e+00 +1.1303310084095585e-02 -1.0340425561265743e+00 -5.8818577878310893e-02
-2.9000000000000012e+00 +9.0897655275495843e+00 +0.0000000000000000e+00 -2.8999999566049195e+00 +1.1303619407139200e-02 -1.0340484479360621e+00 -5.8819856264885631e-02
-3.0000000000000013e+00 +9.0897350465241420e+00 +0.0000000000000000e+00 -2.9999999519590101e+00 +1.1303931542291019e-02 -1.0340544004703758e+00 -5.8821123105509923e-02
-3.1000000000000014e+00 +9.0897035321596800e+00 +0.0000000000000000e+00 -3.0999999469927895e+00 +1.1304246454371437e-02 -1.0340604160296090e+00 -5.8822378016472048e-02
-3.2000000000000015e+00 +9.0896709844501888e+00 +0.0000000000000000e+00 -3.1999999416955776e+00 +1.1304564108273013e-02 -1.0340664969145983e+00 -5.8823620614045974e-02
-3.3000000000000016e+00 +9.0896374033895970e+00 +0.0000000000000000e+00 -3.2999999360566945e+00 +1.1304884468966351e-02 -1.0340726454269937e+00 -5.8824850514491024e-02
-3.4000000000000017e+00 +9.0896027889717619e+00 +0.0000000000000000e+00 -3.3999999300654600e+00 +1.1305207501505883e-02 -1.0340788638693239e+00 -5.8826067334051407e-02
-3.5000000000000018e+00 +9.0895671411904733e+00 +0.0000000000000000e+00 -3.4999999237111932e+00 +1.1305533171035765e-02 -1.0340851545450642e+00 -5.8827270688955748e-02
-3.6000000000000019e+00 +9.0895304600394482e+00 +0.0000000000000000e+00 -3.5999999169832138e+00 +1.1305861413408431e-02 -1.0340915180279358e+00 -5.8828460364954240e-02
-3.7000000000000020e+00 +9.0894927455123327e+00 +0.0000000000000000e+00 -3.6999999098708409e+00 +1.1306192046985833e-02 -1.0340979479693431e+00 -5.8829636825951048e-02
-3.8000000000000020e+00 +9.0894539976027051e+00 +0.0000000000000000e+00 -3.7999999023633930e+00 +1.1306524860728770e-02 -1.0341044362901672e+00 -5.8830800705424617e-02
-3.9000000000000021e+00 +9.0894142163040872e+00 +0.0000000000000000e+00 -3.8999998944501892e+00 +1.1306859643571128e-02 -1.0341109749114628e+00 -5.8831952636897153e-02
-4.0000000000000018e+00 +9.0893734016099508e+00 +0.0000000000000000e+00 -3.9999998861205475e+00 +1.1307196184416973e-02 -1.0341175557544631e+00 -5.8833093253937985e-02
-4.1000000000000014e+00 +9.0893315535137233e+00 +0.0000000000000000e+00 -4.0999998773637865e+00 +1.1307534272137664e-02 -1.0341241707405793e+00 -5.8834223190166915e-02
-4.2000000000000011e+00 +9.0892886720088004e+00 +0.0000000000000000e+00 -4.1999998681692237e+00 +1.1307873695568932e-02 -1.0341308117914043e+00 -5.8835343079257599e-02
-4.3000000000000007e+00 +9.0892447570885491e+00 +0.0000000000000000e+00 -4.2999998585261769e+00 +1.1308214243507969e-02 -1.0341374708287141e+00 -5.8836453554940965e-02
-4.4000000000000004e+00 +9.0891998087463222e+00 +0.0000000000000000e+00 -4.3999998484239642e+00 +1.1308555704710543e-02 -1.0341441397744688e+00 -5.8837555251008485e-02
-4.5000000000000000e+00 +9.0891538269754601e+00 +0.0000000000000000e+00 -4.4999998378519024e+00 +1.1308897867888067e-02 -1.0341508105508164e+00 -5.8838648801315570e-02
-4.5999999999999996e+00 +9.0891068117693017e+00 +0.0000000000000000e+00 -4.5999998267993085e+00 +1.1309240521704712e-02 -1.0341574750800937e+00 -5.8839734839784934e-02
-4.6999999999999993e+00 +9.0890587631211925e+00 +0.0000000000000000e+00 -4.6999998152554996e+00 +1.1309583454774489e-02 -1.0341641252848270e+00 -5.8840814000409983e-02
-4.7999999999999989e+00 +9.0890096810244945e+00 +0.0000000000000000e+00 -4.7999998032097926e+00 +1.1309926455658356e-02 -1.0341707530877375e+00 -5.8841886917258182e-02
-4.8999999999999986e+00 +9.0889595654725888e+00 +0.0000000000000000e+00 -4.8999997906515045e+00 +1.1310269312861308e-02 -1.0341773504117380e+00 -5.8842954224474248e-02
-4.9999999999999982e+00 +9.0889084164588887e+00 +0.0000000000000000e+00 -4.9999997775699505e+00 +1.1310611814829469e-02 -1.0341839091799403e+00 -5.8844016556283782e-02
-5.0999999999999979e+00 +9.0888562339768466e+00 +0.0000000000000000e+00 -5.0999997639544477e+00 +1.1310953749947188e-02 -1.0341904213156532e+00 -5.8845074546996390e-02
-5.1999999999999975e+00 +9.0888030180199610e+00 +0.0000000000000000e+00 -5.1999997497943111e+00 +1.1311294906534151e-02 -1.0341968787423865e+00 -5.8846128831009113e-02
-5.2999999999999972e+00 +9.0887487685817856e+00 +0.0000000000000000e+00 -5.2999997350788570e+00 +1.1311635072842462e-02 -1.0342032733838513e+00 -5.8847180042809803e-02
-5.3999999999999968e+00 +9.0886934856559360e+00 +0.0000000000000000e+00 -5.3999997197974015e+00 +1.1311974037053736e-02 -1.0342095971639642e+00 -5.8848228816980486e-02
-5.4999999999999964e+00 +9.0886371692361010e+00 +0.0000000000000000e+00 -5.4999997039392596e+00 +1.1312311587276224e-02 -1.0342158420068464e+00 -5.8849275788200615e-02
-5.5999999999999961e+00 +9.0885798193160454e+00 +0.0000000000000000e+00 -5.5999996874937468e+00 +1.1312647587892194e-02 -1.0342220009827470e+00 -5.8850321434333129e-02
-5.6999999999999957e+00 +9.0885214358896214e+00 +0.0000000000000000e+00 -5.6999996704501781e+00 +1.1312982208655864e-02 -1.0342280717457313e+00 -5.8851365605634823e-02
-5.7999999999999954e+00 +9.0884620189507679e+00 +0.0000000000000000e+00 -5.7999996527978688e+00 +1.1313315695723551e-02 -1.0342340530956913e+00 -5.8852407995450745e-02
-5.8999999999999950e+00 +9.0884015684935147e+00 +0.0000000000000000e+00 -5.8999996345261332e+00 +1.1313648295316800e-02 -1.0342399438323626e+00 -5.8853448297124279e-02
-5.9999999999999947e+00 +9.0883400845119802e+00 +0.0000000000000000e+00 -5.9999996156242865e+00 +1.1313980253725773e-02 -1.0342457427553153e+00 -5.8854486203995950e-02
-6.0999999999999943e+00 +9.0882775670003788e+00 +0.0000000000000000e+00 -6.0999995960816431e+00 +1.1314311817312577e-02 -1.0342514486639376e+00 -5.8855521409401992e-02
-6.1999999999999940e+00 +9.0882140159530138e+00 +0.0000000000000000e+00 -6.1999995758875182e+00 +1.1314643232514640e-02 -1.0342570603574233e+00 -5.8856553606673224e-02
-6.2999999999999936e+00 +9.0881494313642843e+00 +0.0000000000000000e+00 -6.2999995550312251e+00 +1.1314974745848031e-02 -1.0342625766347568e+00 -5.8857582489133441e-02
-6.3999999999999932e+00 +9.0880838132286854e+00 +0.0000000000000000e+00 -6.3999995335020792e+00 +1.1315306603910856e-02 -1.0342679962947061e+00 -5.8858607750098380e-02
-6.4999999999999929e+00 +9.0880171615408063e+00 +0.0000000000000000e+00 -6.4999995112893938e+00 +1.1315639053386558e-02 -1.0342733181358008e+00 -5.8859629082874149e-02
-6.5999999999999925e+00 +9.0879494762953392e+00 +0.0000000000000000e+00 -6.5999994883824842e+00 +1.1315972341047338e-02 -1.0342785409563269e+00 -5.8860646180756190e-02
-6.6999999999999922e+00 +9.0878807574870706e+00 +0.0000000000000000e+00 -6.6999994647706629e+00 +1.1316306713757442e-02 -1.0342836635543098e+00 -5.8861658737027707e-02
-6.7999999999999918e+00 +9.0878110051108880e+00 +0.0000000000000000e+00 -6.7999994404432451e+00 +1.1316642418476554e-02 -1.0342886847275001e+00 -5.8862666444958467e-02
-6.8999999999999915e+00 +9.0877402191617822e+00 +0.0000000000000000e+00 -6.8999994153895443e+00 +1.1316979702263122e-02 -1.0342936032733652e+00 -5.8863668997803494e-02
-6.9999999999999911e+00 +9.0876683996348468e+00 +0.0000000000000000e+00 -6.9999993895988739e+00 +1.1317318812277733e-02 -1.0342984179890715e+00 -5.8864666088801740e-02
-7.0999999999999908e+00 +9.0875955465252769e+00 +0.0000000000000000e+00 -7.0999993630605474e+00 +1.1317659995786449e-02 -1.0343031276714743e+00 -5.8865657411174735e-02
-7.1999999999999904e+00 +9.0875216598283739e+00 +0.0000000000000000e+00 -7.1999993357638790e+00 +1.1318003500164162e-02 -1.0343077311171032e+00 -5.8866642658125364e-02
-7.2999999999999901e+00 +9.0874467395395460e+00 +0.0000000000000000e+00 -7.2999993076981813e+00 +1.1318349572897943e-02 -1.0343122271221510e+00 -5.8867621522836401e-02
-7.3999999999999897e+00 +9.0873707856543078e+00 +0.0000000000000000e+00 -7.3999992788527686e+00 +1.1318698461590400e-02 -1.0343166144824583e+00 -5.8868593698469376e-02
-7.4999999999999893e+00 +9.0872937981682842e+00 +0.0000000000000000e+00 -7.4999992492169545e+00 +1.1319050413963028e-02 -1.0343208919935045e+00 -5.8869558878163197e-02
-7.5999999999999890e+00 +9.0872157770772084e+00 +0.0000000000000000e+00 -7.5999992187800514e+00 +1.1319405604686139e-02 -1.0343250595744016e+00 -5.8870516929139083e-02
-7.6999999999999886e+00 +9.0871367223769237e+00 +0.0000000000000000e+00 -7.6999991875313736e+00 +1.1319763915774496e-02 -1.0343291216403472e+00 -5.8871468415014089e-02
-7.7999999999999883e+00 +9.0870566340633783e+00 +0.0000000000000000e+00 -7.7999991554602337e+00 +1.1320125155968952e-02 -1.0343330837311029e+00 -5.8872414073437108e-02
-7.8999999999999879e+00 +9.0869755121326214e+00 +0.0000000000000000e+00 -7.8999991225559452e+00 +1.1320489133888705e-02 -1.0343369513870273e+00 -5.8873354641966531e-02
-7.9999999999999876e+00 +9.0868933565807968e+00 +0.0000000000000000e+00 -7.9999990888078205e+00 +1.1320855658026735e-02 -1.0343407301490966e+00 -5.8874290858066988e-02
-8.0999999999999872e+00 +9.0868101674041348e+00 +0.0000000000000000e+00 -8.0999990542051741e+00 +1.1321224536745181e-02 -1.0343444255589234e+00 -5.8875223459106042e-02
-8.1999999999999869e+00 +9.0867259445989532e+00 +0.0000000000000000e+00 -8.1999990187373175e+00 +1.1321595578270780e-02 -1.0343480431587722e+00 -5.8876153182350892e-02
-8.2999999999999865e+00 +9.0866406881616442e+00 +0.0000000000000000e+00 -8.2999989823935660e+00 +1.1321968590690262e-02 -1.0343515884915804e+00 -5.8877080764965124e-02
-8.3999999999999861e+00 +9.0865543980886727e+00 +0.0000000000000000e+00 -8.3999989451632313e+00 +1.1322343381945762e-02 -1.0343550671009771e+00 -5.8878006944005377e-02
-8.4999999999999858e+00 +9.0864670743765732e+00 +0.0000000000000000e+00 -8.4999989070356250e+00 +1.1322719759830218e-02 -1.0343584845312979e+00 -5.8878932456418065e-02
-8.5999999999999854e+00 +9.0863787170219386e+00 +0.0000000000000000e+00 -8.5999988680000623e+00 +1.1323097531982799e-02 -1.0343618463276079e+00 -5.8879858039036115e-02
-8.6999999999999851e+00 +9.0862893260214186e+00 +0.0000000000000000e+00 -8.6999988280458549e+00 +1.1323476505884287e-02 -1.0343651580357165e+00 -5.8880784428575673e-02
-8.7999999999999847e+00 +9.0861989013717128e+00 +0.0000000000000000e+00 -8.7999987871623144e+00 +1.1323856488852509e-02 -1.0343684252021976e+00 -5.8881712361632706e-02
-8.8999999999999844e+00 +9.0861074430695652e+00 +0.0000000000000000e+00 -8.8999987453387561e+00 +1.1324237288037737e-02 -1.0343716533744083e+00 -5.8882642574679941e-02
-8.9999999999999840e+00 +9.0860149511117605e+00 +0.0000000000000000e+00 -8.9999987025644899e+00 +1.1324618710418049e-02 -1.0343748481005051e+00 -5.8883575804063303e-02
-9.0999999999999837e+00 +9.0859214254951137e+00 +0.0000000000000000e+00 -9.0999986588288309e+00 +1.1325000562794819e-02 -1.0343780149294632e+00 -5.8884512785998808e-02
-9.1999999999999833e+00 +9.0858268662164701e+00 +0.0000000000000000e+00 -9.1999986141210890e+00 +1.1325382651788035e-02 -1.0343811594110968e+00 -5.8885454256569200e-02
-9.2999999999999829e+00 +9.0857312732726978e+00 +0.0000000000000000e+00 -9.2999985684305795e+00 +1.1325764783831765e-02 -1.0343842870960742e+00 -5.8886400951720638e-02
-9.3999999999999826e+00 +9.0856346466606812e+00 +0.0000000000000000e+00 -9.3999985217466122e+00 +1.1326146765169527e-02 -1.0343874035359388e+00 -5.8887353607259406e-02
-9.4999999999999822e+00 +9.0855369863773152e+00 +0.0000000000000000e+00 -9.4999984740585006e+00 +1.1326528401849691e-02 -1.0343905142831249e+00 -5.8888312958848651e-02
-9.5999999999999819e+00 +9.0854382924195018e+00 +0.0000000000000000e+00 -9.5999984253555564e+00 +1.1326909531591720e-02 -1.0343936234463040e+00 -5.8889279491084204e-02
-9.6999999999999815e+00 +9.0853385647841431e+00 +0.0000000000000000e+00 -9.6999983756270929e+00 +1.1327290119504530e-02 -1.0343967293552527e+00 -5.8890252684691800e-02
-9.7999999999999812e+00 +9.0852378034681482e+00 +0.0000000000000000e+00 -9.7999983248624201e+00 +1.1327670162653448e-02 -1.0343998288934937e+00 -5.8891231769325994e-02
-9.8999999999999808e+00 +9.0851360084684298e+00 +0.0000000000000000e+00 -9.8999982730508513e+00 +1.1328049658215810e-02 -1.0344029189428399e+00 -5.8892215974513683e-02
-9.9999999999999805e+00 +9.0850331797819113e+00 +0.0000000000000000e+00 -9.9999982201816984e+00 +1.1328428603484526e-02 -1.0344059963833470e+00 -5.8893204529651480e-02
-1.0099999999999980e+01 +9.0849293174055283e+00 +0.0000000000000000e+00 -1.0099998166244273e+01 +1.1328806995871655e-02 -1.0344090580932657e+00 -5.8894196664003362e-02
-1.0199999999999980e+01 +9.0848244213362346e+00 +0.0000000000000000e+00 -1.0199998111227886e+01 +1.1329184832911975e-02 -1.0344121009489908e+00 -5.8895191606698066e-02
-1.0299999999999979e+01 +9.0847184915709978e+00 +0.0000000000000000e+00 -1.0299998055121849e+01 +1.1329562112266552e-02 -1.0344151218250159e+00 -5.8896188586726510e-02
-1.0399999999999979e+01 +9.0846115281068123e+00 +0.0000000000000000e+00 -1.0399997997915474e+01 +1.1329938831726323e-02 -1.0344181175938816e+00 -5.8897186832939388e-02
-1.0499999999999979e+01 +9.0845035309406974e+00 +0.0000000000000000e+00 -1.0499997939598073e+01 +1.1330314989215664e-02 -1.0344210851261295e+00 -5.8898185574044581e-02
-1.0599999999999978e+01 +9.0843945000696973e+00 +0.0000000000000000e+00 -1.0599997880158956e+01 +1.1330690582795965e-02 -1.0344240212902516e+00 -5.8899184038604682e-02
-1.0699999999999978e+01 +9.0842844354908898e+00 +0.0000000000000000e+00 -1.0699997819587434e+01 +1.1331065610669206e-02 -1.0344269229526446e+00 -5.8900181455034471e-02
-1.0799999999999978e+01 +9.0841733372013884e+00 +0.0000000000000000e+00 -1.0799997757872820e+01 +1.1331440071181557e-02 -1.0344297869775569e+00 -5.8901177051598391e-02
-1.0899999999999977e+01 +9.0840612051983420e+00 +0.0000000000000000e+00 -1.0899997695004425e+01 +1.1331813962826918e-02 -1.0344326102270449e+00 -5.8902170056408104e-02
-1.0999999999999977e+01 +9.0839480394789440e+00 +0.0000000000000000e+00 -1.0999997630971558e+01 +1.1332187284250545e-02 -1.0344353895609211e+00 -5.8903159697419959e-02
-1.1099999999999977e+01 +9.0838338400404268e+00 +0.0000000000000000e+00 -1.1099997565763532e+01 +1.1332560034252601e-02 -1.0344381218367074e+00 -5.8904145202432430e-02
-1.1199999999999976e+01 +9.0837186068800726e+00 +0.0000000000000000e+00 -1.1199997499369658e+01 +1.1332932211791749e-02 -1.0344408039095840e+00 -5.8905125799083795e-02
-1.1299999999999976e+01 +9.0836023399952150e+00 +0.0000000000000000e+00 -1.1299997431779248e+01 +1.1333303815988750e-02 -1.0344434326323442e+00 -5.8906100714849405e-02
-1.1399999999999975e+01 +9.0834850393832394e+00 +0.0000000000000000e+00 -1.1399997362981612e+01 +1.1333674846130031e-02 -1.0344460048553434e+00 -5.8907069177039438e-02
-1.1499999999999975e+01 +9.0833667050415876e+00 +0.0000000000000000e+00 -1.1499997292966061e+01 +1.1334045301671286e-02 -1.0344485174264513e+00 -5.8908030412796235e-02
-1.1599999999999975e+01 +9.0832473369677622e+00 +0.0000000000000000e+00 -1.1599997221721905e+01 +1.1334415159413502e-02 -1.0344509669351674e+00 -5.8908984064914259e-02
-1.1699999999999974e+01 +9.0831269351593296e+00 +0.0000000000000000e+00 -1.1699997149238456e+01 +1.1334784304970454e-02 -1.0344533489461116e+00 -5.8909931439660931e-02
