# trajectory
# s[mm] rx[mm] ry[mm] rz[mm] px[rad] py[rad] pz[rad]
0.0000000000000000e+00 +9.0901999999999994e+00 +0.0000000000000000e+00 +0.0000000000000000e+00 +0.0000000000000000e+00 +0.0000000000000000e+00 +1.0000000000000000e+00
-1.0000000000000001e-01 +9.0901994834093802e+00 +0.0000000000000000e+00 -9.9999999998220887e-02 +1.0331820287928946e-05 +0.0000000000000000e+00 +9.9999999994662669e-01
-2.0000000000000001e-01 +9.0901979336343484e+00 +0.0000000000000000e+00 -1.9999999998576709e-01 +2.0663688330265557e-05 +0.0000000000000000e+00 +9.9999999978650589e-01
-3.0000000000000004e-01 +9.0901953506701059e+00 +0.0000000000000000e+00 -2.9999999995196375e-01 +3.0995604573559337e-05 +0.0000000000000000e+00 +9.9999999951963614e-01
-4.0000000000000002e-01 +9.0901917345118122e+00 +0.0000000000000000e+00 -3.9999999988613594e-01 +4.1327569452373472e-05 +0.0000000000000000e+00 +9.9999999914601589e-01
-5.0000000000000000e-01 +9.0901870851545805e+00 +0.0000000000000000e+00 -4.9999999977760851e-01 +5.1659583389282928e-05 +0.0000000000000000e+00 +9.9999999866564360e-01
-5.9999999999999998e-01 +9.0901814025934851e+00 +0.0000000000000000e+00 -5.9999999961570616e-01 +6.1991646794871890e-05 +0.0000000000000000e+00 +9.9999999807851769e-01
-6.9999999999999996e-01 +9.0901746868235591e+00 +0.0000000000000000e+00 -6.9999999938975355e-01 +7.2323760067730344e-05 +0.0000000000000000e+00 +9.9999999738463674e-01
-7.9999999999999993e-01 +9.0901669378397969e+00 +0.0000000000000000e+00 -7.9999999908907493e-01 +8.2655923594450079e-05 +0.0000000000000000e+00 +9.9999999658399907e-01
-8.9999999999999991e-01 +9.0901581556371536e+00 +0.0000000000000000e+00 -8.9999999870299474e-01 +9.2988137749619909e-05 +0.0000000000000000e+00 +9.9999999567660303e-01
-9.9999999999999989e-01 +9.0901483402105470e+00 +0.0000000000000000e+00 -9.9999999822083696e-01 +1.0332040289582015e-04 +0.0000000000000000e+00 +9.9999999466244704e-01
-1.0999999999999999e+00 +9.0901374915548629e+00 +0.0000000000000000e+00 -1.0999999976319255e+00 +1.1365271938361635e-04 +0.0000000000000000e+00 +9.9999999354152957e-01
-1.2000000000000000e+00 +9.0901256096649483e+00 +0.0000000000000000e+00 -1.1999999969255841e+00 +1.2398508755155242e-04 +0.0000000000000000e+00 +9.9999999231384895e-01
-1.3000000000000000e+00 +9.0901126945356197e+00 +0.0000000000000000e+00 -1.2999999960911364e+00 +1.3431750772614293e-04 +0.0000000000000000e+00 +9.9999999097940351e-01
-1.4000000000000001e+00 +9.0900987461616598e+00 +0.0000000000000000e+00 -1.3999999951179058e+00 +1.4464998022186470e-04 +0.0000000000000000e+00 +9.9999998953819158e-01
-1.5000000000000002e+00 +9.0900837645378214e+00 +0.0000000000000000e+00 -1.4999999939952158e+00 +1.5498250534114771e-04 +0.0000000000000000e+00 +9.9999998799021150e-01
-1.6000000000000003e+00 +9.0900677496588269e+00 +0.0000000000000000e+00 -1.5999999927123891e+00 +1.6531508337582442e-04 +0.0000000000000000e+00 +9.9999998633546161e-01
-1.7000000000000004e+00 +9.0900507015193721e+00 +0.0000000000000000e+00 -1.6999999912587489e+00 +1.7564771462317167e-04 +0.0000000000000000e+00 +9.9999998457394013e-01
-1.8000000000000005e+00 +9.0900326201141191e+00 +0.0000000000000000e+00 -1.7999999896236178e+00 +1.8598039940195718e-04 +0.0000000000000000e+00 +9.9999998270564550e-01
-1.9000000000000006e+00 +9.0900135054376960e+00 +0.0000000000000000e+00 -1.8999999877963187e+00 +1.9631313805389694e-04 +0.0000000000000000e+00 +9.9999998073057583e-01
-2.0000000000000004e+00 +9.0899933574846994e+00 +0.0000000000000000e+00 -1.9999999857661739e+00 +2.0664593094365442e-04 +0.0000000000000000e+00 +9.9999997864872947e-01
-2.1000000000000005e+00 +9.0899721762496863e+00 +0.0000000000000000e+00 -2.0999999835225056e+00 +2.1697877845884022e-04 +0.0000000000000000e+00 +9.9999997646010463e-01
-2.2000000000000006e+00 +9.0899499617271733e+00 +0.0000000000000000e+00 -2.1999999810546358e+00 +2.2731168101001255e-04 +0.0000000000000000e+00 +9.9999997416469955e-01
-2.3000000000000007e+00 +9.0899267139116358e+00 +0.0000000000000000e+00 -2.2999999783518863e+00 +2.3764463903067833e-04 +0.0000000000000000e+00 +9.9999997176251243e-01
-2.4000000000000008e+00 +9.0899024327975031e+00 +0.0000000000000000e+00 -2.3999999754035790e+00 +2.4797765297729493e-04 +0.0000000000000000e+00 +9.9999996925354140e-01
-2.5000000000000009e+00 +9.0898771183791602e+00 +0.0000000000000000e+00 -2.4999999721990354e+00 +2.5831072332927260e-04 +0.0000000000000000e+00 +9.9999996663778457e-01
-2.6000000000000010e+00 +9.0898507706509406e+00 +0.0000000000000000e+00 -2.5999999687275763e+00 +2.6864385058897756e-04 +0.0000000000000000e+00 +9.9999996391524015e-01
-2.7000000000000011e+00 +9.0898233896071279e+00 +0.0000000000000000e+00 -2.6999999649785233e+00 +2.7897703528173589e-04 +0.0000000000000000e+00 +9.9999996108590616e-01
-2.8000000000000012e+00 +9.0897949752419507e+00 +0.0000000000000000e+00 -2.7999999609411974e+00 +2.8931027795583780e-04 +0.0000000000000000e+00 +9.9999995814978071e-01
-2.9000000000000012e+00 +9.0897655275495843e+00 +0.0000000000000000e+00 -2.8999999566049195e+00 +2.9964357918254279e-04 +0.0000000000000000e+00 +9.9999995510686179e-01
-3.0000000000000013e+00 +9.0897350465241420e+00 +0.0000000000000000e+00 -2.9999999519590101e+00 +3.0997693955608550e-04 +0.0000000000000000e+00 +9.9999995195714741e-01
-3.1000000000000014e+00 +9.0897035321596800e+00 +0.0000000000000000e+00 -3.0999999469927895e+00 +3.2031035969368204e-04 +0.0000000000000000e+00 +9.9999994870063547e-01
-3.2000000000000015e+00 +9.0896709844501888e+00 +0.0000000000000000e+00 -3.1999999416955776e+00 +3.3064384023553717e-04 +0.0000000000000000e+00 +9.9999994533732406e-01
-3.3000000000000016e+00 +9.0896374033895970e+00 +0.0000000000000000e+00 -3.2999999360566945e+00 +3.4097738184485203e-04 +0.0000000000000000e+00 +9.9999994186721097e-01
-3.4000000000000017e+00 +9.0896027889717619e+00 +0.0000000000000000e+00 -3.3999999300654600e+00 +3.5131098520783266e-04 +0.0000000000000000e+00 +9.9999993829029410e-01
-3.5000000000000018e+00 +9.0895671411904733e+00 +0.0000000000000000e+00 -3.4999999237111932e+00 +3.6164465103369911e-04 +0.0000000000000000e+00 +9.9999993460657122e-01
-3.6000000000000019e+00 +9.0895304600394482e+00 +0.0000000000000000e+00 -3.5999999169832138e+00 +3.7197838005037124e-04 +0.0000000000000000e+00 +9.9999993081604011e-01
-3.7000000000000020e+00 +9.0894927455123327e+00 +0.0000000000000000e+00 -3.6999999098708409e+00 +3.8231217295691501e-04 +0.0000000000000000e+00 +9.9999992691869866e-01
-3.8000000000000020e+00 +9.0894539976027051e+00 +0.0000000000000000e+00 -3.7999999023633930e+00 +3.9264603037598392e-04 +0.0000000000000000e+00 +9.9999992291454454e-01
-3.9000000000000021e+00 +9.0894142163040872e+00 +0.0000000000000000e+00 -3.8999998944501892e+00 +4.0297995284949704e-04 +0.0000000000000000e+00 +9.9999991880357564e-01
-4.0000000000000018e+00 +9.0893734016099508e+00 +0.0000000000000000e+00 -3.9999998861205475e+00 +4.1331394083864062e-04 +0.0000000000000000e+00 +9.9999991458578963e-01
-4.1000000000000014e+00 +9.0893315535137233e+00 +0.0000000000000000e+00 -4.0999998773637865e+00 +4.2364799472387004e-04 +0.0000000000000000e+00 +9.9999991026118440e-01
-4.2000000000000011e+00 +9.0892886720088004e+00 +0.0000000000000000e+00 -4.1999998681692237e+00 +4.3398211480491153e-04 +0.0000000000000000e+00 +9.9999990582975773e-01
-4.3000000000000007e+00 +9.0892447570885491e+00 +0.0000000000000000e+00 -4.2999998585261769e+00 +4.4431630130076401e-04 +0.0000000000000000e+00 +9.9999990129150751e-01
-4.4000000000000004e+00 +9.0891998087463222e+00 +0.0000000000000000e+00 -4.3999998484239642e+00 +4.5465055434970093e-04 +0.0000000000000000e+00 +9.9999989664643152e-01
-4.5000000000000000e+00 +9.0891538269754601e+00 +0.0000000000000000e+00 -4.4999998378519024e+00 +4.6498487400927217e-04 +0.0000000000000000e+00 +9.9999989189452776e-01
-4.5999999999999996e+00 +9.0891068117693017e+00 +0.0000000000000000e+00 -4.5999998267993085e+00 +4.7531926025630574e-04 +0.0000000000000000e+00 +9.9999988703579412e-01
-4.6999999999999993e+00 +9.0890587631211925e+00 +0.0000000000000000e+00 -4.6999998152554996e+00 +4.8565371298690997e-04 +0.0000000000000000e+00 +9.9999988207022872e-01
-4.7999999999999989e+00 +9.0890096810244945e+00 +0.0000000000000000e+00 -4.7999998032097926e+00 +4.9598823201647520e-04 +0.0000000000000000e+00 +9.9999987699782944e-01
-4.8999999999999986e+00 +9.0889595654725888e+00 +0.0000000000000000e+00 -4.8999997906515045e+00 +5.0632281707967575e-04 +0.0000000000000000e+00 +9.9999987181859440e-01
-4.9999999999999982e+00 +9.0889084164588887e+00 +0.0000000000000000e+00 -4.9999997775699505e+00 +5.1665746783047196e-04 +0.0000000000000000e+00 +9.9999986653252171e-01
-5.0999999999999979e+00 +9.0888562339768466e+00 +0.0000000000000000e+00 -5.0999997639544477e+00 +5.2699218384211211e-04 +0.0000000000000000e+00 +9.9999986113960959e-01
-5.1999999999999975e+00 +9.0888030180199610e+00 +0.0000000000000000e+00 -5.1999997497943111e+00 +5.3732696460713437e-04 +0.0000000000000000e+00 +9.9999985563985627e-01
-5.2999999999999972e+00 +9.0887487685817856e+00 +0.0000000000000000e+00 -5.2999997350788570e+00 +5.4766180953736896e-04 +0.0000000000000000e+00 +9.9999985003326008e-01
-5.3999999999999968e+00 +9.0886934856559360e+00 +0.0000000000000000e+00 -5.3999997197974015e+00 +5.5799671796393998e-04 +0.0000000000000000e+00 +9.9999984431981936e-01
-5.4999999999999964e+00 +9.0886371692361010e+00 +0.0000000000000000e+00 -5.4999997039392596e+00 +5.6833168913726769e-04 +0.0000000000000000e+00 +9.9999983849953267e-01
-5.5999999999999961e+00 +9.0885798193160454e+00 +0.0000000000000000e+00 -5.5999996874937468e+00 +5.7866672222993323e-04 +0.0000000000000000e+00 +9.9999983257239844e-01
-5.6999999999999957e+00 +9.0885214358896214e+00 +0.0000000000000000e+00 -5.6999996704501781e+00 +5.8900181636817154e-04 +0.0000000000000000e+00 +9.9999982653841524e-01
-5.7999999999999954e+00 +9.0884620189507679e+00 +0.0000000000000000e+00 -5.7999996527978688e+00 +5.9933697066336252e-04 +0.0000000000000000e+00 +9.9999982039758184e-01
-5.8999999999999950e+00 +9.0884015684935147e+00 +0.0000000000000000e+00 -5.8999996345261332e+00 +6.0967218421489259e-04 +0.0000000000000000e+00 +9.9999981414989680e-01
-5.9999999999999947e+00 +9.0883400845119802e+00 +0.0000000000000000e+00 -5.9999996156242865e+00 +6.2000745611015290e-04 +0.0000000000000000e+00 +9.9999980779535891e-01
-6.0999999999999943e+00 +9.0882775670003788e+00 +0.0000000000000000e+00 -6.0999995960816431e+00 +6.3034278542453779e-04 +0.0000000000000000e+00 +9.9999980133396693e-01
-6.1999999999999940e+00 +9.0882140159530138e+00 +0.0000000000000000e+00 -6.1999995758875182e+00 +6.4067817122144273e-04 +0.0000000000000000e+00 +9.9999979476571965e-01
-6.2999999999999936e+00 +9.0881494313642843e+00 +0.0000000000000000e+00 -6.2999995550312251e+00 +6.5101361255226237e-04 +0.0000000000000000e+00 +9.9999978809061596e-01
-6.3999999999999932e+00 +9.0880838132286854e+00 +0.0000000000000000e+00 -6.3999995335020792e+00 +6.6134910845638850e-04 +0.0000000000000000e+00 +9.9999978130865474e-01
-6.4999999999999929e+00 +9.0880171615408063e+00 +0.0000000000000000e+00 -6.4999995112893938e+00 +6.7168465796120774e-04 +0.0000000000000000e+00 +9.9999977441983501e-01
-6.5999999999999925e+00 +9.0879494762953392e+00 +0.0000000000000000e+00 -6.5999994883824842e+00 +6.8202026008209907e-04 +0.0000000000000000e+00 +9.9999976742415575e-01
-6.6999999999999922e+00 +9.0878807574870706e+00 +0.0000000000000000e+00 -6.6999994647706629e+00 +6.9235591382243143e-04 +0.0000000000000000e+00 +9.9999976032161597e-01
-6.7999999999999918e+00 +9.0878110051108880e+00 +0.0000000000000000e+00 -6.7999994404432451e+00 +7.0269161817356081e-04 +0.0000000000000000e+00 +9.9999975311221478e-01
-6.8999999999999915e+00 +9.0877402191617822e+00 +0.0000000000000000e+00 -6.8999994153895443e+00 +7.1302737211482764e-04 +0.0000000000000000e+00 +9.9999974579595141e-01
-6.9999999999999911e+00 +9.0876683996348468e+00 +0.0000000000000000e+00 -6.9999993895988739e+00 +7.2336317461355396e-04 +0.0000000000000000e+00 +9.9999973837282496e-01
-7.0999999999999908e+00 +9.0875955465252769e+00 +0.0000000000000000e+00 -7.0999993630605474e+00 +7.3369902462504016e-04 +0.0000000000000000e+00 +9.9999973084283478e-01
-7.1999999999999904e+00 +9.0875216598283739e+00 +0.0000000000000000e+00 -7.1999993357638790e+00 +7.4403492109256200e-04 +0.0000000000000000e+00 +9.9999972320598018e-01
-7.2999999999999901e+00 +9.0874467395395460e+00 +0.0000000000000000e+00 -7.2999993076981813e+00 +7.5437086294736697e-04 +0.0000000000000000e+00 +9.9999971546226052e-01
-7.3999999999999897e+00 +9.0873707856543078e+00 +0.0000000000000000e+00 -7.3999992788527686e+00 +7.6470684910867137e-04 +0.0000000000000000e+00 +9.9999970761167511e-01
-7.4999999999999893e+00 +9.0872937981682842e+00 +0.0000000000000000e+00 -7.4999992492169545e+00 +7.7504287848365625e-04 +0.0000000000000000e+00 +9.9999969965422353e-01
-7.5999999999999890e+00 +9.0872157770772084e+00 +0.0000000000000000e+00 -7.5999992187800514e+00 +7.8537894997027203e-04 +0.0000000000000000e+00 +9.9999969158990532e-01
-7.6999999999999886e+00 +9.0871367223769237e+00 +0.0000000000000000e+00 -7.6999991875313736e+00 +7.9571506248812503e-04 +0.0000000000000000e+00 +9.9999968341871992e-01
-7.7999999999999883e+00 +9.0870566340633783e+00 +0.0000000000000000e+00 -7.7999991554602337e+00 +8.0605121500936991e-04 +0.0000000000000000e+00 +9.9999967514066701e-01
-7.8999999999999879e+00 +9.0869755121326214e+00 +0.0000000000000000e+00 -7.8999991225559452e+00 +8.1638740656152350e-04 +0.0000000000000000e+00 +9.9999966675574603e-01
-7.9999999999999876e+00 +9.0868933565807968e+00 +0.0000000000000000e+00 -7.9999990888078205e+00 +8.2672363622747101e-04 +0.0000000000000000e+00 +9.9999965826395665e-01
-8.0999999999999872e+00 +9.0868101674041348e+00 +0.0000000000000000e+00 -8.0999990542051741e+00 +8.3705990314547228e-04 +0.0000000000000000e+00 +9.9999964966529831e-01
-8.1999999999999869e+00 +9.0867259445989532e+00 +0.0000000000000000e+00 -8.1999990187373175e+00 +8.4739620650916810e-04 +0.0000000000000000e+00 +9.9999964095977056e-01
-8.2999999999999865e+00 +9.0866406881616442e+00 +0.0000000000000000e+00 -8.2999989823935660e+00 +8.5773254556758681e-04 +0.0000000000000000e+00 +9.9999963214737286e-01
-8.3999999999999861e+00 +9.0865543980886727e+00 +0.0000000000000000e+00 -8.3999989451632313e+00 +8.6806891962515147e-04 +0.0000000000000000e+00 +9.9999962322810476e-01
-8.4999999999999858e+00 +9.0864670743765732e+00 +0.0000000000000000e+00 -8.4999989070356250e+00 +8.7840532804168623e-04 +0.0000000000000000e+00 +9.9999961420196581e-01
-8.5999999999999854e+00 +9.0863787170219386e+00 +0.0000000000000000e+00 -8.5999988680000623e+00 +8.8874177023242414e-04 +0.0000000000000000e+00 +9.9999960506895536e-01
-8.6999999999999851e+00 +9.0862893260214186e+00 +0.0000000000000000e+00 -8.6999988280458549e+00 +8.9907824566801413e-04 +0.0000000000000000e+00 +9.9999959582907283e-01
-8.7999999999999847e+00 +9.0861989013717128e+00 +0.0000000000000000e+00 -8.7999987871623144e+00 +9.0941475387452855e-04 +0.0000000000000000e+00 +9.9999958648231768e-01
-8.8999999999999844e+00 +9.0861074430695652e+00 +0.0000000000000000e+00 -8.8999987453387561e+00 +9.1975129443347110e-04 +0.0000000000000000e+00 +9.9999957702868925e-01
-8.9999999999999840e+00 +9.0860149511117605e+00 +0.0000000000000000e+00 -8.9999987025644899e+00 +9.3008786698178456e-04 +0.0000000000000000e+00 +9.9999956746818686e-01
-9.0999999999999837e+00 +9.0859214254951137e+00 +0.0000000000000000e+00 -9.0999986588288309e+00 +9.4042447121185895e-04 +0.0000000000000000e+00 +9.9999955780080974e-01
-9.1999999999999833e+00 +9.0858268662164701e+00 +0.0000000000000000e+00 -9.1999986141210890e+00 +9.5076110687153978e-04 +0.0000000000000000e+00 +9.9999954802655722e-01
-9.2999999999999829e+00 +9.0857312732726978e+00 +0.0000000000000000e+00 -9.2999985684305795e+00 +9.6109777376413659e-04 +0.0000000000000000e+00 +9.9999953814542852e-01
-9.3999999999999826e+00 +9.0856346466606812e+00 +0.0000000000000000e+00 -9.3999985217466122e+00 +9.7143447174843152e-04 +0.0000000000000000e+00 +9.9999952815742277e-01
-9.4999999999999822e+00 +9.0855369863773152e+00 +0.0000000000000000e+00 -9.4999984740585006e+00 +9.8177120073868803e-04 +0.0000000000000000e+00 +9.9999951806253906e-01
-9.5999999999999819e+00 +9.0854382924195018e+00 +0.0000000000000000e+00 -9.5999984253555564e+00 +9.9210796070105115e-04 +0.0000000000000000e+00 +9.9999950786077652e-01
-9.6999999999999815e+00 +9.0853385647841431e+00 +0.0000000000000000e+00 -9.6999983756270929e+00 +1.0024447516138511e-03 +0.0000000000000000e+00 +9.9999949755213424e-01
-9.7999999999999812e+00 +9.0852378034681482e+00 +0.0000000000000000e+00 -9.7999983248624201e+00 +1.0127815734278926e-03 +0.0000000000000000e+00 +9.9999948713661124e-01
-9.8999999999999808e+00 +9.0851360084684298e+00 +0.0000000000000000e+00 -9.8999982730508513e+00 +1.0231184260628284e-03 +0.0000000000000000e+00 +9.9999947661420663e-01
-9.9999999999999805e+00 +9.0850331797819113e+00 +0.0000000000000000e+00 -9.9999982201816984e+00 +1.0334553094071424e-03 +0.0000000000000000e+00 +9.9999946598491962e-01
-1.0099999999999980e+01 +9.0849293174055283e+00 +0.0000000000000000e+00 -1.0099998166244273e+01 +1.0437922233181318e-03 +0.0000000000000000e+00 +9.9999945524874934e-01
-1.0199999999999980e+01 +9.0848244213362346e+00 +0.0000000000000000e+00 -1.0199998111227886e+01 +1.0541291676218882e-03 +0.0000000000000000e+00 +9.9999944440569510e-01
-1.0299999999999979e+01 +9.0847184915709978e+00 +0.0000000000000000e+00 -1.0299998055121849e+01 +1.0644661421132795e-03 +0.0000000000000000e+00 +9.9999943345575615e-01
-1.0399999999999979e+01 +9.0846115281068123e+00 +0.0000000000000000e+00 -1.0399997997915474e+01 +1.0748031465559306e-03 +0.0000000000000000e+00 +9.9999942239893180e-01
-1.0499999999999979e+01 +9.0845035309406974e+00 +0.0000000000000000e+00 -1.0499997939598073e+01 +1.0851401806822036e-03 +0.0000000000000000e+00 +9.9999941123522140e-01
-1.0599999999999978e+01 +9.0843945000696973e+00 +0.0000000000000000e+00 -1.0599997880158956e+01 +1.0954772441931773e-03 +0.0000000000000000e+00 +9.9999939996462428e-01
-1.0699999999999978e+01 +9.0842844354908898e+00 +0.0000000000000000e+00 -1.0699997819587434e+01 +1.1058143367586263e-03 +0.0000000000000000e+00 +9.9999938858713999e-01
-1.0799999999999978e+01 +9.0841733372013884e+00 +0.0000000000000000e+00 -1.0799997757872820e+01 +1.1161514580170008e-03 +0.0000000000000000e+00 +9.9999937710276798e-01
-1.0899999999999977e+01 +9.0840612051983420e+00 +0.0000000000000000e+00 -1.0899997695004425e+01 +1.1264886075754040e-03 +0.0000000000000000e+00 +9.9999936551150781e-01
-1.0999999999999977e+01 +9.0839480394789440e+00 +0.0000000000000000e+00 -1.0999997630971558e+01 +1.1368257850095703e-03 +0.0000000000000000e+00 +9.9999935381335914e-01
-1.1099999999999977e+01 +9.0838338400404268e+00 +0.0000000000000000e+00 -1.1099997565763532e+01 +1.1471629898638423e-03 +0.0000000000000000e+00 +9.9999934200832152e-01
-1.1199999999999976e+01 +9.0837186068800726e+00 +0.0000000000000000e+00 -1.1199997499369658e+01 +1.1575002216511483e-03 +0.0000000000000000e+00 +9.9999933009639475e-01
-1.1299999999999976e+01 +9.0836023399952150e+00 +0.0000000000000000e+00 -1.1299997431779248e+01 +1.1678374798529780e-03 +0.0000000000000000e+00 +9.9999931807757847e-01
-1.1399999999999975e+01 +9.0834850393832394e+00 +0.0000000000000000e+00 -1.1399997362981612e+01 +1.1781747639193589e-03 +0.0000000000000000e+00 +9.9999930595187259e-01
-1.1499999999999975e+01 +9.0833667050415876e+00 +0.0000000000000000e+00 -1.1499997292966061e+01 +1.1885120732688314e-03 +0.0000000000000000e+00 +9.9999929371927698e-01
-1.1599999999999975e+01 +9.0832473369677622e+00 +0.0000000000000000e+00 -1.1599997221721905e+01 +1.1988494072877848e-03 +0.0000000000000000e+00 +9.9999928137979166e-01
-1.1699999999999974e+01 +9.0831269351593296e+00 +0.0000000000000000e+00 -1.1699997149238456e+01 +1.2091867653234037e-03 +0.0000000000000000e+00 +9.9999926893341662e-01
