# field on trajectory
# s[mm] rx[mm] ry[mm] rz[mm] bx[T] by[T] bz[T]
0.0000000000000000e+00 +9.1013000000000002e+00 +0.0000000000000000e+00 +0.0000000000000000e+00 +1.1148236161767300e-02 -1.0329089681387646e+00 -5.8854314605283682e-02
1.0000000000000001e-01 +9.1012994838571473e+00 +0.0000000000000000e+00 +9.9999999998223968e-02 +1.1148138711512970e-02 -1.0329105437114259e+00 -5.8854431288120679e-02
2.0000000000000001e-01 +9.1012979354275210e+00 +0.0000000000000000e+00 +1.9999999998579179e-01 +1.1148044267909623e-02 -1.0329122120428296e+00 -5.8854561999003990e-02
3.0000000000000004e-01 +9.1012953547094551e+00 +0.0000000000000000e+00 +2.9999999995204729e-01 +1.1147953671886018e-02 -1.0329139696948679e+00 -5.8854707356676049e-02
4.0000000000000002e-01 +9.1012917417011945e+00 +0.0000000000000000e+00 +3.9999999988633417e-01 +1.1147867764382856e-02 -1.0329158132285228e+00 -5.8854867979815789e-02
5.0000000000000000e-01 +9.1012870964008972e+00 +0.0000000000000000e+00 +4.9999999977799608e-01 +1.1147787386352803e-02 -1.0329177392038045e+00 -5.8855044487026192e-02
5.9999999999999998e-01 +9.1012814188066375e+00 +0.0000000000000000e+00 +5.9999999961637673e-01 +1.1147713154305808e-02 -1.0329197441430513e+00 -5.8855237370869243e-02
6.9999999999999996e-01 +9.1012747089164154e+00 +0.0000000000000000e+00 +6.9999999939081958e-01 +1.1147644786942931e-02 -1.0329218244211358e+00 -5.8855446620011145e-02
7.9999999999999993e-01 +9.1012669667281507e+00 +0.0000000000000000e+00 +7.9999999909066821e-01 +1.1147581778515391e-02 -1.0329239763756930e+00 -5.8855672097102144e-02
8.9999999999999991e-01 +9.1012581922396940e+00 +0.0000000000000000e+00 +8.9999999870526592e-01 +1.1147523623276291e-02 -1.0329261963439182e+00 -5.8855913664737046e-02
9.9999999999999989e-01 +9.1012483854488284e+00 +0.0000000000000000e+00 +9.9999999822395613e-01 +1.1147469815478104e-02 -1.0329284806627050e+00 -5.8856171185460493e-02
1.0999999999999999e+00 +9.1012375463532731e+00 +0.0000000000000000e+00 +1.0999999976360821e+00 +1.1147419849370146e-02 -1.0329308256687761e+00 -5.8856444521772022e-02
1.2000000000000000e+00 +9.1012256749506850e+00 +0.0000000000000000e+00 +1.1999999969309871e+00 +1.1147373219196063e-02 -1.0329332276988163e+00 -5.8856733536131217e-02
1.3000000000000000e+00 +9.1012127712386643e+00 +0.0000000000000000e+00 +1.2999999960980142e+00 +1.1147329419191320e-02 -1.0329356830896106e+00 -5.8857038090962904e-02
1.4000000000000001e+00 +9.1011988352147615e+00 +0.0000000000000000e+00 +1.3999999951265063e+00 +1.1147287943580664e-02 -1.0329381881781718e+00 -5.8857358048662267e-02
1.5000000000000002e+00 +9.1011838668764717e+00 +0.0000000000000000e+00 +1.4999999940058064e+00 +1.1147248286575638e-02 -1.0329407393018815e+00 -5.8857693271600016e-02
1.6000000000000003e+00 +9.1011678662212496e+00 +0.0000000000000000e+00 +1.5999999927252575e+00 +1.1147209942372033e-02 -1.0329433327986173e+00 -5.8858043622127515e-02
1.7000000000000004e+00 +9.1011508332465034e+00 +0.0000000000000000e+00 +1.6999999912742023e+00 +1.1147172405147393e-02 -1.0329459650068915e+00 -5.8858408962582001e-02
1.8000000000000005e+00 +9.1011327679496059e+00 +0.0000000000000000e+00 +1.7999999896419836e+00 +1.1147135169058475e-02 -1.0329486322659811e+00 -5.8858789155291545e-02
1.9000000000000006e+00 +9.1011136703278925e+00 +0.0000000000000000e+00 +1.8999999878179437e+00 +1.1147097728238752e-02 -1.0329513309160652e+00 -5.8859184062580519e-02
2.0000000000000004e+00 +9.1010935403786704e+00 +0.0000000000000000e+00 +1.9999999857914252e+00 +1.1147059576795884e-02 -1.0329540572983564e+00 -5.8859593546774405e-02
2.1000000000000005e+00 +9.1010723780992162e+00 +0.0000000000000000e+00 +2.0999999835517706e+00 +1.1147020208809212e-02 -1.0329568077552358e+00 -5.8860017470205216e-02
2.2000000000000006e+00 +9.1010501834867839e+00 +0.0000000000000000e+00 +2.1999999810883226e+00 +1.1146979118327219e-02 -1.0329595786303862e+00 -5.8860455695216439e-02
2.3000000000000007e+00 +9.1010269565386057e+00 +0.0000000000000000e+00 +2.2999999783904230e+00 +1.1146935799365029e-02 -1.0329623662689256e+00 -5.8860908084168329e-02
2.4000000000000008e+00 +9.1010026972519000e+00 +0.0000000000000000e+00 +2.3999999754474142e+00 +1.1146889745901896e-02 -1.0329651670175426e+00 -5.8861374499443030e-02
2.5000000000000009e+00 +9.1009774056238708e+00 +0.0000000000000000e+00 +2.4999999722486379e+00 +1.1146840451878663e-02 -1.0329679772246299e+00 -5.8861854803449673e-02
2.6000000000000010e+00 +9.1009510816517114e+00 +0.0000000000000000e+00 +2.5999999687834361e+00 +1.1146787540351878e-02 -1.0329707938692425e+00 -5.8862348826400603e-02
2.7000000000000011e+00 +9.1009237253326098e+00 +0.0000000000000000e+00 +2.6999999650411510e+00 +1.1146731150977739e-02 -1.0329736164472578e+00 -5.8862856269630830e-02
2.8000000000000012e+00 +9.1008953366637488e+00 +0.0000000000000000e+00 +2.7999999610111241e+00 +1.1146671552569916e-02 -1.0329764450841830e+00 -5.8863376802292484e-02
2.9000000000000012e+00 +9.1008659156423040e+00 +0.0000000000000000e+00 +2.8999999566826973e+00 +1.1146609013948641e-02 -1.0329792799062250e+00 -5.8863910093589843e-02
3.0000000000000013e+00 +9.1008354622654455e+00 +0.0000000000000000e+00 +2.9999999520452123e+00 +1.1146543803942763e-02 -1.0329821210402979e+00 -5.8864455812784815e-02
3.1000000000000014e+00 +9.1008039765303366e+00 +0.0000000000000000e+00 +3.0999999470880106e+00 +1.1146476191391815e-02 -1.0329849686140264e+00 -5.8865013629202323e-02
3.2000000000000015e+00 +9.1007714584341350e+00 +0.0000000000000000e+00 +3.1999999418004337e+00 +1.1146406445148091e-02 -1.0329878227557547e+00 -5.8865583212236047e-02
3.3000000000000016e+00 +9.1007379079739916e+00 +0.0000000000000000e+00 +3.2999999361718224e+00 +1.1146334834078706e-02 -1.0329906835945482e+00 -5.8866164231353713e-02
3.4000000000000017e+00 +9.1007033251470517e+00 +0.0000000000000000e+00 +3.3999999301915187e+00 +1.1146261627067673e-02 -1.0329935512602018e+00 -5.8866756356102862e-02
3.5000000000000018e+00 +9.1006677099504536e+00 +0.0000000000000000e+00 +3.4999999238488630e+00 +1.1146187093017965e-02 -1.0329964258832445e+00 -5.8867359256116206e-02
3.6000000000000019e+00 +9.1006310623813267e+00 +0.0000000000000000e+00 +3.5999999171331973e+00 +1.1146111500853586e-02 -1.0329993075949453e+00 -5.8867972601117161e-02
3.7000000000000020e+00 +9.1005933824367951e+00 +0.0000000000000000e+00 +3.6999999100338621e+00 +1.1146035119521652e-02 -1.0330021965273191e+00 -5.8868596060925503e-02
3.8000000000000020e+00 +9.1005546701139757e+00 +0.0000000000000000e+00 +3.7999999025401978e+00 +1.1145958217994431e-02 -1.0330050928131305e+00 -5.8869229305462734e-02
3.9000000000000021e+00 +9.1005149254099784e+00 +0.0000000000000000e+00 +3.8999998946415459e+00 +1.1145881065271463e-02 -1.0330079965859016e+00 -5.8869872004757746e-02
4.0000000000000018e+00 +9.1004741483219060e+00 +0.0000000000000000e+00 +3.9999998863272470e+00 +1.1145803930381580e-02 -1.0330109079799163e+00 -5.8870523828952276e-02
4.1000000000000014e+00 +9.1004323388468524e+00 +0.0000000000000000e+00 +4.0999998775866411e+00 +1.1145727082385003e-02 -1.0330138271302249e+00 -5.8871184448306406e-02
4.2000000000000011e+00 +9.1003894969819044e+00 +0.0000000000000000e+00 +4.1999998684090691e+00 +1.1145650790375406e-02 -1.0330167541726525e+00 -5.8871853533204198e-02
4.3000000000000007e+00 +9.1003456227241415e+00 +0.0000000000000000e+00 +4.2999998587838721e+00 +1.1145575323481994e-02 -1.0330196892438006e+00 -5.8872530754159116e-02
4.4000000000000004e+00 +9.1003007160706346e+00 +0.0000000000000000e+00 +4.3999998487003902e+00 +1.1145500950871559e-02 -1.0330226324810556e+00 -5.8873215781819650e-02
4.5000000000000000e+00 +9.1002547770184492e+00 +0.0000000000000000e+00 +4.4999998381479633e+00 +1.1145427941750573e-02 -1.0330255840225930e+00 -5.8873908286974766e-02
4.5999999999999996e+00 +9.1002078055646383e+00 +0.0000000000000000e+00 +4.5999998271159308e+00 +1.1145356520486371e-02 -1.0330285438404616e+00 -5.8874607998225588e-02
4.6999999999999993e+00 +9.1001598017062495e+00 +0.0000000000000000e+00 +4.6999998155936336e+00 +1.1145286731958293e-02 -1.0330315112392816e+00 -5.8875314874915478e-02
4.7999999999999989e+00 +9.1001107654403217e+00 +0.0000000000000000e+00 +4.7999998035704117e+00 +1.1145218576189204e-02 -1.0330344853560314e+00 -5.8876028934000575e-02
4.8999999999999986e+00 +9.1000606967638884e+00 +0.0000000000000000e+00 +4.8999997910356052e+00 +1.1145152053225854e-02 -1.0330374653267582e+00 -5.8876750192358558e-02
4.9999999999999982e+00 +9.1000095956739777e+00 +0.0000000000000000e+00 +4.9999997779785534e+00 +1.1145087163139793e-02 -1.0330404502864976e+00 -5.8877478666782244e-02
5.0999999999999979e+00 +9.0999574621676107e+00 +0.0000000000000000e+00 +5.0999997643885964e+00 +1.1145023906028149e-02 -1.0330434393691894e+00 -5.8878214373972837e-02
5.1999999999999975e+00 +9.0999042962418066e+00 +0.0000000000000000e+00 +5.1999997502550732e+00 +1.1144962282014564e-02 -1.0330464317075996e+00 -5.8878957330533652e-02
5.2999999999999972e+00 +9.0998500978935812e+00 +0.0000000000000000e+00 +5.2999997355673232e+00 +1.1144902291250010e-02 -1.0330494264332364e+00 -5.8879707552963380e-02
5.3999999999999968e+00 +9.0997948671199467e+00 +0.0000000000000000e+00 +5.3999997203146863e+00 +1.1144843933913674e-02 -1.0330524226762683e+00 -5.8880465057649704e-02
5.4999999999999964e+00 +9.0997386039179133e+00 +0.0000000000000000e+00 +5.4999997044865010e+00 +1.1144787210213808e-02 -1.0330554195654462e+00 -5.8881229860862735e-02
5.5999999999999961e+00 +9.0996813082844934e+00 +0.0000000000000000e+00 +5.5999996880721072e+00 +1.1144732120388589e-02 -1.0330584162280183e+00 -5.8882001978748495e-02
5.6999999999999957e+00 +9.0996229802166990e+00 +0.0000000000000000e+00 +5.6999996710608443e+00 +1.1144678664706972e-02 -1.0330614117896491e+00 -5.8882781427322374e-02
5.7999999999999954e+00 +9.0995636197115406e+00 +0.0000000000000000e+00 +5.7999996534420504e+00 +1.1144626843469571e-02 -1.0330644053743403e+00 -5.8883568222462657e-02
5.8999999999999950e+00 +9.0995032267660338e+00 +0.0000000000000000e+00 +5.8999996352050648e+00 +1.1144576657009490e-02 -1.0330673961043475e+00 -5.8884362379903937e-02
5.9999999999999947e+00 +9.0994418013771980e+00 +0.0000000000000000e+00 +5.9999996163392266e+00 +1.1144528105693195e-02 -1.0330703831000991e+00 -5.8885163915230715e-02
6.0999999999999943e+00 +9.0993793435420525e+00 +0.0000000000000000e+00 +6.0999995968338743e+00 +1.1144481189921352e-02 -1.0330733654801152e+00 -5.8885972843870669e-02
6.1999999999999940e+00 +9.0993158532576235e+00 +0.0000000000000000e+00 +6.1999995766783469e+00 +1.1144435910129712e-02 -1.0330763423609259e+00 -5.8886789181088389e-02
6.2999999999999936e+00 +9.0992513305209428e+00 +0.0000000000000000e+00 +6.2999995558619828e+00 +1.1144392266789951e-02 -1.0330793128569904e+00 -5.8887612941978737e-02
6.3999999999999932e+00 +9.0991857753290493e+00 +0.0000000000000000e+00 +6.3999995343741203e+00 +1.1144350260410503e-02 -1.0330822760806151e+00 -5.8888444141460217e-02
6.4999999999999929e+00 +9.0991191876789888e+00 +0.0000000000000000e+00 +6.4999995122040977e+00 +1.1144309891537453e-02 -1.0330852311418732e+00 -5.8889282794268680e-02
6.5999999999999925e+00 +9.0990515675678143e+00 +0.0000000000000000e+00 +6.5999994893412541e+00 +1.1144271119708192e-02 -1.0330881762476096e+00 -5.8890128955761616e-02
6.6999999999999922e+00 +9.0989829149925914e+00 +0.0000000000000000e+00 +6.6999994657749271e+00 +1.1144233740267335e-02 -1.0330911059992613e+00 -5.8890982844438243e-02
6.7999999999999918e+00 +9.0989132299503996e+00 +0.0000000000000000e+00 +6.7999994414944540e+00 +1.1144197507436353e-02 -1.0330940140967866e+00 -5.8891844719663473e-02
6.8999999999999915e+00 +9.0988425124383401e+00 +0.0000000000000000e+00 +6.8999994164891740e+00 +1.1144162175348129e-02 -1.0330968942397700e+00 -5.8892714840881863e-02
6.9999999999999911e+00 +9.0987707624535421e+00 +0.0000000000000000e+00 +6.9999993907484246e+00 +1.1144127498043213e-02 -1.0330997401274176e+00 -5.8893593467621373e-02
7.0999999999999908e+00 +9.0986979799931706e+00 +0.0000000000000000e+00 +7.0999993642615440e+00 +1.1144093229466072e-02 -1.0331025454585563e+00 -5.8894480859497118e-02
7.1999999999999904e+00 +9.0986241650544297e+00 +0.0000000000000000e+00 +7.1999993370178705e+00 +1.1144059123461322e-02 -1.0331053039316276e+00 -5.8895377276215098e-02
7.2999999999999901e+00 +9.0985493176345713e+00 +0.0000000000000000e+00 +7.2999993090067408e+00 +1.1144024933769973e-02 -1.0331080092446865e+00 -5.8896282977575945e-02
7.3999999999999897e+00 +9.0984734377308989e+00 +0.0000000000000000e+00 +7.3999992802174939e+00 +1.1143990414025693e-02 -1.0331106550953961e+00 -5.8897198223478581e-02
7.4999999999999893e+00 +9.0983965253407781e+00 +0.0000000000000000e+00 +7.4999992506394664e+00 +1.1143955317751050e-02 -1.0331132351810273e+00 -5.8898123273924130e-02
7.5999999999999890e+00 +9.0983185804616387e+00 +0.0000000000000000e+00 +7.5999992202619966e+00 +1.1143919398353746e-02 -1.0331157431984508e+00 -5.8899058389019508e-02
7.6999999999999886e+00 +9.0982396030909829e+00 +0.0000000000000000e+00 +7.6999991890744219e+00 +1.1143882409122887e-02 -1.0331181728441379e+00 -5.8900003828981119e-02
7.7999999999999883e+00 +9.0981595932263932e+00 +0.0000000000000000e+00 +7.7999991570660807e+00 +1.1143844103225232e-02 -1.0331205178141554e+00 -5.8900959854138735e-02
7.8999999999999879e+00 +9.0980785508655337e+00 +0.0000000000000000e+00 +7.8999991242263095e+00 +1.1143804233701446e-02 -1.0331227718041625e+00 -5.8901926724939067e-02
7.9999999999999876e+00 +9.0979964760061609e+00 +0.0000000000000000e+00 +7.9999990905444465e+00 +1.1143762553462345e-02 -1.0331249285094077e+00 -5.8902904701949553e-02
8.0999999999999872e+00 +9.0979133686461289e+00 +0.0000000000000000e+00 +8.0999990560098301e+00 +1.1143718815285171e-02 -1.0331269816247250e+00 -5.8903894045862056e-02
8.1999999999999869e+00 +9.0978292287833948e+00 +0.0000000000000000e+00 +8.1999990206117968e+00 +1.1143672771809837e-02 -1.0331289248445308e+00 -5.8904895017496607e-02
8.2999999999999865e+00 +9.0977440564160261e+00 +0.0000000000000000e+00 +8.2999989843396857e+00 +1.1143624175535195e-02 -1.0331307518628201e+00 -5.8905907877805003e-02
8.3999999999999861e+00 +9.0976578515422073e+00 +0.0000000000000000e+00 +8.3999989471828336e+00 +1.1143572778815287e-02 -1.0331324563731650e+00 -5.8906932887874665e-02
8.4999999999999858e+00 +9.0975706141602437e+00 +0.0000000000000000e+00 +8.4999989091305785e+00 +1.1143518333855617e-02 -1.0331340320687084e+00 -5.8907970308932175e-02
8.5999999999999854e+00 +9.0974823442685704e+00 +0.0000000000000000e+00 +8.5999988701722572e+00 +1.1143460699430636e-02 -1.0331354754631876e+00 -5.8909020254858467e-02
8.6999999999999851e+00 +9.0973930418657538e+00 +0.0000000000000000e+00 +8.6999988302972096e+00 +1.1143400161147569e-02 -1.0331367943549941e+00 -5.8910082249566662e-02
8.7999999999999847e+00 +9.0973027069504848e+00 +0.0000000000000000e+00 +8.7999987894947722e+00 +1.1143337111433048e-02 -1.0331379993650167e+00 -5.8911155669230109e-02
8.8999999999999844e+00 +9.0972113395215661e+00 +0.0000000000000000e+00 +8.8999987477542835e+00 +1.1143271942831018e-02 -1.0331391011156401e+00 -5.8912239889737567e-02
8.9999999999999840e+00 +9.0971189395779071e+00 +0.0000000000000000e+00 +8.9999987050650816e+00 +1.1143205048006770e-02 -1.0331401102307889e+00 -5.8913334286684910e-02
9.0999999999999837e+00 +9.0970255071185075e+00 +0.0000000000000000e+00 +9.0999986614165049e+00 +1.1143136819750968e-02 -1.0331410373359819e+00 -5.8914438235366733e-02
9.1999999999999833e+00 +9.0969310421424510e+00 +0.0000000000000000e+00 +9.1999986167978918e+00 +1.1143067650983673e-02 -1.0331418930583804e+00 -5.8915551110767850e-02
9.2999999999999829e+00 +9.0968355446488918e+00 +0.0000000000000000e+00 +9.2999985711985804e+00 +1.1142997934758366e-02 -1.0331426880268384e+00 -5.8916672287554997e-02
9.3999999999999826e+00 +9.0967390146370430e+00 +0.0000000000000000e+00 +9.3999985246079092e+00 +1.1142928064265981e-02 -1.0331434328719522e+00 -5.8917801140068386e-02
9.4999999999999822e+00 +9.0966414521061711e+00 +0.0000000000000000e+00 +9.4999984770152164e+00 +1.1142858432838895e-02 -1.0331441382261108e+00 -5.8918937042313269e-02
9.5999999999999819e+00 +9.0965428570555797e+00 +0.0000000000000000e+00 +9.5999984284098403e+00 +1.1142789433954992e-02 -1.0331448147235456e+00 -5.8920079367951669e-02
9.6999999999999815e+00 +9.0964432294846027e+00 +0.0000000000000000e+00 +9.6999983787811193e+00 +1.1142721461241626e-02 -1.0331454730003791e+00 -5.8921227490293791e-02
9.7999999999999812e+00 +9.0963425693925917e+00 +0.0000000000000000e+00 +9.7999983281183916e+00 +1.1142654908479694e-02 -1.0331461236946777e+00 -5.8922380782289861e-02
9.8999999999999808e+00 +9.0962408767789054e+00 +0.0000000000000000e+00 +9.8999982764109955e+00 +1.1142590169607603e-02 -1.0331467774464975e+00 -5.8923538616521533e-02
9.9999999999999805e+00 +9.0961381516429025e+00 +0.0000000000000000e+00 +9.9999982236482694e+00 +1.1142527638725318e-02 -1.0331474448979372e+00 -5.8924700365193636e-02
1.0099999999999980e+01 +9.0960343939839241e+00 +0.0000000000000000e+00 +1.0099998169819552e+01 +1.1142467710098346e-02 -1.0331481366931861e+00 -5.8925865400125711e-02
1.0199999999999980e+01 +9.0959296038012898e+00 +0.0000000000000000e+00 +1.0199998114914180e+01 +1.1142410778161757e-02 -1.0331488634785742e+00 -5.8927033092743698e-02
1.0299999999999979e+01 +9.0958237810942837e+00 +0.0000000000000000e+00 +1.0299998058921494e+01 +1.1142357237524200e-02 -1.0331496359026218e+00 -5.8928202814071504e-02
1.0399999999999979e+01 +9.0957169258621438e+00 +0.0000000000000000e+00 +1.0399998001830831e+01 +1.1142307482971903e-02 -1.0331504646160907e+00 -5.8929373934722674e-02
1.0499999999999979e+01 +9.0956090381040529e+00 +0.0000000000000000e+00 +1.0499997943631527e+01 +1.1142261909472659e-02 -1.0331513602720304e+00 -5.8930545824891975e-02
1.0599999999999978e+01 +9.0955001178191264e+00 +0.0000000000000000e+00 +1.0599997884312923e+01 +1.1142220763595766e-02 -1.0331523306974990e+00 -5.8931717845128753e-02
1.0699999999999978e+01 +9.0953901650064068e+00 +0.0000000000000000e+00 +1.0699997823864356e+01 +1.1142183697630823e-02 -1.0331533724063664e+00 -5.8932889318916160e-02
1.0799999999999978e+01 +9.0952791796648658e+00 +0.0000000000000000e+00 +1.0799997762275163e+01 +1.1142150215191127e-02 -1.0331544790819160e+00 -5.8934059560754613e-02
1.0899999999999977e+01 +9.0951671617934089e+00 +0.0000000000000000e+00 +1.0899997699534682e+01 +1.1142119819789719e-02 -1.0331556444050858e+00 -5.8935227885450449e-02
1.0999999999999977e+01 +9.0950541113908834e+00 +0.0000000000000000e+00 +1.0999997635632250e+01 +1.1142092014836626e-02 -1.0331568620544069e+00 -5.8936393608124624e-02
1.1099999999999977e+01 +9.0949400284560848e+00 +0.0000000000000000e+00 +1.1099997570557203e+01 +1.1142066303636178e-02 -1.0331581257059428e+00 -5.8937556044221726e-02
1.1199999999999976e+01 +9.0948249129877645e+00 +0.0000000000000000e+00 +1.1199997504298882e+01 +1.1142042189384280e-02 -1.0331594290332324e+00 -5.8938714509518736e-02
1.1299999999999976e+01 +9.0947087649846310e+00 +0.0000000000000000e+00 +1.1299997436846621e+01 +1.1142019175165718e-02 -1.0331607657072279e+00 -5.8939868320133842e-02
1.1399999999999975e+01 +9.0945915844453626e+00 +0.0000000000000000e+00 +1.1399997368189759e+01 +1.1141996763951436e-02 -1.0331621293962381e+00 -5.8941016792535370e-02
1.1499999999999975e+01 +9.0944733713686094e+00 +0.0000000000000000e+00 +1.1499997298317632e+01 +1.1141974458595829e-02 -1.0331635137658666e+00 -5.8942159243550590e-02
1.1599999999999975e+01 +9.0943541257530001e+00 +0.0000000000000000e+00 +1.1599997227219578e+01 +1.1141951761834032e-02 -1.0331649124789528e+00 -5.8943294990374526e-02
1.1699999999999974e+01 +9.0942338475971507e+00 +0.0000000000000000e+00 +1.1699997154884935e+01 +1.1141928176279242e-02 -1.0331663191955154e+00 -5.8944423350578944e-02
1.1799999999999974e+01 +9.0941125368996687e+00 +0.0000000000000000e+00 +1.1799997081303037e+01 +1.1141903204419969e-02 -1.0331677275726883e+00 -5.8945543642121005e-02
