# multipoles
# s[mm] polynom_b[n=0][T/m^n] polynom_b[n=1][T/m^n] polynom_b[n=2][T/m^n] polynom_b[n=3][T/m^n] polynom_b[n=4][T/m^n] polynom_b[n=5][T/m^n] polynom_b[n=6][T/m^n] 
+0.0000000000000000e+00 -5.1538826171610555e-02 +1.1545448747830157e-01 +9.6990459404077778e-01 +1.8722354371909642e+00 +5.6742802997557396e+02 +2.5448029460485435e+04 -7.0453727213881223e+05 
+1.0000000000000001e-01 -5.1538568552389599e-02 +1.1545343639349860e-01 +9.6908135494680170e-01 +1.8535785423002951e+00 +5.8683452935224170e+02 +2.5542988505096957e+04 -8.0644352721313422e+05 
+2.0000000000000001e-01 -5.1538308603121155e-02 +1.1545204843191374e-01 +9.6827711648800441e-01 +1.8445315172535763e+00 +6.0591458538210566e+02 +2.5576936533880351e+04 -9.0745423628212698e+05 
+3.0000000000000004e-01 -5.1538046429261429e-02 +1.1545035137500312e-01 +9.6749489460476323e-01 +1.8443486290696949e+00 +6.2457973146936092e+02 +2.5554503830694179e+04 -1.0070237057663178e+06 
+4.0000000000000002e-01 -5.1537782136258231e-02 +1.1544837300366158e-01 +9.6673770409211790e-01 +1.8522841686416627e+00 +6.4274152408651048e+02 +2.5480320516192118e+04 -1.1046063556765276e+06 
+5.0000000000000000e-01 -5.1537515829560142e-02 +1.1544614109802089e-01 +9.6600855982923117e-01 +1.8675924562400237e+00 +6.6031151869956193e+02 +2.5359016514918159e+04 -1.1996566032049346e+06 
+5.9999999999999998e-01 -5.1537247614610503e-02 +1.1544368343789346e-01 +9.6531047594755937e-01 +1.8895278288261657e+00 +6.7720128614990881e+02 +2.5195221625592822e+04 -1.2916289423951400e+06 
+6.9999999999999996e-01 -5.1536977596851934e-02 +1.1544102780270109e-01 +9.6464646646498220e-01 +1.9173446429084995e+00 +6.9332240005197605e+02 +2.4993565500294000e+04 -1.3799778827434350e+06 
+7.9999999999999993e-01 -5.1536705881724765e-02 +1.1543820197164799e-01 +9.6401954503846221e-01 +1.9502972685395794e+00 +7.0858644180812792e+02 +2.4758677679830420e+04 -1.4641579740222078e+06 
+8.9999999999999991e-01 -5.1536432574667147e-02 +1.1543523372363987e-01 +9.6343272500013344e-01 +1.9876400922299511e+00 +7.2290499978726780e+02 +2.4495187572423521e+04 -1.5436238021878379e+06 
+9.9999999999999989e-01 -5.1536157781118641e-02 +1.1543215083757762e-01 +9.6288901981819019e-01 +2.0286275092944415e+00 +7.3618966034137668e+02 +2.4207724493588074e+04 -1.6178299459678403e+06 
+1.0999999999999999e+00 -5.1535881606517071e-02 +1.1542898109239391e-01 +9.6239144269025301e-01 +2.0725139215375994e+00 +7.4835201563161081e+02 +2.3900917680924664e+04 -1.6862310146461769e+06 
+1.2000000000000000e+00 -5.1535604156301533e-02 +1.1542575226695592e-01 +9.6194300690778423e-01 +2.1185537411813784e+00 +7.5930365675716939e+02 +2.3579396265282750e+04 -1.7482816154941085e+06 
+1.3000000000000000e+00 -5.1535325535910649e-02 +1.1542249214048919e-01 +9.6154672566684651e-01 +2.1660013783057854e+00 +7.6895617706196174e+02 +2.3247789342790093e+04 -1.8034363688624874e+06 
+1.4000000000000001e+00 -5.1535045850787144e-02 +1.1541922849231190e-01 +9.6120561263163629e-01 +2.2141112486687109e+00 +7.7722116149000942e+02 +2.2910725926159241e+04 -1.8511498578867151e+06 
+1.5000000000000002e+00 -5.1534765206372853e-02 +1.1541598910226432e-01 +9.6092268128890679e-01 +2.2621377612737850e+00 +7.8401019898182403e+02 +2.2572835014968292e+04 -1.8908766878296533e+06 
+1.6000000000000003e+00 -5.1534483708113393e-02 +1.1541280175040732e-01 +9.6070094555723862e-01 +2.3093353278950768e+00 +7.8923487057449017e+02 +2.2238745534915215e+04 -1.9220714287163974e+06 
+1.7000000000000004e+00 -5.1534201461458228e-02 +1.1540969421757218e-01 +9.6054341980717484e-01 +2.3549583460406445e+00 +7.9280674899591179e+02 +2.1913086438584036e+04 -1.9441886134680922e+06 
+1.8000000000000005e+00 -5.1533918571859141e-02 +1.1540669428502902e-01 +9.6045311862001237e-01 +2.3982612096009239e+00 +7.9463740349293175e+02 +2.1600486637630958e+04 -1.9566827616177930e+06 
+1.9000000000000006e+00 -5.1533635144770024e-02 +1.1540382973476405e-01 +9.6043305681476332e-01 +2.4384983008522347e+00 +7.9463839901004235e+02 +2.1305575046698646e+04 -1.9590083747063493e+06 
+2.0000000000000004e+00 -5.1533351285654311e-02 +1.1540112834970517e-01 +9.6048625035474966e-01 +2.4749239839138699e+00 +7.9272127894852622e+02 +2.1032980618326350e+04 -1.9506198544595956e+06 
+2.1000000000000005e+00 -5.1533067086219755e-02 +1.1539860971500038e-01 +9.6061444540349650e-01 +2.5070024935914166e+00 +7.8883179399431151e+02 +2.0786074337038161e+04 -1.9311749756156600e+06 
+2.2000000000000006e+00 -5.1532782584095882e-02 +1.1539626158222693e-01 +9.6081464351926993e-01 +2.5349890714585470e+00 +7.8304475252000861e+02 +2.0563544890563622e+04 -1.9011014485584048e+06 
+2.3000000000000007e+00 -5.1532497803610189e-02 +1.1539406396795447e-01 +9.6108273970328328e-01 +2.5593251491105593e+00 +7.7546540980678958e+02 +2.0362993731665567e+04 -1.8610093611842538e+06 
+2.4000000000000008e+00 -5.1532212769092929e-02 +1.1539199688888936e-01 +9.6141462941040312e-01 +2.5804521551991559e+00 +7.6619901107785904e+02 +2.0182022332552977e+04 -1.8115087478897832e+06 
+2.5000000000000009e+00 -5.1531927504870748e-02 +1.1539004036142855e-01 +9.6180620776853587e-01 +2.5988115327438055e+00 +7.5535080631394953e+02 +2.0018232074376792e+04 -1.7532096598278631e+06 
+2.6000000000000010e+00 -5.1531642035273981e-02 +1.1538817440193920e-01 +9.6225337047146620e-01 +2.6148447262187924e+00 +7.4302603316761088e+02 +1.9869224340416295e+04 -1.6867220828555822e+06 
+2.7000000000000011e+00 -5.1531356384627025e-02 +1.1538637902636704e-01 +9.6275201262523868e-01 +2.6289931957364843e+00 +7.2932993854230267e+02 +1.9732600427622285e+04 -1.6126560390379417e+06 
+2.8000000000000012e+00 -5.1531070577258670e-02 +1.1538463425073471e-01 +9.6329803004530179e-01 +2.6416984000232371e+00 +7.1436775377567881e+02 +1.9605961656644104e+04 -1.5316214677703206e+06 
+2.9000000000000012e+00 -5.1530784637492041e-02 +1.1538292009037231e-01 +9.6388731797306892e-01 +2.6534018193476081e+00 +6.9824471931789424e+02 +1.9486909239616936e+04 -1.4442283437851765e+06 
+3.0000000000000013e+00 -5.1530498589651627e-02 +1.1538121656055370e-01 +9.6451577203183092e-01 +2.6645449363650853e+00 +6.8106606559474085e+02 +1.9373044396998885e+04 -1.3510865829790360e+06 
+3.1000000000000014e+00 -5.1530212458061331e-02 +1.1537950367602916e-01 +9.6517928796742114e-01 +2.6755692485583302e+00 +6.6293701835596585e+02 +1.9261968291511661e+04 -1.2528060689129443e+06 
+3.2000000000000015e+00 -5.1529926267041032e-02 +1.1537776145130513e-01 +9.6587376123774560e-01 +2.6869162604624202e+00 +6.4396280593510096e+02 +1.9151282075194915e+04 -1.1499966853530139e+06 
+3.3000000000000016e+00 -5.1529640040910658e-02 +1.1537596990036521e-01 +9.6659508750977829e-01 +2.6990274908326084e+00 +6.2424865004949925e+02 +1.9038586853997815e+04 -1.0432682730507394e+06 
+3.4000000000000017e+00 -5.1529353803988306e-02 +1.1537410903663950e-01 +9.6733916248874252e-01 +2.7123444733366977e+00 +6.0389976836917265e+02 +1.8921483687185355e+04 -9.3323063974040432e+05 
+3.5000000000000018e+00 -5.1529067580589089e-02 +1.1537215887320548e-01 +9.6810188175424006e-01 +2.7273087497108208e+00 +5.8302137773261938e+02 +1.8797573633106724e+04 -8.2049357535204000e+05 
+3.6000000000000019e+00 -5.1528781395026764e-02 +1.1537009942241959e-01 +9.6887914098618433e-01 +2.7443618808002919e+00 +5.6171868972618267e+02 +1.8664457687416540e+04 -7.0566683048474288e+05 
+3.7000000000000020e+00 -5.1528495271612046e-02 +1.1536791069622668e-01 +9.6966683574817614e-01 +2.7639454360732962e+00 +5.4009691456124983e+02 +1.8519736851469297e+04 -5.8936013373643940e+05 
+3.8000000000000020e+00 -5.1528209234654163e-02 +1.1536557270582623e-01 +9.7046086175917068e-01 +2.7865010035046751e+00 +5.1826125542915076e+02 +1.8361012077215524e+04 -4.7218316331613064e+05 
+3.9000000000000021e+00 -5.1527923308458637e-02 +1.1536306546166582e-01 +9.7125711455823405e-01 +2.8124701895614455e+00 +4.9631691517042805e+02 +1.8185884271063660e+04 -3.5474557926674956e+05 
+4.0000000000000018e+00 -5.1527637517329757e-02 +1.1536036897405519e-01 +9.7205148988965007e-01 +2.8422945975617147e+00 +4.7436908813397406e+02 +1.7991954445526739e+04 -2.3765698093841644e+05 
+4.1000000000000014e+00 -5.1527351900625504e-02 +1.1535747192245911e-01 +9.7284109275064057e-01 +2.8762204382252654e+00 +4.5250068740864833e+02 +1.7777921317625911e+04 -1.2140594672631775e+05 
+4.2000000000000011e+00 -5.1527066551909931e-02 +1.1535439702479605e-01 +9.7362658556284254e-01 +2.9137426517482075e+00 +4.3073230007644037e+02 +1.7546585657469277e+04 -6.1352339143852032e+03 
+4.3000000000000007e+00 -5.1526781576854537e-02 +1.1535117543756303e-01 +9.7440921001320613e-01 +2.9541732215581189e+00 +4.0907538381925377e+02 +1.7301719430263151e+04 +1.0806591499637990e+05 
+4.4000000000000004e+00 -5.1526497081135346e-02 +1.1534783831654062e-01 +9.7519020812381085e-01 +2.9968241363559178e+00 +3.8754139203495231e+02 +1.7047094600650747e+04 +2.2110826888212390e+05 
+4.5000000000000000e+00 -5.1526213170434369e-02 +1.1534441681636905e-01 +9.7597082243599254e-01 +3.0410074011171324e+00 +3.6614177044888515e+02 +1.6786483074103511e+04 +3.3290262330373074e+05 
+4.5999999999999996e+00 -5.1525929950440183e-02 +1.1534094209072861e-01 +9.7675229608805092e-01 +3.0860350310153564e+00 +3.4488795555737966e+02 +1.6523656733180309e+04 +4.4335980777684273e+05 
+4.6999999999999993e+00 -5.1525647526848413e-02 +1.1533744529217202e-01 +9.7753587282360854e-01 +3.1312190553526627e+00 +3.2379137492358751e+02 +1.6262387416106088e+04 +5.5239068290092726e+05 
+4.7999999999999989e+00 -5.1525366005359279e-02 +1.1533395757217647e-01 +9.7832279669086963e-01 +3.1758715146502712e+00 +3.0286345308439974e+02 +1.6006446936498418e+04 +6.5990611121540191e+05 
+4.8999999999999986e+00 -5.1525085491683810e-02 +1.1533051008101879e-01 +9.7911431278900463e-01 +3.2193044636794732e+00 +2.8211559739612062e+02 +1.5759607066271490e+04 +7.6581702431119105e+05 
+4.9999999999999982e+00 -5.1524806091536660e-02 +1.1532713396784917e-01 +9.7991166636234650e-01 +3.2608299679910231e+00 +2.6155921557459146e+02 +1.5525639558015970e+04 +8.7003433811681741e+05 
+5.0999999999999979e+00 -5.1524527910642527e-02 +1.1532386038042976e-01 +9.8071610355718331e-01 +3.2997601104319041e+00 +2.4120570155092614e+02 +1.5308316109254416e+04 +9.7246901921251346e+05 
+5.1999999999999975e+00 -5.1524251054734356e-02 +1.1532072046519977e-01 +9.8152887121326804e-01 +3.3354069887840039e+00 +2.2106643958494442e+02 +1.5111408375862284e+04 +1.0730320644761969e+06 
+5.2999999999999972e+00 -5.1523975629551952e-02 +1.1531774536743840e-01 +9.8235121667052283e-01 +3.3670827094284110e+00 +2.0115280783575497e+02 +1.4938688012440876e+04 +1.1716344842088451e+06 
+5.3999999999999968e+00 -5.1523701740846015e-02 +1.1531496623081319e-01 +9.8318438822193688e-01 +3.3940994002544924e+00 +1.8147617061744188e+02 +1.4793926596791467e+04 +1.2681873360446873e+06 
+5.4999999999999964e+00 -5.1523429494374343e-02 +1.1531241419777258e-01 +9.8402963464441151e-01 +3.4157691967240691e+00 +1.6204788686934540e+02 +1.4680895716547526e+04 +1.3626016858771637e+06 
+5.5999999999999961e+00 -5.1523158995905982e-02 +1.1531012040907430e-01 +9.8488820570441782e-01 +3.4314042560587148e+00 +1.4287930111545569e+02 +1.4603366883805385e+04 +1.4547886486562504e+06 
+5.6999999999999957e+00 -5.1522890351217980e-02 +1.1530811600416867e-01 +9.8576135172448687e-01 +3.4403167444721654e+00 +1.2398175162957730e+02 +1.4565111613722689e+04 +1.5446593497321417e+06 
+5.7999999999999954e+00 -5.1522623666099450e-02 +1.1530643212082581e-01 +9.8665032405956754e-01 +3.4418188470834137e+00 +1.0536656201571917e+02 +1.4569901366977154e+04 +1.6321249625601955e+06 
+5.8999999999999950e+00 -5.1522359046349046e-02 +1.1530509989512727e-01 +9.8755637479886271e-01 +3.4352227671688489e+00 +8.7045046503392541e+01 +1.4621507556432580e+04 +1.7170966844763495e+06 
+5.9999999999999947e+00 -5.1522096597775062e-02 +1.1530415046136082e-01 +9.8848075668204272e-01 +3.4198407318268762e+00 +6.9028512784903938e+01 +1.4723701465773896e+04 +1.7994857153767273e+06 
+6.0999999999999943e+00 -5.1521836389157423e-02 +1.1530360593565832e-01 +9.8942352525394373e-01 +3.3951766119170883e+00 +5.1337822849334536e+01 +1.4879164998185648e+04 +1.8791720540915397e+06 
+6.1999999999999940e+00 -5.1521578348760373e-02 +1.1530344981195624e-01 +9.9038172178211314e-01 +3.3615651761608687e+00 +3.3995317410947230e+01 +1.5085978419815459e+04 +1.9561024796236726e+06 
+6.2999999999999936e+00 -5.1521322371579456e-02 +1.1530365509338077e-01 +9.9135208517978002e-01 +3.3195709437140453e+00 +1.7014297161619496e+01 +1.5340970026893483e+04 +2.0302892307845522e+06 
+6.3999999999999932e+00 -5.1521068352603790e-02 +1.1530419478465675e-01 +9.9233135382565452e-01 +3.2697584048815598e+00 +4.0807166242337317e-01 +1.5640968260858142e+04 +2.1017445083232913e+06 
+6.4999999999999929e+00 -5.1520816186815421e-02 +1.1530504189258077e-01 +9.9331626539890283e-01 +3.2126920066717042e+00 -1.5810036506065508e+01 +1.5982801799167504e+04 +2.1704804517264725e+06 
+6.5999999999999925e+00 -5.1520565769187857e-02 +1.1530616942633079e-01 +9.9430355671151782e-01 +3.1489361440163259e+00 -3.1626688706053240e+01 +1.6363299607667124e+04 +2.2365091253059553e+06 
+6.6999999999999922e+00 -5.1520316994686628e-02 +1.1530755039744146e-01 +9.9528996376580692e-01 +3.0790551612323021e+00 -4.7028531114196063e+01 +1.6779290930983494e+04 +2.2998425217158389e+06 
+6.7999999999999918e+00 -5.1520069758270608e-02 +1.1530915781981517e-01 +9.9627222195954246e-01 +3.0036133528371738e+00 -6.2002198944816037e+01 +1.7227605286067435e+04 +2.3604925830412502e+06 
+6.8999999999999915e+00 -5.1519823954886856e-02 +1.1531096471017818e-01 +9.9724706542483510e-01 +2.9231749518982917e+00 -7.6534303630746223e+01 +1.7705072526715037e+04 +2.4184711390786474e+06 
+6.9999999999999911e+00 -5.1519579479473381e-02 +1.1531294408782364e-01 +9.9821122741236412e-01 +2.8383041372883251e+00 -9.0611440538033889e+01 +1.8208522803314638e+04 +2.4737899454012089e+06 
+7.0999999999999908e+00 -5.1519336226959971e-02 +1.1531506897486431e-01 +9.9916144037271615e-01 +2.7495650282949349e+00 -1.0422019017782267e+02 +1.8734786589900898e+04 +2.5264606881107837e+06 
+7.1999999999999904e+00 -5.1519094092264468e-02 +1.1531731239636087e-01 +1.0000944355347396e+00 +2.6575216813597469e+00 -1.1734711047829455e+02 +1.9280694703135625e+04 +2.5764949479361116e+06 
+7.2999999999999901e+00 -5.1518852970294356e-02 +1.1531964738044330e-01 +1.0010069430753303e+00 +2.5627380876096404e+00 -1.2997873983282796e+02 +1.9843078315403935e+04 +2.6239042143494599e+06 
+7.3999999999999897e+00 -5.1518612755947324e-02 +1.1532204695828165e-01 +1.0018956922324465e+00 +2.4657781745245511e+00 -1.4210159947040378e+02 +2.0418768943591193e+04 +2.6686998974593417e+06 
+7.4999999999999893e+00 -5.1518373344108782e-02 +1.1532448416450838e-01 +1.0027574110126700e+00 +2.3672057947639455e+00 -1.5370218802106268e+02 +2.1004598512569155e+04 +2.7108933026067675e+06 
+7.5999999999999890e+00 -5.1518134629650998e-02 +1.1532693203678025e-01 +1.0035888260431618e+00 +2.2675847402351748e+00 -1.6476697830510139e+02 +2.1597399271069920e+04 +2.7504956139425561e+06 
+7.6999999999999886e+00 -5.1517896507436232e-02 +1.1532936361646536e-01 +1.0043866630266649e+00 +2.1674787223112171e+00 -1.7528242652310399e+02 +2.2194003907246613e+04 +2.7875179398585302e+06 
+7.7999999999999883e+00 -5.1517658872311335e-02 +1.1533175194851086e-01 +1.0051476460349442e+00 +2.0674513765972007e+00 -1.8523495840783758e+02 +2.2791245520050477e+04 +2.8219712458200133e+06 
+7.8999999999999879e+00 -5.1517421619113254e-02 +1.1533407008130026e-01 +1.0058684982586188e+00 +1.9680662694567890e+00 -1.9461098408935371e+02 +2.3385957575416367e+04 +2.8538664270489598e+06 
+7.9999999999999876e+00 -5.1517184642662389e-02 +1.1533629106733902e-01 +1.0065459411222200e+00 +1.8698868700786990e+00 -2.0339688117410165e+02 +2.3974974149614514e+04 +2.8832142331929635e+06 
+8.0999999999999872e+00 -5.1516947877868695e-02 +1.1533839159020809e-01 +1.0071774170022250e+00 +1.7734157553345729e+00 -2.1158233805921205e+02 +2.4555500242367212e+04 +2.9100330142994262e+06 
+8.1999999999999869e+00 -5.1516711416723350e-02 +1.1534036686958121e-01 +1.0077623747208517e+00 +1.6788462452180355e+00 -2.1915397342774466e+02 +2.5126427319814578e+04 +2.9342855607755822e+06 
+8.2999999999999865e+00 -5.1516475389579749e-02 +1.1534221789106952e-01 +1.0083005071968503e+00 +1.5862747196103579e+00 -2.2609287589922732e+02 +2.5687144642561998e+04 +2.9558965187046807e+06 
+8.3999999999999861e+00 -5.1516239926790698e-02 +1.1534394564217632e-01 +1.0087915071167899e+00 +1.4957974842385431e+00 -2.3238013168923558e+02 +2.6237041963649070e+04 +2.9747905305875614e+06 
+8.4999999999999858e+00 -5.1516005158709612e-02 +1.1534555111165717e-01 +1.0092350671975232e+00 +1.4075107832781002e+00 -2.3799682953728555e+02 +2.6775509438718957e+04 +2.9908922609780724e+06 
+8.5999999999999854e+00 -5.1515771215691376e-02 +1.1534703528977583e-01 +1.0096308802971854e+00 +1.3215107922064002e+00 -2.4292406309768668e+02 +2.7301937665759673e+04 +3.0041264089403418e+06 
+8.6999999999999851e+00 -5.1515538228088881e-02 +1.1534839916772410e-01 +1.0099786389688923e+00 +1.2378936331458015e+00 -2.4714292234914015e+02 +2.7815717598620817e+04 +3.0144176669285162e+06 
+8.7999999999999847e+00 -5.1515306326258843e-02 +1.1534964373844338e-01 +1.0102780362283210e+00 +1.1567553503048482e+00 -2.5063450858307783e+02 +2.8316240691464864e+04 +3.0216907933918876e+06 
+8.8999999999999844e+00 -5.1515075640555255e-02 +1.1535076999612454e-01 +1.0105287646525045e+00 +1.0781919239277875e+00 -2.5337991672632580e+02 +2.8802898817116959e+04 +3.0258705272949897e+06 
+8.9999999999999840e+00 -5.1514846301335071e-02 +1.1535177893620432e-01 +1.0107305171746628e+00 +1.0022992700250106e+00 -2.5536025117616398e+02 +2.9275084269652747e+04 +3.0268816656766646e+06 
+9.0999999999999837e+00 -5.1514618438955329e-02 +1.1535267155573783e-01 +1.0108829866583047e+00 +9.2917322723486284e-01 -2.5655661734358148e+02 +2.9732189845444675e+04 +3.0246490225434443e+06 
+9.1999999999999833e+00 -5.1514392183772767e-02 +1.1535344885313098e-01 +1.0109858658836399e+00 +8.5890956658562023e-01 -2.5695012159599531e+02 +3.0173608779883743e+04 +3.0190974292975697e+06 
+9.2999999999999829e+00 -5.1514167666147831e-02 +1.1535411182811534e-01 +1.0110388480326842e+00 +7.9160398868846926e-01 -2.5652188057704325e+02 +3.0598734772675794e+04 +3.0101517795334579e+06 
+9.3999999999999826e+00 -5.1513945016438210e-02 +1.1535466148227724e-01 +1.0110416258811907e+00 +7.2735210901842740e-01 -2.5525300588318606e+02 +3.1006962070446236e+04 +2.9977369564055158e+06 
+9.4999999999999822e+00 -5.1513724365005016e-02 +1.1535509881822895e-01 +1.0109938925694033e+00 +6.6624948112511972e-01 -2.5312461876655374e+02 +3.1397685332870398e+04 +2.9817779028438712e+06 
+9.5999999999999819e+00 -5.1513505842208797e-02 +1.1535542484042317e-01 +1.0108953411041883e+00 +6.0839157205173111e-01 -2.5011784080362486e+02 +3.1770299777582593e+04 +2.9621995777472658e+06 
+9.6999999999999815e+00 -5.1513289578413148e-02 +1.1535564055471079e-01 +1.0107456648022248e+00 +5.5387377449941622e-01 -2.4621380223979713e+02 +3.2124201109533966e+04 +2.9389269955156296e+06 
+9.7999999999999812e+00 -5.1513075703978943e-02 +1.1535574696853362e-01 +1.0105445565869899e+00 +5.0279140036907843e-01 -2.4139362895652408e+02 +3.2458785560594450e+04 +2.9118851652522213e+06 
+9.8999999999999808e+00 -5.1512864349273248e-02 +1.1535574509084942e-01 +1.0102917100429543e+00 +4.5523968217218524e-01 -2.3563846210941441e+02 +3.2773449881958535e+04 +2.8809991831328883e+06 
+9.9999999999999805e+00 -5.1512655644663764e-02 +1.1535563593362241e-01 +1.0099868190472145e+00 +4.1131375355793526e-01 -2.2892945055340962e+02 +3.3067591379880927e+04 +2.8461941916061239e+06 
+1.0099999999999980e+01 -5.1512449689300695e-02 +1.1535542379819327e-01 +1.0096306081746802e+00 +3.7104137578908697e-01 -2.2127006008254421e+02 +3.3340854139686955e+04 +2.8074924973134375e+06 
