# field on trajectory
# s[mm] rx[mm] ry[mm] rz[mm] bx[T] by[T] bz[T]
0.0000000000000000e+00 +9.0449999999999999e+00 +0.0000000000000000e+00 +0.0000000000000000e+00 +1.1098735177347985e-02 -1.0335528171955919e+00 -5.9243925851922750e-02
-1.0000000000000001e-01 +9.0449994835803871e+00 +0.0000000000000000e+00 -9.9999999998222067e-02 +1.1098706903221614e-02 -1.0335570181858238e+00 -5.9242539015022605e-02
-2.0000000000000001e-01 +9.0449979343187454e+00 +0.0000000000000000e+00 -1.9999999998577653e-01 +1.1098673206836111e-02 -1.0335612496143185e+00 -5.9241127187868586e-02
-3.0000000000000004e-01 +9.0449953522108473e+00 +0.0000000000000000e+00 -2.9999999995199561e-01 +1.1098634816342648e-02 -1.0335655089624070e+00 -5.9239691401390689e-02
-4.0000000000000002e-01 +9.0449917372524364e+00 +0.0000000000000000e+00 -3.9999999988621149e-01 +1.1098592459895560e-02 -1.0335697937115971e+00 -5.9238232686512619e-02
-5.0000000000000000e-01 +9.0449870894392301e+00 +0.0000000000000000e+00 -4.9999999977775611e-01 +1.1098546865653047e-02 -1.0335741013435780e+00 -5.9236752074149558e-02
-5.9999999999999998e-01 +9.0449814087669260e+00 +0.0000000000000000e+00 -5.9999999961596140e-01 +1.1098498761777853e-02 -1.0335784293402328e+00 -5.9235250595206110e-02
-6.9999999999999996e-01 +9.0449746952312005e+00 +0.0000000000000000e+00 -6.9999999939015911e-01 +1.1098448876437976e-02 -1.0335827751836475e+00 -5.9233729280574243e-02
-7.9999999999999993e-01 +9.0449669488277102e+00 +0.0000000000000000e+00 -7.9999999908968078e-01 +1.1098397937807347e-02 -1.0335871363561207e+00 -5.9232189161131113e-02
-8.9999999999999991e-01 +9.0449581695520980e+00 +0.0000000000000000e+00 -8.9999999870385783e-01 +1.1098346674066527e-02 -1.0335915103401698e+00 -5.9230631267736970e-02
-9.9999999999999989e-01 +9.0449483573999938e+00 +0.0000000000000000e+00 -9.9999999822202168e-01 +1.1098295813403401e-02 -1.0335958946185453e+00 -5.9229056631233137e-02
-1.0999999999999999e+00 +9.0449375123670190e+00 +0.0000000000000000e+00 -1.0999999976335035e+00 +1.1098246084013868e-02 -1.0336002866742355e+00 -5.9227466282439745e-02
-1.2000000000000000e+00 +9.0449256344487861e+00 +0.0000000000000000e+00 -1.1999999969276343e+00 +1.1098198214102534e-02 -1.0336046839904780e+00 -5.9225861252153754e-02
-1.3000000000000000e+00 +9.0449127236409019e+00 +0.0000000000000000e+00 -1.2999999960937449e+00 +1.1098152931883412e-02 -1.0336090840507697e+00 -5.9224242571146883e-02
-1.4000000000000001e+00 +9.0448987799389702e+00 +0.0000000000000000e+00 -1.3999999951211664e+00 +1.1098110965580592e-02 -1.0336134843388738e+00 -5.9222611270163317e-02
-1.5000000000000002e+00 +9.0448838033385961e+00 +0.0000000000000000e+00 -1.4999999939992290e+00 +1.1098073043428950e-02 -1.0336178823388298e+00 -5.9220968379917797e-02
-1.6000000000000003e+00 +9.0448677938353850e+00 +0.0000000000000000e+00 -1.5999999927172635e+00 +1.1098039716710043e-02 -1.0336222767957102e+00 -5.9219314834086545e-02
-1.7000000000000004e+00 +9.0448507514249492e+00 +0.0000000000000000e+00 -1.6999999912646002e+00 +1.1098010828854593e-02 -1.0336266714978839e+00 -5.9217651178302036e-02
-1.8000000000000005e+00 +9.0448326761028959e+00 +0.0000000000000000e+00 -1.7999999896305694e+00 +1.1097986046330279e-02 -1.0336310714948389e+00 -5.9215977861205776e-02
-1.9000000000000006e+00 +9.0448135678648320e+00 +0.0000000000000000e+00 -1.8999999878045011e+00 +1.1097965035604786e-02 -1.0336354818364655e+00 -5.9214295331465085e-02
-2.0000000000000004e+00 +9.0447934267063506e+00 +0.0000000000000000e+00 -1.9999999857757251e+00 +1.1097947463144761e-02 -1.0336399075730720e+00 -5.9212604037779032e-02
-2.1000000000000005e+00 +9.0447722526230319e+00 +0.0000000000000000e+00 -2.0999999835335714e+00 +1.1097932995414839e-02 -1.0336443537554085e+00 -5.9210904428884256e-02
-2.2000000000000006e+00 +9.0447500456104333e+00 +0.0000000000000000e+00 -2.1999999810673696e+00 +1.1097921298876628e-02 -1.0336488254346836e+00 -5.9209196953560778e-02
-2.3000000000000007e+00 +9.0447268056640873e+00 +0.0000000000000000e+00 -2.2999999783664493e+00 +1.1097912039987685e-02 -1.0336533276625879e+00 -5.9207482060637945e-02
-2.4000000000000008e+00 +9.0447025327794996e+00 +0.0000000000000000e+00 -2.3999999754201400e+00 +1.1097904885200554e-02 -1.0336578654913113e+00 -5.9205760199000292e-02
-2.5000000000000009e+00 +9.0446772269521354e+00 +0.0000000000000000e+00 -2.4999999722177710e+00 +1.1097899500961737e-02 -1.0336624439735651e+00 -5.9204031817593379e-02
-2.6000000000000010e+00 +9.0446508881774221e+00 +0.0000000000000000e+00 -2.5999999687486710e+00 +1.1097895553710685e-02 -1.0336670681626006e+00 -5.9202297365429590e-02
-2.7000000000000011e+00 +9.0446235164507414e+00 +0.0000000000000000e+00 -2.6999999650021693e+00 +1.1097892709878815e-02 -1.0336717431122284e+00 -5.9200557291594159e-02
-2.8000000000000012e+00 +9.0445951117674248e+00 +0.0000000000000000e+00 -2.7999999609675945e+00 +1.1097890635888502e-02 -1.0336764738768416e+00 -5.9198812045250890e-02
-2.9000000000000012e+00 +9.0445656741227474e+00 +0.0000000000000000e+00 -2.8999999566342751e+00 +1.1097888998152068e-02 -1.0336812655114325e+00 -5.9197062075648059e-02
-3.0000000000000013e+00 +9.0445352035119218e+00 +0.0000000000000000e+00 -2.9999999519915397e+00 +1.1097887463070793e-02 -1.0336861230716146e+00 -5.9195307832124330e-02
-3.1000000000000014e+00 +9.0445036999300985e+00 +0.0000000000000000e+00 -3.0999999470287167e+00 +1.1097885697033898e-02 -1.0336910516136404e+00 -5.9193549764114513e-02
-3.2000000000000015e+00 +9.0444711633723536e+00 +0.0000000000000000e+00 -3.1999999417351339e+00 +1.1097883366417569e-02 -1.0336960561944264e+00 -5.9191788321155535e-02
-3.3000000000000016e+00 +9.0444375938336901e+00 +0.0000000000000000e+00 -3.2999999361001193e+00 +1.1097880137583940e-02 -1.0337011418715656e+00 -5.9190023952892197e-02
-3.4000000000000017e+00 +9.0444029913090294e+00 +0.0000000000000000e+00 -3.3999999301130011e+00 +1.1097875676880092e-02 -1.0337063137033549e+00 -5.9188257109083174e-02
-3.5000000000000018e+00 +9.0443673557932058e+00 +0.0000000000000000e+00 -3.4999999237631063e+00 +1.1097869650637058e-02 -1.0337115767488092e+00 -5.9186488239606642e-02
-3.6000000000000019e+00 +9.0443306872809650e+00 +0.0000000000000000e+00 -3.5999999170397627e+00 +1.1097861783292817e-02 -1.0337169350814193e+00 -5.9184717773596331e-02
-3.7000000000000020e+00 +9.0442929857669547e+00 +0.0000000000000000e+00 -3.6999999099322971e+00 +1.1097852031771898e-02 -1.0337223888302465e+00 -5.9182946056778381e-02
-3.8000000000000020e+00 +9.0442542512457287e+00 +0.0000000000000000e+00 -3.7999999024300366e+00 +1.1097840411127040e-02 -1.0337279371385442e+00 -5.9181173413980555e-02
-3.9000000000000021e+00 +9.0442144837117464e+00 +0.0000000000000000e+00 -3.8999998945223080e+00 +1.1097826936417554e-02 -1.0337335791499995e+00 -5.9179400169982174e-02
-4.0000000000000018e+00 +9.0441736831593751e+00 +0.0000000000000000e+00 -3.9999998861984376e+00 +1.1097811622709968e-02 -1.0337393140087290e+00 -5.9177626649508049e-02
-4.1000000000000014e+00 +9.0441318495828877e+00 +0.0000000000000000e+00 -4.0999998774477522e+00 +1.1097794485078688e-02 -1.0337451408592764e+00 -5.9175853177222418e-02
-4.2000000000000011e+00 +9.0440889829764668e+00 +0.0000000000000000e+00 -4.1999998682595772e+00 +1.1097775538606674e-02 -1.0337510588466097e+00 -5.9174080077722832e-02
-4.3000000000000007e+00 +9.0440450833342023e+00 +0.0000000000000000e+00 -4.2999998586232389e+00 +1.1097754798386083e-02 -1.0337570671161178e+00 -5.9172307675533962e-02
-4.4000000000000004e+00 +9.0440001506500955e+00 +0.0000000000000000e+00 -4.3999998485280631e+00 +1.1097732279518933e-02 -1.0337631648136092e+00 -5.9170536295101668e-02
-4.5000000000000000e+00 +9.0439541849180571e+00 +0.0000000000000000e+00 -4.4999998379633750e+00 +1.1097707997117755e-02 -1.0337693510853065e+00 -5.9168766260786786e-02
-4.5999999999999996e+00 +9.0439071861319107e+00 +0.0000000000000000e+00 -4.5999998269185003e+00 +1.1097681966306264e-02 -1.0337756250778452e+00 -5.9166997896858947e-02
-4.6999999999999993e+00 +9.0438591542853928e+00 +0.0000000000000000e+00 -4.6999998153827631e+00 +1.1097654202220005e-02 -1.0337819859382709e+00 -5.9165231527490668e-02
-4.7999999999999989e+00 +9.0438100893721494e+00 +0.0000000000000000e+00 -4.7999998033454894e+00 +1.1097624720007016e-02 -1.0337884328140348e+00 -5.9163467476751094e-02
-4.8999999999999986e+00 +9.0437599913857447e+00 +0.0000000000000000e+00 -4.8999997907960022e+00 +1.1097593534828479e-02 -1.0337949648529925e+00 -5.9161706068599981e-02
-4.9999999999999982e+00 +9.0437088603196578e+00 +0.0000000000000000e+00 -4.9999997777236267e+00 +1.1097560661859384e-02 -1.0338015812034009e+00 -5.9159947626881572e-02
-5.0999999999999979e+00 +9.0436566961672806e+00 +0.0000000000000000e+00 -5.0999997641176869e+00 +1.1097526116289183e-02 -1.0338082810139146e+00 -5.9158192475318463e-02
-5.1999999999999975e+00 +9.0436034989219252e+00 +0.0000000000000000e+00 -5.1999997499675068e+00 +1.1097489913322434e-02 -1.0338150634335825e+00 -5.9156440937505529e-02
-5.2999999999999972e+00 +9.0435492685768182e+00 +0.0000000000000000e+00 -5.2999997352624098e+00 +1.1097452068179475e-02 -1.0338219276118470e+00 -5.9154693336903839e-02
-5.3999999999999968e+00 +9.0434940051251065e+00 +0.0000000000000000e+00 -5.3999997199917180e+00 +1.1097412596097055e-02 -1.0338288726985376e+00 -5.9152949996834576e-02
-5.4999999999999964e+00 +9.0434377085598570e+00 +0.0000000000000000e+00 -5.4999997041447557e+00 +1.1097371512329014e-02 -1.0338358978438731e+00 -5.9151211240472873e-02
-5.5999999999999961e+00 +9.0433803788740530e+00 +0.0000000000000000e+00 -5.5999996877108451e+00 +1.1097328857319297e-02 -1.0338430008499584e+00 -5.9149477295654979e-02
-5.6999999999999957e+00 +9.0433220160606052e+00 +0.0000000000000000e+00 -5.6999996706793086e+00 +1.1097284772192366e-02 -1.0338501741249102e+00 -5.9147748009380420e-02
-5.7999999999999954e+00 +9.0432626201123512e+00 +0.0000000000000000e+00 -5.7999996530394693e+00 +1.1097239423185089e-02 -1.0338574087277566e+00 -5.9146023133498274e-02
-5.8999999999999950e+00 +9.0432021910220701e+00 +0.0000000000000000e+00 -5.8999996347806478e+00 +1.1097192976463919e-02 -1.0338646957168258e+00 -5.9144302419916445e-02
-5.9999999999999947e+00 +9.0431407287824861e+00 +0.0000000000000000e+00 -5.9999996158921665e+00 +1.1097145598121813e-02 -1.0338720261496994e+00 -5.9142585620605419e-02
-6.0999999999999943e+00 +9.0430782333862805e+00 +0.0000000000000000e+00 -6.0999995963633467e+00 +1.1097097454175111e-02 -1.0338793910831643e+00 -5.9140872487601338e-02
-6.1999999999999940e+00 +9.0430147048261009e+00 +0.0000000000000000e+00 -6.1999995761835098e+00 +1.1097048710560485e-02 -1.0338867815731656e+00 -5.9139162773009846e-02
-6.2999999999999936e+00 +9.0429501430945702e+00 +0.0000000000000000e+00 -6.2999995553419765e+00 +1.1096999533131792e-02 -1.0338941886747592e+00 -5.9137456229009240e-02
-6.3999999999999932e+00 +9.0428845481842952e+00 +0.0000000000000000e+00 -6.3999995338280682e+00 +1.1096950087657006e-02 -1.0339016034420623e+00 -5.9135752607854086e-02
-6.4999999999999929e+00 +9.0428179200878720e+00 +0.0000000000000000e+00 -6.4999995116311045e+00 +1.1096900539815132e-02 -1.0339090169282099e+00 -5.9134051661878684e-02
-6.5999999999999925e+00 +9.0427502587979003e+00 +0.0000000000000000e+00 -6.5999994887404059e+00 +1.1096851055193096e-02 -1.0339164201853024e+00 -5.9132353143500418e-02
-6.6999999999999922e+00 +9.0426815643069904e+00 +0.0000000000000000e+00 -6.6999994651452930e+00 +1.1096801799282642e-02 -1.0339238042643604e+00 -5.9130656805223336e-02
-6.7999999999999918e+00 +9.0426118366077723e+00 +0.0000000000000000e+00 -6.7999994408350855e+00 +1.1096752937477255e-02 -1.0339311602152792e+00 -5.9128962399641508e-02
-6.8999999999999915e+00 +9.0425410756929026e+00 +0.0000000000000000e+00 -6.8999994157991020e+00 +1.1096704635069062e-02 -1.0339384790867783e+00 -5.9127269679442596e-02
-6.9999999999999911e+00 +9.0424692815550749e+00 +0.0000000000000000e+00 -6.9999993900266624e+00 +1.1096657057245737e-02 -1.0339457519263537e+00 -5.9125578397411171e-02
-7.0999999999999908e+00 +9.0423964541870312e+00 +0.0000000000000000e+00 -7.0999993635070862e+00 +1.1096610369087405e-02 -1.0339529697802332e+00 -5.9123888306432365e-02
-7.1999999999999904e+00 +9.0423225935815665e+00 +0.0000000000000000e+00 -7.1999993362296921e+00 +1.1096564735563539e-02 -1.0339601236933258e+00 -5.9122199159495098e-02
-7.2999999999999901e+00 +9.0422476997315400e+00 +0.0000000000000000e+00 -7.2999993081837999e+00 +1.1096520321529897e-02 -1.0339672047091781e+00 -5.9120510709695775e-02
-7.3999999999999897e+00 +9.0421717726298851e+00 +0.0000000000000000e+00 -7.3999992793587275e+00 +1.1096477291725387e-02 -1.0339742038699218e+00 -5.9118822710241554e-02
-7.4999999999999893e+00 +9.0420948122696156e+00 +0.0000000000000000e+00 -7.4999992497437926e+00 +1.1096435810769013e-02 -1.0339811122162310e+00 -5.9117134914453959e-02
-7.5999999999999890e+00 +9.0420168186438374e+00 +0.0000000000000000e+00 -7.5999992193283150e+00 +1.1096395948568186e-02 -1.0339879221075099e+00 -5.9115447132494309e-02
-7.6999999999999886e+00 +9.0419377917457542e+00 +0.0000000000000000e+00 -7.6999991881016125e+00 +1.1096357396637920e-02 -1.0339946311831933e+00 -5.9113759401485624e-02
-7.7999999999999883e+00 +9.0418577315686690e+00 +0.0000000000000000e+00 -7.7999991560530031e+00 +1.1096319752040788e-02 -1.0340012384028439e+00 -5.9112071815252153e-02
-7.8999999999999879e+00 +9.0417766381059899e+00 +0.0000000000000000e+00 -7.8999991231718045e+00 +1.1096282612009747e-02 -1.0340077427259833e+00 -5.9110384467579907e-02
-7.9999999999999876e+00 +9.0416945113512242e+00 +0.0000000000000000e+00 -7.9999990894473347e+00 +1.1096245573954536e-02 -1.0340141431120946e+00 -5.9108697452214996e-02
-8.0999999999999872e+00 +9.0416113512979841e+00 +0.0000000000000000e+00 -8.0999990548689116e+00 +1.1096208235468037e-02 -1.0340204385206244e+00 -5.9107010862861901e-02
-8.1999999999999869e+00 +9.0415271579399885e+00 +0.0000000000000000e+00 -8.1999990194258530e+00 +1.1096170194332637e-02 -1.0340266279109875e+00 -5.9105324793181722e-02
-8.2999999999999865e+00 +9.0414419312710610e+00 +0.0000000000000000e+00 -8.2999989831074767e+00 +1.1096131048526603e-02 -1.0340327102425664e+00 -5.9103639336790331e-02
-8.3999999999999861e+00 +9.0413556712851335e+00 +0.0000000000000000e+00 -8.3999989459030999e+00 +1.1096090396230480e-02 -1.0340386844747174e+00 -5.9101954587256818e-02
-8.4999999999999858e+00 +9.0412683779762446e+00 +0.0000000000000000e+00 -8.4999989078020395e+00 +1.1096047835833419e-02 -1.0340445495667694e+00 -5.9100270638101575e-02
-8.5999999999999854e+00 +9.0411800513385412e+00 +0.0000000000000000e+00 -8.5999988687936124e+00 +1.1096002965939608e-02 -1.0340503044780314e+00 -5.9098587582794702e-02
-8.6999999999999851e+00 +9.0410906913662838e+00 +0.0000000000000000e+00 -8.6999988288671357e+00 +1.1095955385374582e-02 -1.0340559481677911e+00 -5.9096905514754147e-02
-8.7999999999999847e+00 +9.0410002980538415e+00 +0.0000000000000000e+00 -8.7999987880119281e+00 +1.1095904693191662e-02 -1.0340614795953187e+00 -5.9095224527344024e-02
-8.8999999999999844e+00 +9.0409088713956969e+00 +0.0000000000000000e+00 -8.8999987462173049e+00 +1.1095850488678279e-02 -1.0340668977198701e+00 -5.9093544713872855e-02
-8.9999999999999840e+00 +9.0408164113864462e+00 +0.0000000000000000e+00 -8.9999987034725848e+00 +1.1095792371362382e-02 -1.0340722015006898e+00 -5.9091866167591843e-02
-9.0999999999999837e+00 +9.0407229180207977e+00 +0.0000000000000000e+00 -9.0999986597670830e+00 +1.1095729941018800e-02 -1.0340773898970124e+00 -5.9090188981693069e-02
-9.1999999999999833e+00 +9.0406283912935770e+00 +0.0000000000000000e+00 -9.1999986150901165e+00 +1.1095662797675628e-02 -1.0340824618680660e+00 -5.9088513249307861e-02
-9.2999999999999829e+00 +9.0405328311997266e+00 +0.0000000000000000e+00 -9.2999985694310041e+00 +1.1095590541620595e-02 -1.0340874163730742e+00 -5.9086839063504995e-02
-9.3999999999999826e+00 +9.0404362377343048e+00 +0.0000000000000000e+00 -9.3999985227790610e+00 +1.1095512773407453e-02 -1.0340922523712608e+00 -5.9085166517288873e-02
-9.4999999999999822e+00 +9.0403386108924906e+00 +0.0000000000000000e+00 -9.4999984751236042e+00 +1.1095429093862347e-02 -1.0340969688218491e+00 -5.9083495703597888e-02
-9.5999999999999819e+00 +9.0402399506695801e+00 +0.0000000000000000e+00 -9.5999984264539489e+00 +1.1095339294028912e-02 -1.0341015652713261e+00 -5.9081826816992880e-02
-9.6999999999999815e+00 +9.0401402570609903e+00 +0.0000000000000000e+00 -9.6999983767594138e+00 +1.1095243924845221e-02 -1.0341060436154992e+00 -5.9080160458758572e-02
-9.7999999999999812e+00 +9.0400395300622574e+00 +0.0000000000000000e+00 -9.7999983260293142e+00 +1.1095143726995034e-02 -1.0341104063379722e+00 -5.9078497331847328e-02
-9.8999999999999808e+00 +9.0399377696690308e+00 +0.0000000000000000e+00 -9.8999982742529671e+00 +1.1095039440899660e-02 -1.0341146559228909e+00 -5.9076838139182283e-02
-9.9999999999999805e+00 +9.0398349758770760e+00 +0.0000000000000000e+00 -9.9999982214196894e+00 +1.1094931806710319e-02 -1.0341187948549597e+00 -5.9075183583656765e-02
-1.0099999999999980e+01 +9.0397311486822680e+00 +0.0000000000000000e+00 -1.0099998167518798e+01 +1.1094821564300481e-02 -1.0341228256194586e+00 -5.9073534368133736e-02
-1.0199999999999980e+01 +9.0396262880805889e+00 +0.0000000000000000e+00 -1.0199998112539609e+01 +1.1094709453258194e-02 -1.0341267507022560e+00 -5.9071891195445002e-02
-1.0299999999999979e+01 +9.0395203940681270e+00 +0.0000000000000000e+00 -1.0299998056471438e+01 +1.1094596212878468e-02 -1.0341305725898289e+00 -5.9070254768390701e-02
-1.0399999999999979e+01 +9.0394134666410739e+00 +0.0000000000000000e+00 -1.0399997999303602e+01 +1.1094482582155563e-02 -1.0341342937692777e+00 -5.9068625789738594e-02
-1.0499999999999979e+01 +9.0393055057957223e+00 +0.0000000000000000e+00 -1.0499997941025420e+01 +1.1094369299775359e-02 -1.0341379167283411e+00 -5.9067004962223446e-02
-1.0599999999999978e+01 +9.0391965115284645e+00 +0.0000000000000000e+00 -1.0599997881626205e+01 +1.1094257104107682e-02 -1.0341414439554142e+00 -5.9065392988546399e-02
-1.0699999999999978e+01 +9.0390864838357849e+00 +0.0000000000000000e+00 -1.0699997821095275e+01 +1.1094146733198649e-02 -1.0341448779395637e+00 -5.9063790571374272e-02
-1.0799999999999978e+01 +9.0389754227142660e+00 +0.0000000000000000e+00 -1.0799997759421947e+01 +1.1094038924762989e-02 -1.0341482211705451e+00 -5.9062198413338991e-02
-1.0899999999999977e+01 +9.0388633281605770e+00 +0.0000000000000000e+00 -1.0899997696595538e+01 +1.1093934416176402e-02 -1.0341514761388177e+00 -5.9060617217036940e-02
-1.0999999999999977e+01 +9.0387502001714761e+00 +0.0000000000000000e+00 -1.0999997632605362e+01 +1.1093833944467862e-02 -1.0341546453355623e+00 -5.9059047685028260e-02
-1.1099999999999977e+01 +9.0386360387438103e+00 +0.0000000000000000e+00 -1.1099997567440738e+01 +1.1093738246311973e-02 -1.0341577312526966e+00 -5.9057490519836275e-02
-1.1199999999999976e+01 +9.0385208438745064e+00 +0.0000000000000000e+00 -1.1199997501090982e+01 +1.1093648058021287e-02 -1.0341607363828915e+00 -5.9055946423946785e-02
-1.1299999999999976e+01 +9.0384046155605731e+00 +0.0000000000000000e+00 -1.1299997433545409e+01 +1.1093564115538640e-02 -1.0341636632195887e+00 -5.9054416099807550e-02
-1.1399999999999975e+01 +9.0382873537990989e+00 +0.0000000000000000e+00 -1.1399997364793336e+01 +1.1093487154429474e-02 -1.0341665142570149e+00 -5.9052900249827484e-02
-1.1499999999999975e+01 +9.0381690585872470e+00 +0.0000000000000000e+00 -1.1499997294824080e+01 +1.1093417909874177e-02 -1.0341692919902001e+00 -5.9051399576376153e-02
-1.1599999999999975e+01 +9.0380497299222533e+00 +0.0000000000000000e+00 -1.1599997223626959e+01 +1.1093356852672409e-02 -1.0341719990968588e+00 -5.9049914604338616e-02
-1.1699999999999974e+01 +9.0379293678014250e+00 +0.0000000000000000e+00 -1.1699997151191287e+01 +1.1093303397437139e-02 -1.0341746389831254e+00 -5.9048445148720208e-02
