# field on trajectory
# s[mm] rx[mm] ry[mm] rz[mm] bx[T] by[T] bz[T]
0.0000000000000000e+00 +9.1013000000000002e+00 +0.0000000000000000e+00 +0.0000000000000000e+00 +1.1072449337929053e-02 -1.0324667769037983e+00 -5.9188118535058745e-02
1.0000000000000001e-01 +9.1012994840780568e+00 +0.0000000000000000e+00 +9.9999999998225508e-02 +1.1072320113743501e-02 -1.0324686372083656e+00 -5.9188278820928371e-02
2.0000000000000001e-01 +9.1012979363109903e+00 +0.0000000000000000e+00 +1.9999999998580398e-01 +1.1072188807878179e-02 -1.0324704777400049e+00 -5.9188428844754559e-02
3.0000000000000004e-01 +9.1012953566969603e+00 +0.0000000000000000e+00 +2.9999999995208831e-01 +1.1072055779077182e-02 -1.0324722957931063e+00 -5.9188568738611273e-02
4.0000000000000002e-01 +9.1012917452341515e+00 +0.0000000000000000e+00 +3.9999999988643137e-01 +1.1071921386116797e-02 -1.0324740886614265e+00 -5.9188698634598171e-02
5.0000000000000000e-01 +9.1012871019207733e+00 +0.0000000000000000e+00 +4.9999999977818593e-01 +1.1071785987812173e-02 -1.0324758536380363e+00 -5.9188818664841845e-02
5.9999999999999998e-01 +9.1012814267550617e+00 +0.0000000000000000e+00 +5.9999999961670480e-01 +1.1071649911512528e-02 -1.0324775872792160e+00 -5.9188929000470951e-02
6.9999999999999996e-01 +9.1012747197352848e+00 +0.0000000000000000e+00 +6.9999999939134061e-01 +1.1071513358563564e-02 -1.0324792831963272e+00 -5.9189029968535325e-02
7.9999999999999993e-01 +9.1012669808597497e+00 +0.0000000000000000e+00 +7.9999999909144603e-01 +1.1071376498825249e-02 -1.0324809342640588e+00 -5.9189121935075868e-02
8.9999999999999991e-01 +9.1012582101268080e+00 +0.0000000000000000e+00 +8.9999999870637359e-01 +1.1071239502176195e-02 -1.0324825333565182e+00 -5.9189205266146419e-02
9.9999999999999989e-01 +9.1012484075348627e+00 +0.0000000000000000e+00 +9.9999999822547592e-01 +1.1071102538508612e-02 -1.0324840733472558e+00 -5.9189280327810255e-02
1.0999999999999999e+00 +9.1012375730823756e+00 +0.0000000000000000e+00 +1.0999999976381054e+00 +1.1070965777723252e-02 -1.0324855471092906e+00 -5.9189347486136558e-02
1.2000000000000000e+00 +9.1012257067678775e+00 +0.0000000000000000e+00 +1.1999999969336146e+00 +1.1070829389724379e-02 -1.0324869475151379e+00 -5.9189407107196945e-02
1.3000000000000000e+00 +9.1012128085899686e+00 +0.0000000000000000e+00 +1.2999999961013560e+00 +1.1070693544414702e-02 -1.0324882674368336e+00 -5.9189459557061959e-02
1.4000000000000001e+00 +9.1011988785473328e+00 +0.0000000000000000e+00 +1.3999999951306819e+00 +1.1070558411690324e-02 -1.0324894997459610e+00 -5.9189505201797471e-02
1.5000000000000002e+00 +9.1011839166387407e+00 +0.0000000000000000e+00 +1.4999999940109447e+00 +1.1070424161435720e-02 -1.0324906373136762e+00 -5.9189544407461318e-02
1.6000000000000003e+00 +9.1011679228630573e+00 +0.0000000000000000e+00 +1.5999999927314967e+00 +1.1070290963518657e-02 -1.0324916730107354e+00 -5.9189577540099778e-02
1.7000000000000004e+00 +9.1011508972192505e+00 +0.0000000000000000e+00 +1.6999999912816903e+00 +1.1070158987785161e-02 -1.0324925997075189e+00 -5.9189604965743964e-02
1.8000000000000005e+00 +9.1011328397063966e+00 +0.0000000000000000e+00 +1.7999999896508778e+00 +1.1070028404054463e-02 -1.0324934102740591e+00 -5.9189627050406382e-02
1.9000000000000006e+00 +9.1011137503236874e+00 +0.0000000000000000e+00 +1.8999999878284115e+00 +1.1069899382113942e-02 -1.0324940975800656e+00 -5.9189644160077472e-02
2.0000000000000004e+00 +9.1010936290704390e+00 +0.0000000000000000e+00 +1.9999999858036437e+00 +1.1069772091714086e-02 -1.0324946544949509e+00 -5.9189656660722033e-02
2.1000000000000005e+00 +9.1010724759460970e+00 +0.0000000000000000e+00 +2.0999999835659269e+00 +1.1069646702563439e-02 -1.0324950738878564e+00 -5.9189664918275750e-02
2.2000000000000006e+00 +9.1010502909502460e+00 +0.0000000000000000e+00 +2.1999999811046131e+00 +1.1069523384323534e-02 -1.0324953486276804e+00 -5.9189669298641709e-02
2.3000000000000007e+00 +9.1010270740826122e+00 +0.0000000000000000e+00 +2.2999999784090548e+00 +1.1069402306603854e-02 -1.0324954715831007e+00 -5.9189670167686823e-02
2.4000000000000008e+00 +9.1010028253430786e+00 +0.0000000000000000e+00 +2.3999999754686043e+00 +1.1069283638956791e-02 -1.0324954356226044e+00 -5.9189667891238452e-02
2.5000000000000009e+00 +9.1009775447316823e+00 +0.0000000000000000e+00 +2.4999999722726138e+00 +1.1069167550872554e-02 -1.0324952336145110e+00 -5.9189662835080765e-02
2.6000000000000010e+00 +9.1009512322486295e+00 +0.0000000000000000e+00 +2.5999999688104363e+00 +1.1069054115023515e-02 -1.0324948607364339e+00 -5.9189655394743919e-02
2.7000000000000011e+00 +9.1009238878942949e+00 +0.0000000000000000e+00 +2.6999999650714241e+00 +1.1068943017031483e-02 -1.0324943214037492e+00 -5.9189646084872836e-02
2.8000000000000012e+00 +9.1008955116692203e+00 +0.0000000000000000e+00 +2.7999999610449295e+00 +1.1068833845761005e-02 -1.0324936223415695e+00 -5.9189635449835361e-02
2.9000000000000012e+00 +9.1008661035741056e+00 +0.0000000000000000e+00 +2.8999999567203054e+00 +1.1068726190077859e-02 -1.0324927702754001e+00 -5.9189624033923027e-02
3.0000000000000013e+00 +9.1008356636098053e+00 +0.0000000000000000e+00 +2.9999999520869043e+00 +1.1068619638851005e-02 -1.0324917719312070e+00 -5.9189612381346089e-02
3.1000000000000014e+00 +9.1008041917773213e+00 +0.0000000000000000e+00 +3.0999999471340791e+00 +1.1068513780954466e-02 -1.0324906340354745e+00 -5.9189601036228362e-02
3.2000000000000015e+00 +9.1007716880777920e+00 +0.0000000000000000e+00 +3.1999999418511829e+00 +1.1068408205269307e-02 -1.0324893633152765e+00 -5.9189590542602095e-02
3.3000000000000016e+00 +9.1007381525124913e+00 +0.0000000000000000e+00 +3.2999999362275685e+00 +1.1068302500685483e-02 -1.0324879664983355e+00 -5.9189581444402978e-02
3.4000000000000017e+00 +9.1007035850828171e+00 +0.0000000000000000e+00 +3.3999999302525885e+00 +1.1068196256103819e-02 -1.0324864503130899e+00 -5.9189574285464966e-02
3.5000000000000018e+00 +9.1006679857902881e+00 +0.0000000000000000e+00 +3.4999999239155963e+00 +1.1068089060437891e-02 -1.0324848214887545e+00 -5.9189569609515130e-02
3.6000000000000019e+00 +9.1006313546365352e+00 +0.0000000000000000e+00 +3.5999999172059454e+00 +1.1067980502615963e-02 -1.0324830867553887e+00 -5.9189567960168644e-02
3.7000000000000020e+00 +9.1005936916232955e+00 +0.0000000000000000e+00 +3.6999999101129886e+00 +1.1067870171582927e-02 -1.0324812528439578e+00 -5.9189569880923713e-02
3.8000000000000020e+00 +9.1005549967524058e+00 +0.0000000000000000e+00 +3.7999999026260793e+00 +1.1067757656302192e-02 -1.0324793264863970e+00 -5.9189575915156278e-02
3.9000000000000021e+00 +9.1005152700257952e+00 +0.0000000000000000e+00 +3.8999998947345715e+00 +1.1067642545757617e-02 -1.0324773144156776e+00 -5.9189586606115133e-02
4.0000000000000018e+00 +9.1004745114454764e+00 +0.0000000000000000e+00 +3.9999998864278181e+00 +1.1067524428955460e-02 -1.0324752233658681e+00 -5.9189602496916682e-02
4.1000000000000014e+00 +9.1004327210135454e+00 +0.0000000000000000e+00 +4.0999998776951729e+00 +1.1067402894926278e-02 -1.0324730600722012e+00 -5.9189624130539895e-02
4.2000000000000011e+00 +9.1003898987321659e+00 +0.0000000000000000e+00 +4.1999998685259898e+00 +1.1067277532726847e-02 -1.0324708312711368e+00 -5.9189652049821156e-02
4.3000000000000007e+00 +9.1003460446035707e+00 +0.0000000000000000e+00 +4.2999998589096231e+00 +1.1067147931442112e-02 -1.0324685437004235e+00 -5.9189686797449174e-02
4.4000000000000004e+00 +9.1003011586300495e+00 +0.0000000000000000e+00 +4.3999998488354262e+00 +1.1067013680187102e-02 -1.0324662040991677e+00 -5.9189728915959881e-02
4.5000000000000000e+00 +9.1002552408139454e+00 +0.0000000000000000e+00 +4.4999998382927524e+00 +1.1066874368108862e-02 -1.0324638192078928e+00 -5.9189778947731288e-02
4.5999999999999996e+00 +9.1002082911576458e+00 +0.0000000000000000e+00 +4.5999998272709570e+00 +1.1066729804838417e-02 -1.0324613951884400e+00 -5.9189837057951722e-02
4.6999999999999993e+00 +9.1001603096635773e+00 +0.0000000000000000e+00 +4.6999998157593943e+00 +1.1066580681846705e-02 -1.0324589358827920e+00 -5.9189901903644510e-02
4.7999999999999989e+00 +9.1001112963342035e+00 +0.0000000000000000e+00 +4.7999998037474176e+00 +1.1066427911093335e-02 -1.0324564445523006e+00 -5.9189971764959624e-02
4.8999999999999986e+00 +9.1000612511720185e+00 +0.0000000000000000e+00 +4.8999997912243822e+00 +1.1066272404576093e-02 -1.0324539244576292e+00 -5.9190044922246200e-02
4.9999999999999982e+00 +9.1000101741795465e+00 +0.0000000000000000e+00 +4.9999997781796424e+00 +1.1066115074332816e-02 -1.0324513788586940e+00 -5.9190119656066159e-02
5.0999999999999979e+00 +9.0999580653593366e+00 +0.0000000000000000e+00 +5.0999997646025523e+00 +1.1065956832443203e-02 -1.0324488110146159e+00 -5.9190194247208193e-02
5.1999999999999975e+00 +9.0999049247139610e+00 +0.0000000000000000e+00 +5.1999997504824664e+00 +1.1065798591030669e-02 -1.0324462241836587e+00 -5.9190266976701392e-02
5.2999999999999972e+00 +9.0998507522460095e+00 +0.0000000000000000e+00 +5.2999997358087407e+00 +1.1065641262264182e-02 -1.0324436216231825e+00 -5.9190336125829114e-02
5.3999999999999968e+00 +9.0997955479580881e+00 +0.0000000000000000e+00 +5.3999997205707286e+00 +1.1065485758360076e-02 -1.0324410065895826e+00 -5.9190399976142741e-02
5.4999999999999964e+00 +9.0997393118528169e+00 +0.0000000000000000e+00 +5.4999997047577862e+00 +1.1065332991583928e-02 -1.0324383823382401e+00 -5.9190456809475510e-02
5.5999999999999961e+00 +9.0996820439328232e+00 +0.0000000000000000e+00 +5.5999996883592678e+00 +1.1065183874252340e-02 -1.0324357521234657e+00 -5.9190504907956264e-02
5.6999999999999957e+00 +9.0996237442007413e+00 +0.0000000000000000e+00 +5.6999996713645285e+00 +1.1065039318734806e-02 -1.0324331191984442e+00 -5.9190542554023284e-02
5.7999999999999954e+00 +9.0995644126592090e+00 +0.0000000000000000e+00 +5.7999996537629244e+00 +1.1064900237455542e-02 -1.0324304868151839e+00 -5.9190568030438137e-02
5.8999999999999950e+00 +9.0995040493108643e+00 +0.0000000000000000e+00 +5.8999996355438098e+00 +1.1064767542895289e-02 -1.0324278582244577e+00 -5.9190579620299388e-02
5.9999999999999947e+00 +9.0994426541583397e+00 +0.0000000000000000e+00 +5.9999996166965408e+00 +1.1064642147593165e-02 -1.0324252366757518e+00 -5.9190575607056463e-02
6.0999999999999943e+00 +9.0993802272042608e+00 +0.0000000000000000e+00 +6.0999995972104726e+00 +1.1064524964148486e-02 -1.0324226254172100e+00 -5.9190554274523431e-02
6.1999999999999940e+00 +9.0993167684512439e+00 +0.0000000000000000e+00 +6.1999995770749603e+00 +1.1064416905222581e-02 -1.0324200276955813e+00 -5.9190513906892922e-02
6.2999999999999936e+00 +9.0992522779018916e+00 +0.0000000000000000e+00 +6.2999995562793600e+00 +1.1064318883540633e-02 -1.0324174467561622e+00 -5.9190452788749751e-02
6.3999999999999932e+00 +9.0991867555587902e+00 +0.0000000000000000e+00 +6.3999995348130270e+00 +1.1064231811893494e-02 -1.0324148858427462e+00 -5.9190369205084997e-02
6.4999999999999929e+00 +9.0991202014245065e+00 +0.0000000000000000e+00 +6.4999995126653172e+00 +1.1064156603139490e-02 -1.0324123481975656e+00 -5.9190261441309559e-02
6.5999999999999925e+00 +9.0990526155015825e+00 +0.0000000000000000e+00 +6.5999994898255858e+00 +1.1064093808055411e-02 -1.0324098356907301e+00 -5.9190128179703448e-02
6.6999999999999922e+00 +9.0989839977925353e+00 +0.0000000000000000e+00 +6.6999994662831899e+00 +1.1064042528813491e-02 -1.0324073447097621e+00 -5.9189969688551759e-02
6.7999999999999918e+00 +9.0989143482998642e+00 +0.0000000000000000e+00 +6.7999994420274845e+00 +1.1064001505354384e-02 -1.0324048702732673e+00 -5.9189786632469397e-02
6.8999999999999915e+00 +9.0988436670260491e+00 +0.0000000000000000e+00 +6.8999994170478258e+00 +1.1063969477532248e-02 -1.0324024074018630e+00 -5.9189579675894291e-02
6.9999999999999911e+00 +9.0987719539735608e+00 +0.0000000000000000e+00 +6.9999993913335699e+00 +1.1063945185110809e-02 -1.0323999511182558e+00 -5.9189349483077865e-02
7.0999999999999908e+00 +9.0986992091448595e+00 +0.0000000000000000e+00 +7.0999993648740727e+00 +1.1063927367759461e-02 -1.0323974964473228e+00 -5.9189096718075464e-02
7.1999999999999904e+00 +9.0986254325424092e+00 +0.0000000000000000e+00 +7.1999993376586904e+00 +1.1063914765049379e-02 -1.0323950384161953e+00 -5.9188822044736959e-02
7.2999999999999901e+00 +9.0985506241686736e+00 +0.0000000000000000e+00 +7.2999993096767790e+00 +1.1063906116449584e-02 -1.0323925720543374e+00 -5.9188526126697137e-02
7.3999999999999897e+00 +9.0984747840261253e+00 +0.0000000000000000e+00 +7.3999992809176955e+00 +1.1063900161323085e-02 -1.0323900923936269e+00 -5.9188209627366227e-02
7.4999999999999893e+00 +9.0983979121172514e+00 +0.0000000000000000e+00 +7.4999992513707960e+00 +1.1063895638922946e-02 -1.0323875944684384e+00 -5.9187873209920347e-02
7.5999999999999890e+00 +9.0983200084445564e+00 +0.0000000000000000e+00 +7.5999992210254366e+00 +1.1063891288388398e-02 -1.0323850733157223e+00 -5.9187517537292039e-02
7.6999999999999886e+00 +9.0982410730105698e+00 +0.0000000000000000e+00 +7.6999991898709741e+00 +1.1063885848740965e-02 -1.0323825239750879e+00 -5.9187143272160743e-02
7.7999999999999883e+00 +9.0981611058178480e+00 +0.0000000000000000e+00 +7.7999991578967656e+00 +1.1063878058880554e-02 -1.0323799414888821e+00 -5.9186751076943135e-02
7.8999999999999879e+00 +9.0980801068689807e+00 +0.0000000000000000e+00 +7.8999991250921680e+00 +1.1063866657581554e-02 -1.0323773209022729e+00 -5.9186341613783860e-02
7.9999999999999876e+00 +9.0979980761665953e+00 +0.0000000000000000e+00 +7.9999990914465382e+00 +1.1063850383488982e-02 -1.0323746572633299e+00 -5.9185915544545775e-02
8.0999999999999872e+00 +9.0979150137133633e+00 +0.0000000000000000e+00 +8.0999990569492333e+00 +1.1063827975114569e-02 -1.0323719456231029e+00 -5.9185473530800552e-02
8.1999999999999869e+00 +9.0978309195120044e+00 +0.0000000000000000e+00 +8.1999990215896101e+00 +1.1063798170832894e-02 -1.0323691810357083e+00 -5.9185016233819082e-02
8.2999999999999865e+00 +9.0977457935652915e+00 +0.0000000000000000e+00 +8.2999989853570266e+00 +1.1063759708877487e-02 -1.0323663585584044e+00 -5.9184544314562007e-02
8.3999999999999861e+00 +9.0976596358760524e+00 +0.0000000000000000e+00 +8.3999989482408388e+00 +1.1063711327336972e-02 -1.0323634732516771e+00 -5.9184058433670125e-02
8.4999999999999858e+00 +9.0975724464471828e+00 +0.0000000000000000e+00 +8.4999989102304063e+00 +1.1063651764151179e-02 -1.0323605201793191e+00 -5.9183559251454895e-02
8.5999999999999854e+00 +9.0974842252816419e+00 +0.0000000000000000e+00 +8.5999988713150852e+00 +1.1063580148607043e-02 -1.0323574959316471e+00 -5.9183047402275868e-02
8.6999999999999851e+00 +9.0973949723824621e+00 +0.0000000000000000e+00 +8.6999988314842334e+00 +1.1063497175955056e-02 -1.0323544031937402e+00 -5.9182523417816331e-02
8.7999999999999847e+00 +9.0973046877527430e+00 +0.0000000000000000e+00 +8.7999987907272104e+00 +1.1063403933005101e-02 -1.0323512461734197e+00 -5.9181987804142466e-02
8.8999999999999844e+00 +9.0972133713956502e+00 +0.0000000000000000e+00 +8.8999987490333723e+00 +1.1063301506620318e-02 -1.0323480290776097e+00 -5.9181441067350953e-02
8.9999999999999840e+00 +9.0971210233144060e+00 +0.0000000000000000e+00 +8.9999987063920788e+00 +1.1063190983719242e-02 -1.0323447561122974e+00 -5.9180883713570553e-02
9.0999999999999837e+00 +9.0970276435122930e+00 +0.0000000000000000e+00 +9.0999986627926877e+00 +1.1063073451277893e-02 -1.0323414314824824e+00 -5.9180316248963534e-02
9.1999999999999833e+00 +9.0969332319926419e+00 +0.0000000000000000e+00 +9.1999986182245586e+00 +1.1062949996331875e-02 -1.0323380593921363e+00 -5.9179739179727249e-02
9.2999999999999829e+00 +9.0968377887588332e+00 +0.0000000000000000e+00 +9.2999985726770511e+00 +1.1062821705978498e-02 -1.0323346440441550e+00 -5.9179153012095718e-02
9.3999999999999826e+00 +9.0967413138142899e+00 +0.0000000000000000e+00 +9.3999985261395214e+00 +1.1062689667378875e-02 -1.0323311896403158e+00 -5.9178558252341050e-02
9.4999999999999822e+00 +9.0966438071624740e+00 +0.0000000000000000e+00 +9.4999984786013307e+00 +1.1062554967760001e-02 -1.0323277003812312e+00 -5.9177955406775076e-02
9.5999999999999819e+00 +9.0965452688068833e+00 +0.0000000000000000e+00 +9.5999984300518371e+00 +1.1062418694416912e-02 -1.0323241804663037e+00 -5.9177344981750792e-02
9.6999999999999815e+00 +9.0964456987510456e+00 +0.0000000000000000e+00 +9.6999983804804017e+00 +1.1062281934714702e-02 -1.0323206340936837e+00 -5.9176727483663948e-02
9.7999999999999812e+00 +9.0963450969985153e+00 +0.0000000000000000e+00 +9.7999983298763826e+00 +1.1062145776090677e-02 -1.0323170654602205e+00 -5.9176103418954538e-02
9.8999999999999808e+00 +9.0962434635528684e+00 +0.0000000000000000e+00 +9.8999982782291394e+00 +1.1062011306056413e-02 -1.0323134787614201e+00 -5.9175473294108383e-02
9.9999999999999805e+00 +9.0961407984177001e+00 +0.0000000000000000e+00 +9.9999982255280315e+00 +1.1061879612199879e-02 -1.0323098781914002e+00 -5.9174837615658581e-02
1.0099999999999980e+01 +9.0960371015966199e+00 +0.0000000000000000e+00 +1.0099998171762421e+01 +1.1061751782187478e-02 -1.0323062679428434e+00 -5.9174196890187013e-02
1.0199999999999980e+01 +9.0959323730932464e+00 +0.0000000000000000e+00 +1.0199998116921664e+01 +1.1061628903766170e-02 -1.0323026522069543e+00 -5.9173551624325985e-02
1.0299999999999979e+01 +9.0958266129112051e+00 +0.0000000000000000e+00 +1.0299998060995124e+01 +1.1061512064765548e-02 -1.0322990351734134e+00 -5.9172902324759649e-02
1.0399999999999979e+01 +9.0957198210541197e+00 +0.0000000000000000e+00 +1.0399998003972161e+01 +1.1061402353099896e-02 -1.0322954210303317e+00 -5.9172249498225582e-02
1.0499999999999979e+01 +9.0956119975256140e+00 +0.0000000000000000e+00 +1.0499997945842134e+01 +1.1061300856770286e-02 -1.0322918139642077e+00 -5.9171593651516224e-02
1.0599999999999978e+01 +9.0955031423293047e+00 +0.0000000000000000e+00 +1.0599997886594403e+01 +1.1061208337206242e-02 -1.0322882181116768e+00 -5.9170935070269631e-02
1.0699999999999978e+01 +9.0953932554687960e+00 +0.0000000000000000e+00 +1.0699997826218331e+01 +1.1061124249141952e-02 -1.0322846374150350e+00 -5.9170273155198232e-02
1.0799999999999978e+01 +9.0952823369476778e+00 +0.0000000000000000e+00 +1.0799997764703276e+01 +1.1061047720525567e-02 -1.0322810757671281e+00 -5.9169607085597237e-02
1.0899999999999977e+01 +9.0951703867695208e+00 +0.0000000000000000e+00 +1.0899997702038601e+01 +1.1060977879201682e-02 -1.0322775370595771e+00 -5.9168936040557202e-02
1.0999999999999977e+01 +9.0950574049378741e+00 +0.0000000000000000e+00 +1.0999997638213665e+01 +1.1060913852908989e-02 -1.0322740251827449e+00 -5.9168259198959613e-02
1.1099999999999977e+01 +9.0949433914562583e+00 +0.0000000000000000e+00 +1.1099997573217831e+01 +1.1060854769277846e-02 -1.0322705440257021e+00 -5.9167575739472358e-02
1.1199999999999976e+01 +9.0948283463281641e+00 +0.0000000000000000e+00 +1.1199997507040457e+01 +1.1060799755827980e-02 -1.0322670974761974e+00 -5.9166884840545352e-02
1.1299999999999976e+01 +9.0947122695570499e+00 +0.0000000000000000e+00 +1.1299997439670907e+01 +1.1060747939966035e-02 -1.0322636894206259e+00 -5.9166185680405992e-02
1.1399999999999975e+01 +9.0945951611463318e+00 +0.0000000000000000e+00 +1.1399997371098541e+01 +1.1060698448983266e-02 -1.0322603237439942e+00 -5.9165477437054845e-02
1.1499999999999975e+01 +9.0944770210993866e+00 +0.0000000000000000e+00 +1.1499997301312719e+01 +1.1060650410053136e-02 -1.0322570043298915e+00 -5.9164759288261121e-02
1.1599999999999975e+01 +9.0943578494195432e+00 +0.0000000000000000e+00 +1.1599997230302804e+01 +1.1060602950228961e-02 -1.0322537350604555e+00 -5.9164030411558266e-02
1.1699999999999974e+01 +9.0942376461100807e+00 +0.0000000000000000e+00 +1.1699997158058157e+01 +1.1060555196441548e-02 -1.0322505198163408e+00 -5.9163289984239482e-02
1.1799999999999974e+01 +9.0941164111742250e+00 +0.0000000000000000e+00 +1.1799997084568139e+01 +1.1060506275496807e-02 -1.0322473624766868e+00 -5.9162537183353396e-02
