# trajectory
# s[mm] rx[mm] ry[mm] rz[mm] px[rad] py[rad] pz[rad]
0.0000000000000000e+00 +9.0449999999999999e+00 +0.0000000000000000e+00 +0.0000000000000000e+00 +0.0000000000000000e+00 +0.0000000000000000e+00 +1.0000000000000000e+00
-1.0000000000000001e-01 +9.0449994830563600e+00 +0.0000000000000000e+00 -9.9999999998218458e-02 +1.0338872519361894e-05 +0.0000000000000000e+00 +9.9999999994655386e-01
-2.0000000000000001e-01 +9.0449979322255523e+00 +0.0000000000000000e+00 -1.9999999998574769e-01 +2.0677743384303447e-05 +0.0000000000000000e+00 +9.9999999978621545e-01
-3.0000000000000004e-01 +9.0449953475077347e+00 +0.0000000000000000e+00 -2.9999999995189847e-01 +3.1016612700268162e-05 +0.0000000000000000e+00 +9.9999999951898488e-01
-4.0000000000000002e-01 +9.0449917289030601e+00 +0.0000000000000000e+00 -3.9999999988598156e-01 +4.1355480571387392e-05 +0.0000000000000000e+00 +9.9999999914486215e-01
-5.0000000000000000e-01 +9.0449870764116653e+00 +0.0000000000000000e+00 -4.9999999977730780e-01 +5.1694347100480834e-05 +0.0000000000000000e+00 +9.9999999866384726e-01
-5.9999999999999998e-01 +9.0449813900336817e+00 +0.0000000000000000e+00 -5.9999999961518791e-01 +6.2033212389057087e-05 +0.0000000000000000e+00 +9.9999999807594031e-01
-6.9999999999999996e-01 +9.0449746697692266e+00 +0.0000000000000000e+00 -6.9999999938893276e-01 +7.2372076537314278e-05 +0.0000000000000000e+00 +9.9999999738114131e-01
-7.9999999999999993e-01 +9.0449669156184100e+00 +0.0000000000000000e+00 -7.9999999908785313e-01 +8.2710939644140761e-05 +0.0000000000000000e+00 +9.9999999657945027e-01
-8.9999999999999991e-01 +9.0449581275813298e+00 +0.0000000000000000e+00 -8.9999999870125980e-01 +9.3049801807115883e-05 +0.0000000000000000e+00 +9.9999999567086717e-01
-9.9999999999999989e-01 +9.0449483056580764e+00 +0.0000000000000000e+00 -9.9999999821846353e-01 +1.0338866312251082e-04 +0.0000000000000000e+00 +9.9999999465539213e-01
-1.0999999999999999e+00 +9.0449374498487298e+00 +0.0000000000000000e+00 -1.0999999976287751e+00 +1.1372752368528949e-04 +0.0000000000000000e+00 +9.9999999353302516e-01
-1.2000000000000000e+00 +9.0449255601533611e+00 +0.0000000000000000e+00 -1.1999999969215054e+00 +1.2406638358910949e-04 +0.0000000000000000e+00 +9.9999999230376624e-01
-1.3000000000000000e+00 +9.0449126365720307e+00 +0.0000000000000000e+00 -1.2999999960859652e+00 +1.3440524292632317e-04 +0.0000000000000000e+00 +9.9999999096761538e-01
-1.4000000000000001e+00 +9.0448986791047918e+00 +0.0000000000000000e+00 -1.3999999951114652e+00 +1.4474410178797869e-04 +0.0000000000000000e+00 +9.9999998952457247e-01
-1.5000000000000002e+00 +9.0448836877516872e+00 +0.0000000000000000e+00 -1.4999999939873165e+00 +1.5508296026382128e-04 +0.0000000000000000e+00 +9.9999998797463763e-01
-1.6000000000000003e+00 +9.0448676625127504e+00 +0.0000000000000000e+00 -1.5999999927028297e+00 +1.6542181844229434e-04 +0.0000000000000000e+00 +9.9999998631781084e-01
-1.7000000000000004e+00 +9.0448506033880065e+00 +0.0000000000000000e+00 -1.6999999912473156e+00 +1.7576067641054090e-04 +0.0000000000000000e+00 +9.9999998455409211e-01
-1.8000000000000005e+00 +9.0448325103774732e+00 +0.0000000000000000e+00 -1.7999999896100851e+00 +1.8609953425440488e-04 +0.0000000000000000e+00 +9.9999998268348145e-01
-1.9000000000000006e+00 +9.0448133834811575e+00 +0.0000000000000000e+00 -1.8999999877804490e+00 +1.9643839205843263e-04 +0.0000000000000000e+00 +9.9999998070597884e-01
-2.0000000000000004e+00 +9.0447932226990595e+00 +0.0000000000000000e+00 -1.9999999857477180e+00 +2.0677724990587437e-04 +0.0000000000000000e+00 +9.9999997862158418e-01
-2.1000000000000005e+00 +9.0447720280311721e+00 +0.0000000000000000e+00 -2.0999999835012026e+00 +2.1711610787843668e-04 +0.0000000000000000e+00 +9.9999997643029748e-01
-2.2000000000000006e+00 +9.0447497994774775e+00 +0.0000000000000000e+00 -2.1999999810302144e+00 +2.2745496605354373e-04 +0.0000000000000000e+00 +9.9999997413211883e-01
-2.3000000000000007e+00 +9.0447265370379526e+00 +0.0000000000000000e+00 -2.2999999783240637e+00 +2.3779382450159724e-04 +0.0000000000000000e+00 +9.9999997172704802e-01
-2.4000000000000008e+00 +9.0447022407125655e+00 +0.0000000000000000e+00 -2.3999999753720611e+00 +2.4813268328572659e-04 +0.0000000000000000e+00 +9.9999996921508516e-01
-2.5000000000000009e+00 +9.0446769105012823e+00 +0.0000000000000000e+00 -2.4999999721635175e+00 +2.5847154246178792e-04 +0.0000000000000000e+00 +9.9999996659623025e-01
-2.6000000000000010e+00 +9.0446505464040587e+00 +0.0000000000000000e+00 -2.5999999686877442e+00 +2.6881040207836292e-04 +0.0000000000000000e+00 +9.9999996387048318e-01
-2.7000000000000011e+00 +9.0446231484208504e+00 +0.0000000000000000e+00 -2.6999999649340514e+00 +2.7914926217675754e-04 +0.0000000000000000e+00 +9.9999996103784394e-01
-2.8000000000000012e+00 +9.0445947165516056e+00 +0.0000000000000000e+00 -2.7999999608917499e+00 +2.8948812279100020e-04 +0.0000000000000000e+00 +9.9999995809831255e-01
-2.9000000000000012e+00 +9.0445652507962730e+00 +0.0000000000000000e+00 -2.8999999565501509e+00 +2.9982698394784036e-04 +0.0000000000000000e+00 +9.9999995505188888e-01
-3.0000000000000013e+00 +9.0445347511547975e+00 +0.0000000000000000e+00 -2.9999999518985647e+00 +3.1016584566674626e-04 +0.0000000000000000e+00 +9.9999995189857294e-01
-3.1000000000000014e+00 +9.0445032176271205e+00 +0.0000000000000000e+00 -3.0999999469263022e+00 +3.2050470795990283e-04 +0.0000000000000000e+00 +9.9999994863836472e-01
-3.2000000000000015e+00 +9.0444706502131851e+00 +0.0000000000000000e+00 -3.1999999416226745e+00 +3.3084357083220940e-04 +0.0000000000000000e+00 +9.9999994527126423e-01
-3.3000000000000016e+00 +9.0444370489129344e+00 +0.0000000000000000e+00 -3.2999999359769920e+00 +3.4118243428127711e-04 +0.0000000000000000e+00 +9.9999994179727147e-01
-3.4000000000000017e+00 +9.0444024137263099e+00 +0.0000000000000000e+00 -3.3999999299785655e+00 +3.5152129829742597e-04 +0.0000000000000000e+00 +9.9999993821638644e-01
-3.5000000000000018e+00 +9.0443667446532565e+00 +0.0000000000000000e+00 -3.4999999236167061e+00 +3.6186016286368210e-04 +0.0000000000000000e+00 +9.9999993452860902e-01
-3.6000000000000019e+00 +9.0443300416937191e+00 +0.0000000000000000e+00 -3.5999999168807242e+00 +3.7219902795577450e-04 +0.0000000000000000e+00 +9.9999993073393934e-01
-3.7000000000000020e+00 +9.0442923048476480e+00 +0.0000000000000000e+00 -3.6999999097599310e+00 +3.8253789354213158e-04 +0.0000000000000000e+00 +9.9999992683237726e-01
-3.8000000000000020e+00 +9.0442535341149952e+00 +0.0000000000000000e+00 -3.7999999022436368e+00 +3.9287675958387769e-04 +0.0000000000000000e+00 +9.9999992282392280e-01
-3.9000000000000021e+00 +9.0442137294957181e+00 +0.0000000000000000e+00 -3.8999998943211525e+00 +4.0321562603482929e-04 +0.0000000000000000e+00 +9.9999991870857607e-01
-4.0000000000000018e+00 +9.0441728909897776e+00 +0.0000000000000000e+00 -3.9999998859817887e+00 +4.1355449284149098e-04 +0.0000000000000000e+00 +9.9999991448633696e-01
-4.1000000000000014e+00 +9.0441310185971400e+00 +0.0000000000000000e+00 -4.0999998772148567e+00 +4.2389335994328503e-04 +0.0000000000000000e+00 +9.9999991015720557e-01
-4.2000000000000011e+00 +9.0440881123177803e+00 +0.0000000000000000e+00 -4.1999998680096668e+00 +4.3423222727511734e-04 +0.0000000000000000e+00 +9.9999990572118191e-01
-4.3000000000000007e+00 +9.0440441721516791e+00 +0.0000000000000000e+00 -4.2999998583555303e+00 +4.4457109476994612e-04 +0.0000000000000000e+00 +9.9999990117826587e-01
-4.4000000000000004e+00 +9.0439991980988239e+00 +0.0000000000000000e+00 -4.3999998482417571e+00 +4.5490996235901532e-04 +0.0000000000000000e+00 +9.9999989652845767e-01
-4.5000000000000000e+00 +9.0439531901592076e+00 +0.0000000000000000e+00 -4.4999998376576587e+00 +4.6524882997185484e-04 +0.0000000000000000e+00 +9.9999989177175719e-01
-4.5999999999999996e+00 +9.0439061483328320e+00 +0.0000000000000000e+00 -4.5999998265925459e+00 +4.7558769753628077e-04 +0.0000000000000000e+00 +9.9999988690816455e-01
-4.6999999999999993e+00 +9.0438580726197042e+00 +0.0000000000000000e+00 -4.6999998150357287e+00 +4.8592656497839563e-04 +0.0000000000000000e+00 +9.9999988193767975e-01
-4.7999999999999989e+00 +9.0438089630198419e+00 +0.0000000000000000e+00 -4.7999998029765187e+00 +4.9626543222258852e-04 +0.0000000000000000e+00 +9.9999987686030278e-01
-4.8999999999999986e+00 +9.0437588195332683e+00 +0.0000000000000000e+00 -4.8999997904042267e+00 +5.0660429919153593e-04 +0.0000000000000000e+00 +9.9999987167603377e-01
-4.9999999999999982e+00 +9.0437076421600153e+00 +0.0000000000000000e+00 -4.9999997773081626e+00 +5.1694316580620184e-04 +0.0000000000000000e+00 +9.9999986638487270e-01
-5.0999999999999979e+00 +9.0436554309001220e+00 +0.0000000000000000e+00 -5.0999997636776380e+00 +5.2728203198583858e-04 +0.0000000000000000e+00 +9.9999986098681970e-01
-5.1999999999999975e+00 +9.0436021857536364e+00 +0.0000000000000000e+00 -5.1999997495019636e+00 +5.3762089764798724e-04 +0.0000000000000000e+00 +9.9999985548187476e-01
-5.2999999999999972e+00 +9.0435479067206135e+00 +0.0000000000000000e+00 -5.2999997347704504e+00 +5.4795976270847861e-04 +0.0000000000000000e+00 +9.9999984987003798e-01
-5.3999999999999968e+00 +9.0434925938011173e+00 +0.0000000000000000e+00 -5.3999997194724081e+00 +5.5829862708143380e-04 +0.0000000000000000e+00 +9.9999984415130938e-01
-5.4999999999999964e+00 +9.0434362469952223e+00 +0.0000000000000000e+00 -5.4999997035971484e+00 +5.6863749067926522e-04 +0.0000000000000000e+00 +9.9999983832568906e-01
-5.5999999999999961e+00 +9.0433788663030104e+00 +0.0000000000000000e+00 -5.5999996871339821e+00 +5.7897635341267741e-04 +0.0000000000000000e+00 +9.9999983239317713e-01
-5.6999999999999957e+00 +9.0433204517245720e+00 +0.0000000000000000e+00 -5.6999996700722200e+00 +5.8931521519066821e-04 +0.0000000000000000e+00 +9.9999982635377360e-01
-5.7999999999999954e+00 +9.0432610032600067e+00 +0.0000000000000000e+00 -5.7999996524011737e+00 +5.9965407592052977e-04 +0.0000000000000000e+00 +9.9999982020747857e-01
-5.8999999999999950e+00 +9.0432005209094246e+00 +0.0000000000000000e+00 -5.8999996341101530e+00 +6.0999293550784964e-04 +0.0000000000000000e+00 +9.9999981395429216e-01
-5.9999999999999947e+00 +9.0431390046729465e+00 +0.0000000000000000e+00 -5.9999996151884689e+00 +6.2033179385651222e-04 +0.0000000000000000e+00 +9.9999980759421436e-01
-6.0999999999999943e+00 +9.0430764545506985e+00 +0.0000000000000000e+00 -6.0999995956254329e+00 +6.3067065086885063e-04 +0.0000000000000000e+00 +9.9999980112724540e-01
-6.1999999999999940e+00 +9.0430128705428210e+00 +0.0000000000000000e+00 -6.1999995754103550e+00 +6.4100950644730879e-04 +0.0000000000000000e+00 +9.9999979455338528e-01
-6.2999999999999936e+00 +9.0429482526494613e+00 +0.0000000000000000e+00 -6.2999995545325467e+00 +6.5134836049610372e-04 +0.0000000000000000e+00 +9.9999978787263422e-01
-6.3999999999999932e+00 +9.0428826008707759e+00 +0.0000000000000000e+00 -6.3999995329813189e+00 +6.6168721292137974e-04 +0.0000000000000000e+00 +9.9999978108499221e-01
-6.4999999999999929e+00 +9.0428159152069334e+00 +0.0000000000000000e+00 -6.4999995107459823e+00 +6.7202606363121222e-04 +0.0000000000000000e+00 +9.9999977419045949e-01
-6.5999999999999925e+00 +9.0427481956581097e+00 +0.0000000000000000e+00 -6.5999994878158477e+00 +6.8236491253561118e-04 +0.0000000000000000e+00 +9.9999976718903605e-01
-6.6999999999999922e+00 +9.0426794422244896e+00 +0.0000000000000000e+00 -6.6999994641802267e+00 +6.9270375954652477e-04 +0.0000000000000000e+00 +9.9999976008072200e-01
-6.7999999999999918e+00 +9.0426096549062667e+00 +0.0000000000000000e+00 -6.7999994398284294e+00 +7.0304260457784359e-04 +0.0000000000000000e+00 +9.9999975286551757e-01
-6.8999999999999915e+00 +9.0425388337036434e+00 +0.0000000000000000e+00 -6.8999994147497672e+00 +7.1338144754540473e-04 +0.0000000000000000e+00 +9.9999974554342286e-01
-6.9999999999999911e+00 +9.0424669786168295e+00 +0.0000000000000000e+00 -6.9999993889335510e+00 +7.2372028836699561e-04 +0.0000000000000000e+00 +9.9999973811443787e-01
-7.0999999999999908e+00 +9.0423940896460433e+00 +0.0000000000000000e+00 -7.0999993623690916e+00 +7.3405912696235893e-04 +0.0000000000000000e+00 +9.9999973057856284e-01
-7.1999999999999904e+00 +9.0423201667915123e+00 +0.0000000000000000e+00 -7.1999993350457006e+00 +7.4439796325319676e-04 +0.0000000000000000e+00 +9.9999972293579786e-01
-7.2999999999999901e+00 +9.0422452100534709e+00 +0.0000000000000000e+00 -7.2999993069526887e+00 +7.5473679716317541e-04 +0.0000000000000000e+00 +9.9999971518614306e-01
-7.3999999999999897e+00 +9.0421692194321608e+00 +0.0000000000000000e+00 -7.3999992780793669e+00 +7.6507562861793011e-04 +0.0000000000000000e+00 +9.9999970732959853e-01
-7.4999999999999893e+00 +9.0420921949278306e+00 +0.0000000000000000e+00 -7.4999992484150457e+00 +7.7541445754507029e-04 +0.0000000000000000e+00 +9.9999969936616440e-01
-7.5999999999999890e+00 +9.0420141365407378e+00 +0.0000000000000000e+00 -7.5999992179490370e+00 +7.8575328387418418e-04 +0.0000000000000000e+00 +9.9999969129584088e-01
-7.6999999999999886e+00 +9.0419350442711455e+00 +0.0000000000000000e+00 -7.6999991866706514e+00 +7.9609210753684454e-04 +0.0000000000000000e+00 +9.9999968311862808e-01
-7.7999999999999883e+00 +9.0418549181193217e+00 +0.0000000000000000e+00 -7.7999991545691998e+00 +8.0643092846661372e-04 +0.0000000000000000e+00 +9.9999967483452612e-01
-7.8999999999999879e+00 +9.0417737580855455e+00 +0.0000000000000000e+00 -7.8999991216339938e+00 +8.1676974659904958e-04 +0.0000000000000000e+00 +9.9999966644353511e-01
-7.9999999999999876e+00 +9.0416915641700975e+00 +0.0000000000000000e+00 -7.9999990878543441e+00 +8.2710856187171073e-04 +0.0000000000000000e+00 +9.9999965794565515e-01
-8.0999999999999872e+00 +9.0416083363732689e+00 +0.0000000000000000e+00 -8.0999990532195625e+00 +8.3744737422391960e-04 +0.0000000000000000e+00 +9.9999964934088648e-01
-8.1999999999999869e+00 +9.0415240746953529e+00 +0.0000000000000000e+00 -8.1999990177189588e+00 +8.4778618359409056e-04 +0.0000000000000000e+00 +9.9999964062922908e-01
-8.2999999999999865e+00 +9.0414387791366515e+00 +0.0000000000000000e+00 -8.2999989813418455e+00 +8.5812498991705342e-04 +0.0000000000000000e+00 +9.9999963181068330e-01
-8.3999999999999861e+00 +9.0413524496974738e+00 +0.0000000000000000e+00 -8.3999989440775327e+00 +8.6846379312380587e-04 +0.0000000000000000e+00 +9.9999962288524913e-01
-8.4999999999999858e+00 +9.0412650863781341e+00 +0.0000000000000000e+00 -8.4999989059153318e+00 +8.7880259314150903e-04 +0.0000000000000000e+00 +9.9999961385292679e-01
-8.5999999999999854e+00 +9.0411766891789540e+00 +0.0000000000000000e+00 -8.5999988668445546e+00 +8.8914138989348304e-04 +0.0000000000000000e+00 +9.9999960471371652e-01
-8.6999999999999851e+00 +9.0410872581002657e+00 +0.0000000000000000e+00 -8.6999988268545128e+00 +8.9948018329920234e-04 +0.0000000000000000e+00 +9.9999959546761841e-01
-8.7999999999999847e+00 +9.0409967931424084e+00 +0.0000000000000000e+00 -8.7999987859345161e+00 +9.0981897327429054e-04 +0.0000000000000000e+00 +9.9999958611463258e-01
-8.8999999999999844e+00 +9.0409052943057286e+00 +0.0000000000000000e+00 -8.8999987440738764e+00 +9.2015775973051570e-04 +0.0000000000000000e+00 +9.9999957665475925e-01
-8.9999999999999840e+00 +9.0408127615905833e+00 +0.0000000000000000e+00 -8.9999987012619052e+00 +9.3049654257578481e-04 +0.0000000000000000e+00 +9.9999956708799864e-01
-9.0999999999999837e+00 +9.0407191949973367e+00 +0.0000000000000000e+00 -9.0999986574879141e+00 +9.4083532171413851e-04 +0.0000000000000000e+00 +9.9999955741435098e-01
-9.1999999999999833e+00 +9.0406245945263670e+00 +0.0000000000000000e+00 -9.1999986127412132e+00 +9.5117409704574551e-04 +0.0000000000000000e+00 +9.9999954763381649e-01
-9.2999999999999829e+00 +9.0405289601780581e+00 +0.0000000000000000e+00 -9.2999985670111140e+00 +9.6151286846689690e-04 +0.0000000000000000e+00 +9.9999953774639527e-01
-9.3999999999999826e+00 +9.0404322919528077e+00 +0.0000000000000000e+00 -9.3999985202869283e+00 +9.7185163587000024e-04 +0.0000000000000000e+00 +9.9999952775208767e-01
-9.4999999999999822e+00 +9.0403345898510228e+00 +0.0000000000000000e+00 -9.4999984725579676e+00 +9.8219039914357320e-04 +0.0000000000000000e+00 +9.9999951765089379e-01
-9.5999999999999819e+00 +9.0402358538731207e+00 +0.0000000000000000e+00 -9.5999984238135436e+00 +9.9252915817223792e-04 +0.0000000000000000e+00 +9.9999950744281396e-01
-9.6999999999999815e+00 +9.0401360840195331e+00 +0.0000000000000000e+00 -9.6999983740429681e+00 +1.0028679128367139e-03 +0.0000000000000000e+00 +9.9999949712784841e-01
-9.7999999999999812e+00 +9.0400352802907022e+00 +0.0000000000000000e+00 -9.7999983232355508e+00 +1.0132066630138120e-03 +0.0000000000000000e+00 +9.9999948670599748e-01
-9.8999999999999808e+00 +9.0399334426870830e+00 +0.0000000000000000e+00 -9.8999982713806052e+00 +1.0235454085764275e-03 +0.0000000000000000e+00 +9.9999947617726126e-01
-9.9999999999999805e+00 +9.0398305712091442e+00 +0.0000000000000000e+00 -9.9999982184674412e+00 +1.0338841493935328e-03 +0.0000000000000000e+00 +9.9999946554164021e-01
-1.0099999999999980e+01 +9.0397266658573674e+00 +0.0000000000000000e+00 -1.0099998164485370e+01 +1.0442228853308803e-03 +0.0000000000000000e+00 +9.9999945479913444e-01
-1.0199999999999980e+01 +9.0396217266322463e+00 +0.0000000000000000e+00 -1.0199998109423705e+01 +1.0545616162587949e-03 +0.0000000000000000e+00 +9.9999944394974438e-01
-1.0299999999999979e+01 +9.0395157535342872e+00 +0.0000000000000000e+00 -1.0299998053271755e+01 +1.0649003420599734e-03 +0.0000000000000000e+00 +9.9999943299347016e-01
-1.0399999999999979e+01 +9.0394087465640087e+00 +0.0000000000000000e+00 -1.0399997996018834e+01 +1.0752390626301927e-03 +0.0000000000000000e+00 +9.9999942193031222e-01
-1.0499999999999979e+01 +9.0393007057219386e+00 +0.0000000000000000e+00 -1.0499997937654255e+01 +1.0855777778783111e-03 +0.0000000000000000e+00 +9.9999941076027066e-01
-1.0599999999999978e+01 +9.0391916310086131e+00 +0.0000000000000000e+00 -1.0599997878167327e+01 +1.0959164877262680e-03 +0.0000000000000000e+00 +9.9999939948334582e-01
-1.0699999999999978e+01 +9.0390815224245760e+00 +0.0000000000000000e+00 -1.0699997817547363e+01 +1.1062551921090843e-03 +0.0000000000000000e+00 +9.9999938809953792e-01
-1.0799999999999978e+01 +9.0389703799703760e+00 +0.0000000000000000e+00 -1.0799997755783673e+01 +1.1165938909748628e-03 +0.0000000000000000e+00 +9.9999937660884719e-01
-1.0899999999999977e+01 +9.0388582036465674e+00 +0.0000000000000000e+00 -1.0899997692865570e+01 +1.1269325842847891e-03 +0.0000000000000000e+00 +9.9999936501127384e-01
-1.0999999999999977e+01 +9.0387449934537063e+00 +0.0000000000000000e+00 -1.0999997628782365e+01 +1.1372712720131312e-03 +0.0000000000000000e+00 +9.9999935330681800e-01
-1.1099999999999977e+01 +9.0386307493923521e+00 +0.0000000000000000e+00 -1.1099997563523370e+01 +1.1476099541472403e-03 +0.0000000000000000e+00 +9.9999934149547998e-01
-1.1199999999999976e+01 +9.0385154714630644e+00 +0.0000000000000000e+00 -1.1199997497077899e+01 +1.1579486306875515e-03 +0.0000000000000000e+00 +9.9999932957725979e-01
-1.1299999999999976e+01 +9.0383991596664011e+00 +0.0000000000000000e+00 -1.1299997429435260e+01 +1.1682873016475837e-03 +0.0000000000000000e+00 +9.9999931755215776e-01
-1.1399999999999975e+01 +9.0382818140029197e+00 +0.0000000000000000e+00 -1.1399997360584768e+01 +1.1786259670539410e-03 +0.0000000000000000e+00 +9.9999930542017390e-01
-1.1499999999999975e+01 +9.0381634344731747e+00 +0.0000000000000000e+00 -1.1499997290515733e+01 +1.1889646269463124e-03 +0.0000000000000000e+00 +9.9999929318130831e-01
-1.1599999999999975e+01 +9.0380440210777131e+00 +0.0000000000000000e+00 -1.1599997219217467e+01 +1.1993032813774724e-03 +0.0000000000000000e+00 +9.9999928083556122e-01
-1.1699999999999974e+01 +9.0379235738170784e+00 +0.0000000000000000e+00 -1.1699997146679284e+01 +1.2096419304132822e-03 +0.0000000000000000e+00 +9.9999926838293263e-01
