# trajectory
# s[mm] rx[mm] ry[mm] rz[mm] px[rad] py[rad] pz[rad]
0.0000000000000000e+00 +9.1013000000000002e+00 +0.0000000000000000e+00 +0.0000000000000000e+00 +0.0000000000000000e+00 +0.0000000000000000e+00 +1.0000000000000000e+00
1.0000000000000001e-01 +9.1012994842985346e+00 +0.0000000000000000e+00 +9.9999999998227021e-02 -1.0314032735398825e-05 +0.0000000000000000e+00 +9.9999999994681033e-01
2.0000000000000001e-01 +9.1012979371927631e+00 +0.0000000000000000e+00 +1.9999999998581611e-01 -2.0628086172564106e-05 +0.0000000000000000e+00 +9.9999999978724097e-01
3.0000000000000004e-01 +9.1012953586805967e+00 +0.0000000000000000e+00 +2.9999999995212923e-01 -3.0942160684975420e-05 +0.0000000000000000e+00 +9.9999999952129126e-01
4.0000000000000002e-01 +9.1012917487599108e+00 +0.0000000000000000e+00 +3.9999999988652835e-01 -4.1256256641524058e-05 +0.0000000000000000e+00 +9.9999999914896054e-01
5.0000000000000000e-01 +9.1012871074285417e+00 +0.0000000000000000e+00 +4.9999999977837528e-01 -5.1570374406527289e-05 +0.0000000000000000e+00 +9.9999999867024814e-01
5.9999999999999998e-01 +9.1012814346842905e+00 +0.0000000000000000e+00 +5.9999999961703188e-01 -6.1884514338769620e-05 +0.0000000000000000e+00 +9.9999999808515339e-01
6.9999999999999996e-01 +9.1012747305249242e+00 +0.0000000000000000e+00 +6.9999999939185986e-01 -7.2198676780803195e-05 +0.0000000000000000e+00 +9.9999999739367551e-01
7.9999999999999993e-01 +9.1012669949481744e+00 +0.0000000000000000e+00 +7.9999999909222086e-01 -8.2512862048245164e-05 +0.0000000000000000e+00 +9.9999999659581373e-01
8.9999999999999991e-01 +9.1012582279517442e+00 +0.0000000000000000e+00 +8.9999999870747649e-01 -9.2827070428813468e-05 +0.0000000000000000e+00 +9.9999999569156739e-01
9.9999999999999989e-01 +9.1012484295333103e+00 +0.0000000000000000e+00 +9.9999999822698815e-01 -1.0314130218233517e-04 +0.0000000000000000e+00 +9.9999999468093581e-01
1.0999999999999999e+00 +9.1012375996905224e+00 +0.0000000000000000e+00 +1.0999999976401174e+00 -1.1345555754075334e-04 +0.0000000000000000e+00 +9.9999999356391811e-01
1.2000000000000000e+00 +9.1012257384210091e+00 +0.0000000000000000e+00 +1.1999999969362254e+00 -1.2376983670813260e-04 +0.0000000000000000e+00 +9.9999999234051362e-01
1.3000000000000000e+00 +9.1012128457223813e+00 +0.0000000000000000e+00 +1.2999999961046738e+00 -1.3408413986066312e-04 +0.0000000000000000e+00 +9.9999999101072157e-01
1.4000000000000001e+00 +9.1011989215922320e+00 +0.0000000000000000e+00 +1.3999999951348234e+00 -1.4439846714666316e-04 +0.0000000000000000e+00 +9.9999998957454117e-01
1.5000000000000002e+00 +9.1011839660281435e+00 +0.0000000000000000e+00 +1.4999999940160356e+00 -1.5471281868658033e-04 +0.0000000000000000e+00 +9.9999998803197165e-01
1.6000000000000003e+00 +9.1011679790276840e+00 +0.0000000000000000e+00 +1.5999999927376714e+00 -1.6502719457299128e-04 +0.0000000000000000e+00 +9.9999998638301224e-01
1.7000000000000004e+00 +9.1011509605884147e+00 +0.0000000000000000e+00 +1.6999999912890917e+00 -1.7534159487059991e-04 +0.0000000000000000e+00 +9.9999998462766226e-01
1.8000000000000005e+00 +9.1011329107078947e+00 +0.0000000000000000e+00 +1.7999999896596575e+00 -1.8565601961623428e-04 +0.0000000000000000e+00 +9.9999998276592084e-01
1.9000000000000006e+00 +9.1011138293836762e+00 +0.0000000000000000e+00 +1.8999999878387295e+00 -1.9597046881884199e-04 +0.0000000000000000e+00 +9.9999998079778729e-01
2.0000000000000004e+00 +9.1010937166133150e+00 +0.0000000000000000e+00 +1.9999999858156685e+00 -2.0628494245948417e-04 +0.0000000000000000e+00 +9.9999997872326085e-01
2.1000000000000005e+00 +9.1010725723943704e+00 +0.0000000000000000e+00 +2.0999999835798353e+00 -2.1659944049132797e-04 +0.0000000000000000e+00 +9.9999997654234074e-01
2.2000000000000006e+00 +9.1010503967244070e+00 +0.0000000000000000e+00 +2.1999999811205901e+00 -2.2691396283963764e-04 +0.0000000000000000e+00 +9.9999997425502618e-01
2.3000000000000007e+00 +9.1010271896009964e+00 +0.0000000000000000e+00 +2.2999999784272940e+00 -2.3722850940176421e-04 +0.0000000000000000e+00 +9.9999997186131651e-01
2.4000000000000008e+00 +9.1010029510217247e+00 +0.0000000000000000e+00 +2.3999999754893069e+00 -2.4754308004713366e-04 +0.0000000000000000e+00 +9.9999996936121105e-01
2.5000000000000009e+00 +9.1009776809841902e+00 +0.0000000000000000e+00 +2.4999999722959894e+00 -2.5785767461723377e-04 +0.0000000000000000e+00 +9.9999996675470904e-01
2.6000000000000010e+00 +9.1009513794860109e+00 +0.0000000000000000e+00 +2.5999999688367019e+00 -2.6817229292702818e-04 +0.0000000000000000e+00 +9.9999996404180980e-01
2.7000000000000011e+00 +9.1009240465248205e+00 +0.0000000000000000e+00 +2.6999999651008046e+00 -2.7848693478065982e-04 +0.0000000000000000e+00 +9.9999996122251267e-01
2.8000000000000012e+00 +9.1008956820982760e+00 +0.0000000000000000e+00 +2.7999999610776576e+00 -2.8880159998716308e-04 +0.0000000000000000e+00 +9.9999995829681687e-01
2.9000000000000012e+00 +9.1008662862040506e+00 +0.0000000000000000e+00 +2.8999999567566213e+00 -2.9911628836189208e-04 +0.0000000000000000e+00 +9.9999995526472185e-01
3.0000000000000013e+00 +9.1008358588398366e+00 +0.0000000000000000e+00 +2.9999999521270553e+00 -3.0943099972652121e-04 +0.0000000000000000e+00 +9.9999995212622694e-01
3.1000000000000014e+00 +9.1008044000033443e+00 +0.0000000000000000e+00 +3.0999999471783197e+00 -3.1974573390904548e-04 +0.0000000000000000e+00 +9.9999994888133137e-01
3.2000000000000015e+00 +9.1007719096923001e+00 +0.0000000000000000e+00 +3.1999999418997747e+00 -3.3006049074378125e-04 +0.0000000000000000e+00 +9.9999994553003457e-01
3.3000000000000016e+00 +9.1007383879044461e+00 +0.0000000000000000e+00 +3.2999999362807797e+00 -3.4037527007136709e-04 +0.0000000000000000e+00 +9.9999994207233589e-01
3.4000000000000017e+00 +9.1007038346375406e+00 +0.0000000000000000e+00 +3.3999999303106949e+00 -3.5069007173876507e-04 +0.0000000000000000e+00 +9.9999993850823465e-01
3.5000000000000018e+00 +9.1006682498893579e+00 +0.0000000000000000e+00 +3.4999999239788799e+00 -3.6100489559926185e-04 +0.0000000000000000e+00 +9.9999993483773031e-01
3.6000000000000019e+00 +9.1006316336576862e+00 +0.0000000000000000e+00 +3.5999999172746944e+00 -3.7131974151247046e-04 +0.0000000000000000e+00 +9.9999993106082219e-01
3.7000000000000020e+00 +9.1005939859403249e+00 +0.0000000000000000e+00 +3.6999999101874979e+00 -3.8163460934433199e-04 +0.0000000000000000e+00 +9.9999992717750963e-01
3.8000000000000020e+00 +9.1005553067350906e+00 +0.0000000000000000e+00 +3.7999999027066496e+00 -3.9194949896711757e-04 +0.0000000000000000e+00 +9.9999992318779196e-01
3.9000000000000021e+00 +9.1005155960398092e+00 +0.0000000000000000e+00 +3.8999998948215091e+00 -4.0226441025943059e-04 +0.0000000000000000e+00 +9.9999991909166863e-01
4.0000000000000018e+00 +9.1004748538523206e+00 +0.0000000000000000e+00 +3.9999998865214361e+00 -4.1257934310620913e-04 +0.0000000000000000e+00 +9.9999991488913897e-01
4.1000000000000014e+00 +9.1004330801704736e+00 +0.0000000000000000e+00 +4.0999998777957902e+00 -4.2289429739872863e-04 +0.0000000000000000e+00 +9.9999991058020243e-01
4.2000000000000011e+00 +9.1003902749921295e+00 +0.0000000000000000e+00 +4.1999998686339302e+00 -4.3320927303460468e-04 +0.0000000000000000e+00 +9.9999990616485834e-01
4.3000000000000007e+00 +9.1003464383151584e+00 +0.0000000000000000e+00 +4.2999998590252151e+00 -4.4352426991779617e-04 +0.0000000000000000e+00 +9.9999990164310604e-01
4.4000000000000004e+00 +9.1003015701374412e+00 +0.0000000000000000e+00 +4.3999998489590046e+00 -4.5383928795860850e-04 +0.0000000000000000e+00 +9.9999989701494496e-01
4.5000000000000000e+00 +9.1002556704568658e+00 +0.0000000000000000e+00 +4.4999998384246576e+00 -4.6415432707369711e-04 +0.0000000000000000e+00 +9.9999989228037445e-01
4.5999999999999996e+00 +9.1002087392713271e+00 +0.0000000000000000e+00 +4.5999998274115326e+00 -4.7446938718331247e-04 +0.0000000000000000e+00 +9.9999988743939394e-01
4.6999999999999993e+00 +9.1001607765787327e+00 +0.0000000000000000e+00 +4.6999998159089893e+00 -4.8478446818095661e-04 +0.0000000000000000e+00 +9.9999988249200278e-01
4.7999999999999989e+00 +9.1001117823770006e+00 +0.0000000000000000e+00 +4.7999998039063865e+00 -4.9509956990303485e-04 +0.0000000000000000e+00 +9.9999987743820040e-01
4.8999999999999986e+00 +9.1000617566640685e+00 +0.0000000000000000e+00 +4.8999997913930828e+00 -5.0541469212609280e-04 +0.0000000000000000e+00 +9.9999987227798626e-01
4.9999999999999982e+00 +9.1000106994379006e+00 +0.0000000000000000e+00 +4.9999997783584371e+00 -5.1572983456681174e-04 +0.0000000000000000e+00 +9.9999986701135990e-01
5.0999999999999979e+00 +9.0999586106964916e+00 +0.0000000000000000e+00 +5.0999997647918081e+00 -5.2604499688200363e-04 +0.0000000000000000e+00 +9.9999986163832089e-01
5.1999999999999975e+00 +9.0999054904378749e+00 +0.0000000000000000e+00 +5.1999997506825544e+00 -5.3636017866860589e-04 +0.0000000000000000e+00 +9.9999985615886888e-01
5.2999999999999972e+00 +9.0998513386601250e+00 +0.0000000000000000e+00 +5.2999997360200348e+00 -5.4667537946367602e-04 +0.0000000000000000e+00 +9.9999985057300345e-01
5.3999999999999968e+00 +9.0997961553613660e+00 +0.0000000000000000e+00 +5.3999997207936081e+00 -5.5699059874438626e-04 +0.0000000000000000e+00 +9.9999984488072424e-01
5.4999999999999964e+00 +9.0997399405397790e+00 +0.0000000000000000e+00 +5.4999997049926330e+00 -5.6730583592801739e-04 +0.0000000000000000e+00 +9.9999983908203116e-01
5.5999999999999961e+00 +9.0996826941936053e+00 +0.0000000000000000e+00 +5.5999996886064674e+00 -5.7762109037195271e-04 +0.0000000000000000e+00 +9.9999983317692387e-01
5.6999999999999957e+00 +9.0996244163211522e+00 +0.0000000000000000e+00 +5.6999996716244707e+00 -5.8793636137367182e-04 +0.0000000000000000e+00 +9.9999982716540237e-01
5.7999999999999954e+00 +9.0995651069208030e+00 +0.0000000000000000e+00 +5.7999996540360010e+00 -5.9825164817074402e-04 +0.0000000000000000e+00 +9.9999982104746654e-01
5.8999999999999950e+00 +9.0995047659910178e+00 +0.0000000000000000e+00 +5.8999996358304170e+00 -6.0856694994082148e-04 +0.0000000000000000e+00 +9.9999981482311640e-01
5.9999999999999947e+00 +9.0994433935303434e+00 +0.0000000000000000e+00 +5.9999996169970773e+00 -6.1888226580163218e-04 +0.0000000000000000e+00 +9.9999980849235204e-01
6.0999999999999943e+00 +9.0993809895374174e+00 +0.0000000000000000e+00 +6.0999995975253407e+00 -6.2919759481097279e-04 +0.0000000000000000e+00 +9.9999980205517358e-01
6.1999999999999940e+00 +9.0993175540109750e+00 +0.0000000000000000e+00 +6.1999995774045651e+00 -6.3951293596670113e-04 +0.0000000000000000e+00 +9.9999979551158125e-01
6.2999999999999936e+00 +9.0992530869498545e+00 +0.0000000000000000e+00 +6.2999995566241100e+00 -6.4982828820672831e-04 +0.0000000000000000e+00 +9.9999978886157537e-01
6.3999999999999932e+00 +9.0991875883530025e+00 +0.0000000000000000e+00 +6.3999995351733334e+00 -6.6014365040901102e-04 +0.0000000000000000e+00 +9.9999978210515639e-01
6.4999999999999929e+00 +9.0991210582194810e+00 +0.0000000000000000e+00 +6.4999995130415940e+00 -6.7045902139154304e-04 +0.0000000000000000e+00 +9.9999977524232475e-01
6.5999999999999925e+00 +9.0990534965484731e+00 +0.0000000000000000e+00 +6.5999994902182513e+00 -6.8077439991819804e-04 +0.0000000000000000e+00 +9.9999976827308101e-01
6.6999999999999922e+00 +9.0989849033392876e+00 +0.0000000000000000e+00 +6.6999994666926632e+00 -6.9108978476308544e-04 +0.0000000000000000e+00 +9.9999976119742584e-01
6.7999999999999918e+00 +9.0989152785913490e+00 +0.0000000000000000e+00 +6.7999994424541894e+00 -7.0140517477491817e-04 +0.0000000000000000e+00 +9.9999975401535979e-01
6.8999999999999915e+00 +9.0988446223041954e+00 +0.0000000000000000e+00 +6.8999994174921886e+00 -7.1172056888287667e-04 +0.0000000000000000e+00 +9.9999974672688352e-01
6.9999999999999911e+00 +9.0987729344774682e+00 +0.0000000000000000e+00 +6.9999993917960195e+00 -7.2203596609662164e-04 +0.0000000000000000e+00 +9.9999973933199748e-01
7.0999999999999908e+00 +9.0987002151109024e+00 +0.0000000000000000e+00 +7.0999993653550408e+00 -7.3235136550630839e-04 +0.0000000000000000e+00 +9.9999973183070234e-01
7.1999999999999904e+00 +9.0986264642043206e+00 +0.0000000000000000e+00 +7.1999993381586123e+00 -7.4266676628260075e-04 +0.0000000000000000e+00 +9.9999972422299865e-01
7.2999999999999901e+00 +9.0985516817576251e+00 +0.0000000000000000e+00 +7.2999993101960934e+00 -7.5298216767668603e-04 +0.0000000000000000e+00 +9.9999971650888697e-01
7.3999999999999897e+00 +9.0984758677707873e+00 +0.0000000000000000e+00 +7.3999992814568429e+00 -7.6329756902029098e-04 +0.0000000000000000e+00 +9.9999970868836774e-01
7.4999999999999893e+00 +9.0983990222438429e+00 +0.0000000000000000e+00 +7.4999992519302205e+00 -7.7361296972569701e-04 +0.0000000000000000e+00 +9.9999970076144140e-01
7.5999999999999890e+00 +9.0983211451768806e+00 +0.0000000000000000e+00 +7.5999992216055849e+00 -7.8392836928575761e-04 +0.0000000000000000e+00 +9.9999969272810829e-01
7.6999999999999886e+00 +9.0982422365700373e+00 +0.0000000000000000e+00 +7.6999991904722958e+00 -7.9424376727391490e-04 +0.0000000000000000e+00 +9.9999968458836896e-01
7.7999999999999883e+00 +9.0981622964234887e+00 +0.0000000000000000e+00 +7.7999991585197117e+00 -8.0455916334421743e-04 +0.0000000000000000e+00 +9.9999967634222364e-01
7.8999999999999879e+00 +9.0980813247374410e+00 +0.0000000000000000e+00 +7.8999991257371933e+00 -8.1487455723133881e-04 +0.0000000000000000e+00 +9.9999966798967255e-01
7.9999999999999876e+00 +9.0979993215121215e+00 +0.0000000000000000e+00 +7.9999990921140993e+00 -8.2518994875059593e-04 +0.0000000000000000e+00 +9.9999965953071590e-01
8.0999999999999872e+00 +9.0979162867477736e+00 +0.0000000000000000e+00 +8.0999990576397902e+00 -8.3550533779796869e-04 +0.0000000000000000e+00 +9.9999965096535393e-01
8.1999999999999869e+00 +9.0978322204446460e+00 +0.0000000000000000e+00 +8.1999990223036239e+00 -8.4582072435011976e-04 +0.0000000000000000e+00 +9.9999964229358673e-01
8.2999999999999865e+00 +9.0977471226029856e+00 +0.0000000000000000e+00 +8.2999989860949608e+00 -8.5613610846441526e-04 +0.0000000000000000e+00 +9.9999963351541432e-01
8.3999999999999861e+00 +9.0976609932230303e+00 +0.0000000000000000e+00 +8.3999989490031606e+00 -8.6645149027894555e-04 +0.0000000000000000e+00 +9.9999962463083658e-01
8.4999999999999858e+00 +9.0975738323049988e+00 +0.0000000000000000e+00 +8.4999989110175811e+00 -8.7676687001254677e-04 +0.0000000000000000e+00 +9.9999961563985351e-01
8.5999999999999854e+00 +9.0974856398490864e+00 +0.0000000000000000e+00 +8.5999988721275837e+00 -8.8708224795933609e-04 +0.0000000000000000e+00 +9.9999960654246478e-01
8.6999999999999851e+00 +9.0973964158554566e+00 +0.0000000000000000e+00 +8.6999988323225264e+00 -8.9739762442837140e-04 +0.0000000000000000e+00 +9.9999959733867028e-01
8.7999999999999847e+00 +9.0973061603242424e+00 +0.0000000000000000e+00 +8.7999987915917703e+00 -9.0771299968328773e-04 +0.0000000000000000e+00 +9.9999958802846978e-01
8.8999999999999844e+00 +9.0972148732555542e+00 +0.0000000000000000e+00 +8.8999987499246735e+00 -9.1802837393679460e-04 +0.0000000000000000e+00 +9.9999957861186306e-01
8.9999999999999840e+00 +9.0971225546494843e+00 +0.0000000000000000e+00 +8.9999987073105956e+00 -9.2834374735065899e-04 +0.0000000000000000e+00 +9.9999956908885002e-01
9.0999999999999837e+00 +9.0970292045061090e+00 +0.0000000000000000e+00 +9.0999986637388961e+00 -9.3865912003568799e-04 +0.0000000000000000e+00 +9.9999955945943064e-01
9.1999999999999833e+00 +9.0969348228254994e+00 +0.0000000000000000e+00 +9.1999986191989347e+00 -9.4897449205171068e-04 +0.0000000000000000e+00 +9.9999954972360483e-01
9.2999999999999829e+00 +9.0968394096077212e+00 +0.0000000000000000e+00 +9.2999985736800710e+00 -9.5928986340755975e-04 +0.0000000000000000e+00 +9.9999953988137258e-01
9.3999999999999826e+00 +9.0967429648528420e+00 +0.0000000000000000e+00 +9.3999985271716628e+00 -9.6960523406105224e-04 +0.0000000000000000e+00 +9.9999952993273400e-01
9.4999999999999822e+00 +9.0966454885609362e+00 +0.0000000000000000e+00 +9.4999984796630699e+00 -9.7992060391896975e-04 +0.0000000000000000e+00 +9.9999951987768920e-01
9.5999999999999819e+00 +9.0965469807320893e+00 +0.0000000000000000e+00 +9.5999984311436535e+00 -9.9023597283703869e-04 +0.0000000000000000e+00 +9.9999950971623830e-01
9.6999999999999815e+00 +9.0964474413664060e+00 +0.0000000000000000e+00 +9.6999983816027715e+00 -1.0005513406199085e-03 +0.0000000000000000e+00 +9.9999949944838151e-01
9.7999999999999812e+00 +9.0963468704640107e+00 +0.0000000000000000e+00 +9.7999983310297836e+00 -1.0108667070211309e-03 +0.0000000000000000e+00 +9.9999948907411917e-01
9.8999999999999808e+00 +9.0962452680250578e+00 +0.0000000000000000e+00 +9.8999982794140493e+00 -1.0211820717431382e-03 +0.0000000000000000e+00 +9.9999947859345162e-01
9.9999999999999805e+00 +9.0961426340497304e+00 +0.0000000000000000e+00 +9.9999982267449283e+00 -1.0314974344372196e-03 +0.0000000000000000e+00 +9.9999946800637929e-01
1.0099999999999980e+01 +9.0960389685382506e+00 +0.0000000000000000e+00 +1.0099998173011778e+01 -1.0418127947034997e-03 +0.0000000000000000e+00 +9.9999945731290252e-01
1.0199999999999980e+01 +9.0959342714908846e+00 +0.0000000000000000e+00 +1.0199998118203961e+01 -1.0521281520909130e-03 +0.0000000000000000e+00 +9.9999944651302197e-01
1.0299999999999979e+01 +9.0958285429079453e+00 +0.0000000000000000e+00 +1.0299998062310836e+01 -1.0624435060971810e-03 +0.0000000000000000e+00 +9.9999943560673832e-01
1.0399999999999979e+01 +9.0957217827897967e+00 +0.0000000000000000e+00 +1.0399998005321763e+01 -1.0727588561687870e-03 +0.0000000000000000e+00 +9.9999942459405211e-01
1.0499999999999979e+01 +9.0956139911368634e+00 +0.0000000000000000e+00 +1.0499997947226101e+01 -1.0830742017009505e-03 +0.0000000000000000e+00 +9.9999941347496424e-01
1.0599999999999978e+01 +9.0955051679496304e+00 +0.0000000000000000e+00 +1.0599997888013210e+01 -1.0933895420401263e-03 +0.0000000000000000e+00 +9.9999940224947548e-01
1.0699999999999978e+01 +9.0953953132286518e+00 +0.0000000000000000e+00 +1.0699997827672449e+01 -1.1037048765117617e-03 +0.0000000000000000e+00 +9.9999939091758672e-01
1.0799999999999978e+01 +9.0952844269745459e+00 +0.0000000000000000e+00 +1.0799997766193181e+01 -1.1140202044480727e-03 +0.0000000000000000e+00 +9.9999937947929896e-01
1.0899999999999977e+01 +9.0951725091880018e+00 +0.0000000000000000e+00 +1.0899997703564763e+01 -1.1243355251905781e-03 +0.0000000000000000e+00 +9.9999936793461308e-01
1.0999999999999977e+01 +9.0950595598697692e+00 +0.0000000000000000e+00 +1.0999997639776556e+01 -1.1346508380901089e-03 +0.0000000000000000e+00 +9.9999935628353009e-01
1.1099999999999977e+01 +9.0949455790206652e+00 +0.0000000000000000e+00 +1.1099997574817921e+01 -1.1449661425068170e-03 +0.0000000000000000e+00 +9.9999934452605088e-01
1.1199999999999976e+01 +9.0948305666415710e+00 +0.0000000000000000e+00 +1.1199997508678219e+01 -1.1552814378101852e-03 +0.0000000000000000e+00 +9.9999933266217655e-01
1.1299999999999976e+01 +9.0947145227334278e+00 +0.0000000000000000e+00 +1.1299997441346811e+01 -1.1655967233790371e-03 +0.0000000000000000e+00 +9.9999932069190800e-01
1.1399999999999975e+01 +9.0945974472972395e+00 +0.0000000000000000e+00 +1.1399997372813056e+01 -1.1759119986015471e-03 +0.0000000000000000e+00 +9.9999930861524622e-01
1.1499999999999975e+01 +9.0944793403340718e+00 +0.0000000000000000e+00 +1.1499997303066314e+01 -1.1862272628752506e-03 +0.0000000000000000e+00 +9.9999929643219232e-01
1.1599999999999975e+01 +9.0943602018450491e+00 +0.0000000000000000e+00 +1.1599997232095948e+01 -1.1965425156070550e-03 +0.0000000000000000e+00 +9.9999928414274741e-01
1.1699999999999974e+01 +9.0942400318313545e+00 +0.0000000000000000e+00 +1.1699997159891318e+01 -1.2068577562132506e-03 +0.0000000000000000e+00 +9.9999927174691239e-01
1.1799999999999974e+01 +9.0941188302942297e+00 +0.0000000000000000e+00 +1.1799997086441785e+01 -1.2171729841195221e-03 +0.0000000000000000e+00 +9.9999925924468847e-01
