# trajectory
# s[mm] rx[mm] ry[mm] rz[mm] px[rad] py[rad] pz[rad]
0.0000000000000000e+00 +9.1205999999999996e+00 +0.0000000000000000e+00 +0.0000000000000000e+00 +0.0000000000000000e+00 +0.0000000000000000e+00 +1.0000000000000000e+00
-1.0000000000000001e-01 +9.1205994834365072e+00 +0.0000000000000000e+00 -9.9999999998221095e-02 +1.0331264039662398e-05 +0.0000000000000000e+00 +9.9999999994663247e-01
-2.0000000000000001e-01 +9.1205979337483658e+00 +0.0000000000000000e+00 -1.9999999998576870e-01 +2.0662492898512163e-05 +0.0000000000000000e+00 +9.9999999978653065e-01
-3.0000000000000004e-01 +9.1205953509391176e+00 +0.0000000000000000e+00 -2.9999999995196946e-01 +3.0993686082977424e-05 +0.0000000000000000e+00 +9.9999999951969565e-01
-4.0000000000000002e-01 +9.1205917350123542e+00 +0.0000000000000000e+00 -3.9999999988615009e-01 +4.1324843120520793e-05 +0.0000000000000000e+00 +9.9999999914612858e-01
-5.0000000000000000e-01 +9.1205870859717137e+00 +0.0000000000000000e+00 -4.9999999977763748e-01 +5.1655963559638199e-05 +0.0000000000000000e+00 +9.9999999866583067e-01
-5.9999999999999998e-01 +9.1205814038208768e+00 +0.0000000000000000e+00 -5.9999999961575856e-01 +6.1987046969857353e-05 +0.0000000000000000e+00 +9.9999999807880291e-01
-6.9999999999999996e-01 +9.1205746885635683e+00 +0.0000000000000000e+00 -6.9999999938984048e-01 +7.2318092941735913e-05 +0.0000000000000000e+00 +9.9999999738504664e-01
-7.9999999999999993e-01 +9.1205669402035507e+00 +0.0000000000000000e+00 -7.9999999908921038e-01 +8.2649101086859357e-05 +0.0000000000000000e+00 +9.9999999658456296e-01
-8.9999999999999991e-01 +9.1205581587446254e+00 +0.0000000000000000e+00 -8.9999999870319558e-01 +9.2980071037838502e-05 +0.0000000000000000e+00 +9.9999999567735309e-01
-9.9999999999999989e-01 +9.1205483441906292e+00 +0.0000000000000000e+00 -9.9999999822112351e-01 +1.0331100244830675e-04 +0.0000000000000000e+00 +9.9999999466341827e-01
-1.0999999999999999e+00 +9.1205374965454311e+00 +0.0000000000000000e+00 -1.0999999976323218e+00 +1.1364189499291698e-04 +0.0000000000000000e+00 +9.9999999354275970e-01
-1.2000000000000000e+00 +9.1205256158129355e+00 +0.0000000000000000e+00 -1.1999999969261181e+00 +1.2397274836733812e-04 +0.0000000000000000e+00 +9.9999999231537873e-01
-1.3000000000000000e+00 +9.1205127019970735e+00 +0.0000000000000000e+00 -1.2999999960918402e+00 +1.3430356228825150e-04 +0.0000000000000000e+00 +9.9999999098127645e-01
-1.4000000000000001e+00 +9.1204987551018029e+00 +0.0000000000000000e+00 -1.3999999951188160e+00 +1.4463433649334671e-04 +0.0000000000000000e+00 +9.9999998954045421e-01
-1.5000000000000002e+00 +9.1204837751311079e+00 +0.0000000000000000e+00 -1.4999999939963737e+00 +1.5496507074131734e-04 +0.0000000000000000e+00 +9.9999998799291323e-01
-1.6000000000000003e+00 +9.1204677620889942e+00 +0.0000000000000000e+00 -1.5999999927138415e+00 +1.6529576480695635e-04 +0.0000000000000000e+00 +9.9999998633865483e-01
-1.7000000000000004e+00 +9.1204507159794943e+00 +0.0000000000000000e+00 -1.6999999912605475e+00 +1.7562641842725355e-04 +0.0000000000000000e+00 +9.9999998457768036e-01
-1.8000000000000005e+00 +9.1204326368066688e+00 +0.0000000000000000e+00 -1.7999999896258203e+00 +1.8595703124749612e-04 +0.0000000000000000e+00 +9.9999998270999102e-01
-1.9000000000000006e+00 +9.1204135245746194e+00 +0.0000000000000000e+00 -1.8999999877989886e+00 +1.9628760281637018e-04 +0.0000000000000000e+00 +9.9999998073558816e-01
-2.0000000000000004e+00 +9.1203933792874992e+00 +0.0000000000000000e+00 -1.9999999857693809e+00 +2.0661813258596293e-04 +0.0000000000000000e+00 +9.9999997865447332e-01
-2.1000000000000005e+00 +9.1203722009495181e+00 +0.0000000000000000e+00 -2.0999999835263261e+00 +2.1694861991176527e-04 +0.0000000000000000e+00 +9.9999997646664773e-01
-2.2000000000000006e+00 +9.1203499895649571e+00 +0.0000000000000000e+00 -2.1999999810591535e+00 +2.2727906405267526e-04 +0.0000000000000000e+00 +9.9999997417211306e-01
-2.3000000000000007e+00 +9.1203267451381755e+00 +0.0000000000000000e+00 -2.2999999783571918e+00 +2.3760946417100213e-04 +0.0000000000000000e+00 +9.9999997177087074e-01
-2.4000000000000008e+00 +9.1203024676736213e+00 +0.0000000000000000e+00 -2.3999999754097705e+00 +2.4793981933247076e-04 +0.0000000000000000e+00 +9.9999996926292245e-01
-2.5000000000000009e+00 +9.1202771571758419e+00 +0.0000000000000000e+00 -2.4999999722062194e+00 +2.5827012850622715e-04 +0.0000000000000000e+00 +9.9999996664826973e-01
-2.6000000000000010e+00 +9.1202508136494913e+00 +0.0000000000000000e+00 -2.5999999687358679e+00 +2.6860039056484405e-04 +0.0000000000000000e+00 +9.9999996392691437e-01
-2.7000000000000011e+00 +9.1202234370993409e+00 +0.0000000000000000e+00 -2.6999999649880455e+00 +2.7893060428432770e-04 +0.0000000000000000e+00 +9.9999996109885814e-01
-2.8000000000000012e+00 +9.1201950275302899e+00 +0.0000000000000000e+00 -2.7999999609520829e+00 +2.8926076834412487e-04 +0.0000000000000000e+00 +9.9999995816410292e-01
-2.9000000000000012e+00 +9.1201655849473742e+00 +0.0000000000000000e+00 -2.8999999566173096e+00 +2.9959088132713060e-04 +0.0000000000000000e+00 +9.9999995512265072e-01
-3.0000000000000013e+00 +9.1201351093557772e+00 +0.0000000000000000e+00 -2.9999999519730562e+00 +3.0992094171969668e-04 +0.0000000000000000e+00 +9.9999995197450364e-01
-3.1000000000000014e+00 +9.1201036007608369e+00 +0.0000000000000000e+00 -3.0999999470086537e+00 +3.2025094791164062e-04 +0.0000000000000000e+00 +9.9999994871966369e-01
-3.2000000000000015e+00 +9.1200710591680583e+00 +0.0000000000000000e+00 -3.1999999417134326e+00 +3.3058089819625535e-04 +0.0000000000000000e+00 +9.9999994535813319e-01
-3.3000000000000016e+00 +9.1200374845831220e+00 +0.0000000000000000e+00 -3.2999999360767243e+00 +3.4091079077031949e-04 +0.0000000000000000e+00 +9.9999994188991448e-01
-3.4000000000000017e+00 +9.1200028770118919e+00 +0.0000000000000000e+00 -3.3999999300878594e+00 +3.5124062373410837e-04 +0.0000000000000000e+00 +9.9999993831501000e-01
-3.5000000000000018e+00 +9.1199672364604289e+00 +0.0000000000000000e+00 -3.4999999237361701e+00 +3.6157039509140536e-04 +0.0000000000000000e+00 +9.9999993463342229e-01
-3.6000000000000019e+00 +9.1199305629349965e+00 +0.0000000000000000e+00 -3.5999999170109880e+00 +3.7190010276073995e-04 +0.0000000000000000e+00 +9.9999993084515415e-01
-3.7000000000000020e+00 +9.1198928564420676e+00 +0.0000000000000000e+00 -3.6999999099016452e+00 +3.8222974469888078e-04 +0.0000000000000000e+00 +9.9999992695020823e-01
-3.8000000000000020e+00 +9.1198541169883107e+00 +0.0000000000000000e+00 -3.7999999023974738e+00 +3.9255931902431896e-04 +0.0000000000000000e+00 +9.9999992294858731e-01
-3.9000000000000021e+00 +9.1198143445805737e+00 +0.0000000000000000e+00 -3.8999998944878067e+00 +4.0288882402848830e-04 +0.0000000000000000e+00 +9.9999991884029416e-01
-4.0000000000000018e+00 +9.1197735392258679e+00 +0.0000000000000000e+00 -3.9999998861619770e+00 +4.1321825817575890e-04 +0.0000000000000000e+00 +9.9999991462533167e-01
-4.1000000000000014e+00 +9.1197317009313466e+00 +0.0000000000000000e+00 -4.0999998774093172e+00 +4.2354762010342979e-04 +0.0000000000000000e+00 +9.9999991030370250e-01
-4.2000000000000011e+00 +9.1196888297042946e+00 +0.0000000000000000e+00 -4.1999998682191615e+00 +4.3387690862172135e-04 +0.0000000000000000e+00 +9.9999990587540943e-01
-4.3000000000000007e+00 +9.1196449255521035e+00 +0.0000000000000000e+00 -4.2999998585808434e+00 +4.4420612271376666e-04 +0.0000000000000000e+00 +9.9999990134045513e-01
-4.4000000000000004e+00 +9.1195999884822605e+00 +0.0000000000000000e+00 -4.3999998484836969e+00 +4.5453526153560247e-04 +0.0000000000000000e+00 +9.9999989669884237e-01
-4.5000000000000000e+00 +9.1195540185023276e+00 +0.0000000000000000e+00 -4.4999998379170565e+00 +4.6486432441615936e-04 +0.0000000000000000e+00 +9.9999989195057382e-01
-4.5999999999999996e+00 +9.1195070156199254e+00 +0.0000000000000000e+00 -4.5999998268702562e+00 +4.7519331085725129e-04 +0.0000000000000000e+00 +9.9999988709565202e-01
-4.6999999999999993e+00 +9.1194589798427153e+00 +0.0000000000000000e+00 -4.6999998153326317e+00 +4.8552222053356467e-04 +0.0000000000000000e+00 +9.9999988213407942e-01
-4.7999999999999989e+00 +9.1194099111783835e+00 +0.0000000000000000e+00 -4.7999998032935176e+00 +4.9585105329264640e-04 +0.0000000000000000e+00 +9.9999987706585858e-01
-4.8999999999999986e+00 +9.1193598096346200e+00 +0.0000000000000000e+00 -4.8999997907422488e+00 +5.0617980915489157e-04 +0.0000000000000000e+00 +9.9999987189099182e-01
-4.9999999999999982e+00 +9.1193086752191093e+00 +0.0000000000000000e+00 -4.9999997776681608e+00 +5.1650848831353039e-04 +0.0000000000000000e+00 +9.9999986660948148e-01
-5.0999999999999979e+00 +9.1192565079395020e+00 +0.0000000000000000e+00 -5.0999997640605903e+00 +5.2683709113461456e-04 +0.0000000000000000e+00 +9.9999986122132967e-01
-5.1999999999999975e+00 +9.1192033078034083e+00 +0.0000000000000000e+00 -5.1999997499088719e+00 +5.3716561815700262e-04 +0.0000000000000000e+00 +9.9999985572653849e-01
-5.2999999999999972e+00 +9.1191490748183739e+00 +0.0000000000000000e+00 -5.2999997352023431e+00 +5.4749407009234527e-04 +0.0000000000000000e+00 +9.9999985012510995e-01
-5.3999999999999968e+00 +9.1190938089918632e+00 +0.0000000000000000e+00 -5.3999997199303396e+00 +5.5782244782506948e-04 +0.0000000000000000e+00 +9.9999984441704581e-01
-5.4999999999999964e+00 +9.1190375103312462e+00 +0.0000000000000000e+00 -5.4999997040821977e+00 +5.6815075241236225e-04 +0.0000000000000000e+00 +9.9999983860234776e-01
-5.5999999999999961e+00 +9.1189801788437777e+00 +0.0000000000000000e+00 -5.5999996876472542e+00 +5.7847898507696943e-04 +0.0000000000000000e+00 +9.9999983268101744e-01
-5.6999999999999957e+00 +9.1189218145365842e+00 +0.0000000000000000e+00 -5.6999996706148464e+00 +5.8880714712815699e-04 +0.0000000000000000e+00 +9.9999982665305620e-01
-5.7999999999999954e+00 +9.1188624174166613e+00 +0.0000000000000000e+00 -5.7999996529743107e+00 +5.9913523988268543e-04 +0.0000000000000000e+00 +9.9999982051846559e-01
-5.8999999999999950e+00 +9.1188019874908726e+00 +0.0000000000000000e+00 -5.8999996347149848e+00 +6.0946326465763270e-04 +0.0000000000000000e+00 +9.9999981427724682e-01
-5.9999999999999947e+00 +9.1187405247659505e+00 +0.0000000000000000e+00 -5.9999996158262059e+00 +6.1979122277040246e-04 +0.0000000000000000e+00 +9.9999980792940124e-01
-6.0999999999999943e+00 +9.1186780292484961e+00 +0.0000000000000000e+00 -6.0999995962973106e+00 +6.3011911553873283e-04 +0.0000000000000000e+00 +9.9999980147493006e-01
-6.1999999999999940e+00 +9.1186145009449771e+00 +0.0000000000000000e+00 -6.1999995761176372e+00 +6.4044694428070520e-04 +0.0000000000000000e+00 +9.9999979491383439e-01
-6.2999999999999936e+00 +9.1185499398617296e+00 +0.0000000000000000e+00 -6.2999995552765231e+00 +6.5077471031475429e-04 +0.0000000000000000e+00 +9.9999978824611546e-01
-6.3999999999999932e+00 +9.1184843460049603e+00 +0.0000000000000000e+00 -6.3999995337633058e+00 +6.6110241495967806e-04 +0.0000000000000000e+00 +9.9999978147177426e-01
-6.4999999999999929e+00 +9.1184177193807407e+00 +0.0000000000000000e+00 -6.4999995115673235e+00 +6.7143005953464814e-04 +0.0000000000000000e+00 +9.9999977459081180e-01
-6.5999999999999925e+00 +9.1183500599950111e+00 +0.0000000000000000e+00 -6.5999994886779136e+00 +6.8175764535922110e-04 +0.0000000000000000e+00 +9.9999976760322917e-01
-6.6999999999999922e+00 +9.1182813678535819e+00 +0.0000000000000000e+00 -6.6999994650844146e+00 +6.9208517375334987e-04 +0.0000000000000000e+00 +9.9999976050902717e-01
-6.7999999999999918e+00 +9.1182116429621303e+00 +0.0000000000000000e+00 -6.7999994407761646e+00 +7.0241264603739580e-04 +0.0000000000000000e+00 +9.9999975330820667e-01
-6.8999999999999915e+00 +9.1181408853262003e+00 +0.0000000000000000e+00 -6.8999994157425020e+00 +7.1274006353214115e-04 +0.0000000000000000e+00 +9.9999974600076846e-01
-6.9999999999999911e+00 +9.1180690949512062e+00 +0.0000000000000000e+00 -6.9999993899727642e+00 +7.2306742755880193e-04 +0.0000000000000000e+00 +9.9999973858671320e-01
-7.0999999999999908e+00 +9.1179962718424274e+00 +0.0000000000000000e+00 -7.0999993634562903e+00 +7.3339473943904163e-04 +0.0000000000000000e+00 +9.9999973106604167e-01
-7.1999999999999904e+00 +9.1179224160050119e+00 +0.0000000000000000e+00 -7.1999993361824188e+00 +7.4372200049498496e-04 +0.0000000000000000e+00 +9.9999972343875454e-01
-7.2999999999999901e+00 +9.1178475274439776e+00 +0.0000000000000000e+00 -7.2999993081404879e+00 +7.5404921204923214e-04 +0.0000000000000000e+00 +9.9999971570485224e-01
-7.3999999999999897e+00 +9.1177716061642080e+00 +0.0000000000000000e+00 -7.3999992793198359e+00 +7.6437637542487423e-04 +0.0000000000000000e+00 +9.9999970786433545e-01
-7.4999999999999893e+00 +9.1176946521704547e+00 +0.0000000000000000e+00 -7.4999992497098011e+00 +7.7470349194550805e-04 +0.0000000000000000e+00 +9.9999969991720450e-01
-7.5999999999999890e+00 +9.1176166654673363e+00 +0.0000000000000000e+00 -7.5999992192997228e+00 +7.8503056293225640e-04 +0.0000000000000000e+00 +9.9999969186345994e-01
-7.6999999999999886e+00 +9.1175376460593434e+00 +0.0000000000000000e+00 -7.6999991880789391e+00 +7.9535758967083008e-04 +0.0000000000000000e+00 +9.9999968370310199e-01
-7.7999999999999883e+00 +9.1174575939508369e+00 +0.0000000000000000e+00 -7.7999991560367894e+00 +8.0568457337858775e-04 +0.0000000000000000e+00 +9.9999967543613122e-01
-7.8999999999999879e+00 +9.1173765091460641e+00 +0.0000000000000000e+00 -7.8999991231626119e+00 +8.1601151520155422e-04 +0.0000000000000000e+00 +9.9999966706254784e-01
-7.9999999999999876e+00 +9.1172943916491569e+00 +0.0000000000000000e+00 -7.9999990894457449e+00 +8.2633841621443523e-04 +0.0000000000000000e+00 +9.9999965858235240e-01
-8.0999999999999872e+00 +9.1172112414641475e+00 +0.0000000000000000e+00 -8.0999990548755285e+00 +8.3666527742063215e-04 +0.0000000000000000e+00 +9.9999964999554525e-01
-8.1999999999999869e+00 +9.1171270585949689e+00 +0.0000000000000000e+00 -8.1999990194413002e+00 +8.4699209975225721e-04 +0.0000000000000000e+00 +9.9999964130212682e-01
-8.2999999999999865e+00 +9.1170418430454649e+00 +0.0000000000000000e+00 -8.2999989831323990e+00 +8.5731888407014948e-04 +0.0000000000000000e+00 +9.9999963250209767e-01
-8.3999999999999861e+00 +9.1169555948193963e+00 +0.0000000000000000e+00 -8.3999989459381652e+00 +8.6764563116389047e-04 +0.0000000000000000e+00 +9.9999962359545824e-01
-8.4999999999999858e+00 +9.1168683139204489e+00 +0.0000000000000000e+00 -8.4999989078479370e+00 +8.7797234175182115e-04 +0.0000000000000000e+00 +9.9999961458220898e-01
-8.5999999999999854e+00 +9.1167800003522412e+00 +0.0000000000000000e+00 -8.5999988688510527e+00 +8.8829901648105833e-04 +0.0000000000000000e+00 +9.9999960546235056e-01
-8.6999999999999851e+00 +9.1166906541183295e+00 +0.0000000000000000e+00 -8.6999988289368524e+00 +8.9862565592751197e-04 +0.0000000000000000e+00 +9.9999959623588353e-01
-8.7999999999999847e+00 +9.1166002752222148e+00 +0.0000000000000000e+00 -8.7999987880946762e+00 +9.0895226059590280e-04 +0.0000000000000000e+00 +9.9999958690280843e-01
-8.8999999999999844e+00 +9.1165088636673541e+00 +0.0000000000000000e+00 -8.8999987463138606e+00 +9.1927883091978018e-04 +0.0000000000000000e+00 +9.9999957746312607e-01
-8.9999999999999840e+00 +9.1164164194571633e+00 +0.0000000000000000e+00 -8.9999987035837474e+00 +9.2960536726154075e-04 +0.0000000000000000e+00 +9.9999956791683708e-01
-9.0999999999999837e+00 +9.1163229425950245e+00 +0.0000000000000000e+00 -9.0999986598936751e+00 +9.3993186991244663e-04 +0.0000000000000000e+00 +9.9999955826394227e-01
-9.1999999999999833e+00 +9.1162284330842969e+00 +0.0000000000000000e+00 -9.1999986152329818e+00 +9.5025833909264496e-04 +0.0000000000000000e+00 +9.9999954850444239e-01
-9.2999999999999829e+00 +9.1161328909283181e+00 +0.0000000000000000e+00 -9.2999985695910095e+00 +9.6058477495118732e-04 +0.0000000000000000e+00 +9.9999953863833846e-01
-9.3999999999999826e+00 +9.1160363161304154e+00 +0.0000000000000000e+00 -9.3999985229570964e+00 +9.7091117756604930e-04 +0.0000000000000000e+00 +9.9999952866563135e-01
-9.4999999999999822e+00 +9.1159387086939123e+00 +0.0000000000000000e+00 -9.4999984753205826e+00 +9.8123754694415103e-04 +0.0000000000000000e+00 +9.9999951858632219e-01
-9.5999999999999819e+00 +9.1158400686221359e+00 +0.0000000000000000e+00 -9.5999984266708083e+00 +9.9156388302442636e-04 +0.0000000000000000e+00 +9.9999950840041196e-01
-9.6999999999999815e+00 +9.1157403959184204e+00 +0.0000000000000000e+00 -9.6999983769971116e+00 +1.0018901857113739e-03 +0.0000000000000000e+00 +9.9999949810790179e-01
-9.7999999999999812e+00 +9.1156396905861108e+00 +0.0000000000000000e+00 -9.7999983262888346e+00 +1.0122164549085954e-03 +0.0000000000000000e+00 +9.9999948770879288e-01
-9.8999999999999808e+00 +9.1155379526285589e+00 +0.0000000000000000e+00 -9.8999982745353172e+00 +1.0225426905218363e-03 +0.0000000000000000e+00 +9.9999947720308624e-01
-9.9999999999999805e+00 +9.1154351820491293e+00 +0.0000000000000000e+00 -9.9999982217258996e+00 +1.0328688924589782e-03 +0.0000000000000000e+00 +9.9999946659078309e-01
-1.0099999999999980e+01 +9.1153313788511934e+00 +0.0000000000000000e+00 -1.0099998167849922e+01 +1.0431950606300299e-03 +0.0000000000000000e+00 +9.9999945587188455e-01
-1.0199999999999980e+01 +9.1152265430381316e+00 +0.0000000000000000e+00 -1.0199998112896724e+01 +1.0535211949471190e-03 +0.0000000000000000e+00 +9.9999944504639171e-01
-1.0299999999999979e+01 +9.1151206746133351e+00 +0.0000000000000000e+00 -1.0299998056855648e+01 +1.0638472953244820e-03 +0.0000000000000000e+00 +9.9999943411430581e-01
-1.0399999999999979e+01 +9.1150137735802019e+00 +0.0000000000000000e+00 -1.0399997999716033e+01 +1.0741733616784555e-03 +0.0000000000000000e+00 +9.9999942307562795e-01
-1.0499999999999979e+01 +9.1149058399421374e+00 +0.0000000000000000e+00 -1.0499997941467221e+01 +1.0844993939274656e-03 +0.0000000000000000e+00 +9.9999941193035924e-01
-1.0599999999999978e+01 +9.1147968737025558e+00 +0.0000000000000000e+00 -1.0599997882098553e+01 +1.0948253919920174e-03 +0.0000000000000000e+00 +9.9999940067850079e-01
-1.0699999999999978e+01 +9.1146868748648799e+00 +0.0000000000000000e+00 -1.0699997821599368e+01 +1.1051513557946849e-03 +0.0000000000000000e+00 +9.9999938932005383e-01
-1.0799999999999978e+01 +9.1145758434325401e+00 +0.0000000000000000e+00 -1.0799997759959009e+01 +1.1154772852600995e-03 +0.0000000000000000e+00 +9.9999937785501936e-01
-1.0899999999999977e+01 +9.1144637794089736e+00 +0.0000000000000000e+00 -1.0899997697166818e+01 +1.1258031803149386e-03 +0.0000000000000000e+00 +9.9999936628339869e-01
-1.0999999999999977e+01 +9.1143506827976264e+00 +0.0000000000000000e+00 -1.0999997633212136e+01 +1.1361290408879140e-03 +0.0000000000000000e+00 +9.9999935460519285e-01
-1.1099999999999977e+01 +9.1142365536019483e+00 +0.0000000000000000e+00 -1.1099997568084303e+01 +1.1464548669097589e-03 +0.0000000000000000e+00 +9.9999934282040304e-01
-1.1199999999999976e+01 +9.1141213918253978e+00 +0.0000000000000000e+00 -1.1199997501772662e+01 +1.1567806583132165e-03 +0.0000000000000000e+00 +9.9999933092903037e-01
-1.1299999999999976e+01 +9.1140051974714407e+00 +0.0000000000000000e+00 -1.1299997434266556e+01 +1.1671064150330262e-03 +0.0000000000000000e+00 +9.9999931893107596e-01
-1.1399999999999975e+01 +9.1138879705435496e+00 +0.0000000000000000e+00 -1.1399997365555326e+01 +1.1774321370059105e-03 +0.0000000000000000e+00 +9.9999930682654103e-01
-1.1499999999999975e+01 +9.1137697110452009e+00 +0.0000000000000000e+00 -1.1499997295628312e+01 +1.1877578241705612e-03 +0.0000000000000000e+00 +9.9999929461542669e-01
-1.1599999999999975e+01 +9.1136504189798782e+00 +0.0000000000000000e+00 -1.1599997224474858e+01 +1.1980834764723407e-03 +0.0000000000000000e+00 +9.9999928229773405e-01
-1.1699999999999974e+01 +9.1135300943510682e+00 +0.0000000000000000e+00 -1.1699997152084306e+01 +1.2084090939151271e-03 +0.0000000000000000e+00 +9.9999926987346421e-01
