# multipoles
# s[mm] polynom_b[n=0][T/m^n] polynom_b[n=1][T/m^n] polynom_b[n=2][T/m^n] polynom_b[n=3][T/m^n] polynom_b[n=4][T/m^n] polynom_b[n=5][T/m^n] polynom_b[n=6][T/m^n] 
-0.0000000000000000e+00 -8.2404164561499793e-01 +1.8357885954312851e+00 +1.6429993854600461e+01 +6.2811689081017022e+01 -6.2963324042893664e+03 -1.3471616882275877e+05 +5.7475671493207932e+07 
-1.0000000000000001e-01 -8.2404213125722259e-01 +1.8357663395482167e+00 +1.6426207478993653e+01 +6.3408593667301851e+01 -6.2538172555919382e+03 -1.3738885616692464e+05 +5.7346277183424540e+07 
-2.0000000000000001e-01 -8.2404262778954429e-01 +1.8357452576576827e+00 +1.6422257432258835e+01 +6.3963266760121712e+01 -6.2098423444840000e+03 -1.3980276710316984e+05 +5.7216240059417635e+07 
-2.9999999999999999e-01 -8.2404313553341069e-01 +1.8357253903788056e+00 +1.6418172524003623e+01 +6.4475835139299818e+01 -6.1646726494687373e+03 -1.4196434704153717e+05 +5.7086160156206571e+07 
-4.0000000000000002e-01 -8.2404365481027142e-01 +1.8357067783348155e+00 +1.6413981562876995e+01 +6.4946425476520957e+01 -6.1185731250460594e+03 -1.4388004094564239e+05 +5.6956637368892021e+07 
-5.0000000000000000e-01 -8.2404418594155537e-01 +1.8356894621481374e+00 +1.6409713356183282e+01 +6.5375164497055962e+01 -6.0718086955542303e+03 -1.4555629429104220e+05 +5.6828271422183976e+07 
-5.9999999999999998e-01 -8.2404472924876682e-01 +1.8356734824381782e+00 +1.6405396719557590e+01 +6.5762179003914639e+01 -6.0246444358296703e+03 -1.4699955307807802e+05 +5.6701662727098249e+07 
-6.9999999999999996e-01 -8.2404528505334262e-01 +1.8356588798288969e+00 +1.6401060459325599e+01 +6.6107595665563537e+01 -5.9773452338915213e+03 -1.4821626259963334e+05 +5.6577410768982701e+07 
-8.0000000000000004e-01 -8.2404585367677941e-01 +1.8356456949396360e+00 +1.6396733389462575e+01 +6.6411541263433321e+01 -5.9301761173463374e+03 -1.4921286878440576e+05 +5.6456115674767010e+07 
-9.0000000000000002e-01 -8.2404643544057488e-01 +1.8356339683928928e+00 +1.6392444324162589e+01 +6.6674142455460469e+01 -5.8834021055107769e+03 -1.4999581676748209e+05 +5.6338377490186021e+07 
-1.0000000000000000e+00 -8.2404703066622009e-01 +1.8356237408074048e+00 +1.6388222074909109e+01 +6.6895525951782446e+01 -5.8372881607794779e+03 -1.5057155184411345e+05 +5.6224795972248875e+07 
-1.1000000000000001e+00 -8.2404763967523631e-01 +1.8356150528015851e+00 +1.6384095457051966e+01 +6.7075818431119785e+01 -5.7920993040381209e+03 -1.5094651897042867e+05 +5.6115971110635437e+07 
-1.2000000000000000e+00 -8.2404826278913146e-01 +1.8356079449962399e+00 +1.6380093282950927e+01 +6.7215146421495504e+01 -5.7481004897509838e+03 -1.5112716195341977e+05 +5.6012502550479896e+07 
-1.3000000000000000e+00 -8.2404890032944722e-01 +1.8356024580095984e+00 +1.6376244368774071e+01 +6.7313636445290953e+01 -5.7055567309437993e+03 -1.5111992425107057e+05 +5.5914990177530341e+07 
-1.3999999999999999e+00 -8.2404955261770463e-01 +1.8355986324565194e+00 +1.6372577527256443e+01 +6.7371415040759828e+01 -5.6647329640516837e+03 -1.5093124908929033e+05 +5.5824033481281899e+07 
-1.5000000000000000e+00 -8.2405021997547323e-01 +1.8355965089556172e+00 +1.6369121575285316e+01 +6.7388608509345275e+01 -5.6258941893248939e+03 -1.5056757782914012e+05 +5.5740232217236228e+07 
-1.6000000000000001e+00 -8.2405090272428549e-01 +1.8355961281198756e+00 +1.6365905325326221e+01 +6.7365343219114109e+01 -5.5893053106970219e+03 -1.5003535178526994e+05 +5.5664185649467610e+07 
-1.7000000000000000e+00 -8.2405160118573739e-01 +1.8355975305621004e+00 +1.6362957595660699e+01 +6.7301745404343791e+01 -5.5552313245248333e+03 -1.4934101093077497e+05 +5.5596493438861579e+07 
-1.8000000000000000e+00 -8.2405231568138249e-01 +1.8356007568971910e+00 +1.6360307197730272e+01 +6.7197941094613753e+01 -5.5239370824100542e+03 -1.4849099344313188e+05 +5.5537754522255369e+07 
-1.8999999999999999e+00 -8.2405304653280831e-01 +1.8356058477342834e+00 +1.6357982946959098e+01 +6.7054056337238336e+01 -5.4956874961058320e+03 -1.4749173694203261e+05 +5.5488568086457819e+07 
-2.0000000000000000e+00 -8.2405379406161439e-01 +1.8356128436834511e+00 +1.6356013657517039e+01 +6.6870216982557636e+01 -5.4707474337136928e+03 -1.4634967717871789e+05 +5.5449533066160277e+07 
-2.1000000000000001e+00 -8.2405455843011211e-01 +1.8356217476611967e+00 +1.6354420234360354e+01 +6.6647214680500753e+01 -5.4492989961761232e+03 -1.4507299402610314e+05 +5.5420971417092003e+07 
-2.2000000000000002e+00 -8.2405533915202622e-01 +1.8356324097443046e+00 +1.6353191265401602e+01 +6.6388586442752811e+01 -5.4311772108394971e+03 -1.4367721962867508e+05 +5.5401979542485960e+07 
-2.2999999999999998e+00 -8.2405613557610213e-01 +1.8356446413116339e+00 +1.6352307096306248e+01 +6.6098574219674163e+01 -5.4161265261644403e+03 -1.4217979832246568e+05 +5.5391318899329029e+07 
-2.3999999999999999e+00 -8.2405694705105470e-01 +1.8356582537368387e+00 +1.6351748070075747e+01 +6.5781420100696323e+01 -5.4038913483899896e+03 -1.4059817510852616e+05 +5.5387750776824184e+07 
-2.5000000000000000e+00 -8.2405777292564886e-01 +1.8356730583931635e+00 +1.6351494536296233e+01 +6.5441366183850462e+01 -5.3942162199087352e+03 -1.3894979493813607e+05 +5.5390037152865157e+07 
-2.6000000000000001e+00 -8.2405861254856849e-01 +1.8356888666471656e+00 +1.6351526834733278e+01 +6.5082654756694552e+01 -5.3868455090208990e+03 -1.3725210376851595e+05 +5.5396939225310847e+07 
-2.7000000000000002e+00 -8.2405946526852369e-01 +1.8357054898662377e+00 +1.6351825310116638e+01 +6.4709528096568448e+01 -5.3815236923233051e+03 -1.3552254743302896e+05 +5.5407218756910905e+07 
-2.7999999999999998e+00 -8.2406033043422799e-01 +1.8357227394103790e+00 +1.6352370308495434e+01 +6.4326228727053078e+01 -5.3779952889303513e+03 -1.3377857320245751e+05 +5.5419637777167171e+07 
-2.8999999999999999e+00 -8.2406120739437483e-01 +1.8357404266395343e+00 +1.6353142173292241e+01 +6.3936999181588270e+01 -5.3760047893906776e+03 -1.3203762835643711e+05 +5.5432958252857067e+07 
-3.0000000000000000e+00 -8.2406209549760856e-01 +1.8357583629066028e+00 +1.6354121244909539e+01 +6.3546082247998406e+01 -5.3752966448492925e+03 -1.3031716168528305e+05 +5.5445942029070154e+07 
-3.1000000000000001e+00 -8.2406299409261319e-01 +1.8357763595604866e+00 +1.6355287869553869e+01 +6.3157720873038045e+01 -5.3756154444608219e+03 -1.2863462294879345e+05 +5.5457351701869734e+07 
-3.2000000000000002e+00 -8.2406390252801365e-01 +1.8357942279477486e+00 +1.6356622386773171e+01 +6.2776158113334183e+01 -5.3767056701271167e+03 -1.2700746258155277e+05 +5.5465949427313738e+07 
-3.2999999999999998e+00 -8.2406482015243410e-01 +1.8358117794106115e+00 +1.6358105139294203e+01 +6.2405637222445250e+01 -5.3783118994309043e+03 -1.2545313226977873e+05 +5.5470497933953077e+07 
-3.3999999999999999e+00 -8.2406574631448004e-01 +1.8358288252828769e+00 +1.6359716468292557e+01 +6.2050401761644629e+01 -5.3801787036084033e+03 -1.2398908559204405e+05 +5.5469760003509797e+07 
-3.5000000000000000e+00 -8.2406668036274733e-01 +1.8358451768975768e+00 +1.6361436715847269e+01 +6.1714695395021295e+01 -5.3820507082976519e+03 -1.2263277687633652e+05 +5.5462498800987318e+07 
-3.6000000000000001e+00 -8.2406762164576530e-01 +1.8358606455810920e+00 +1.6363246218404139e+01 +6.1402762062428117e+01 -5.3836724632786609e+03 -1.2140166219013123e+05 +5.5447477238192417e+07 
-3.7000000000000002e+00 -8.2406856951209195e-01 +1.8358750426548285e+00 +1.6365125318289593e+01 +6.1118845933032858e+01 -5.3847886687157907e+03 -1.2031319910562405e+05 +5.5423459071841791e+07 
-3.7999999999999998e+00 -8.2406952331022809e-01 +1.8358881794333934e+00 +1.6367054352123350e+01 +6.0867191489026737e+01 -5.3851439519643382e+03 -1.1938484726577801e+05 +5.5389207835442998e+07 
-3.8999999999999999e+00 -8.2407048238866420e-01 +1.8358998672274538e+00 +1.6369013659490186e+01 +6.0652043426546626e+01 -5.3844830391427840e+03 -1.1863406774459580e+05 +5.5343487673310697e+07 
-4.0000000000000000e+00 -8.2407144609584648e-01 +1.8359099173413713e+00 +1.6370983575451863e+01 +6.0477646736628039e+01 -5.3825506173392841e+03 -1.1807832361074396e+05 +5.5285062699537463e+07 
-4.0999999999999996e+00 -8.2407241372036810e-01 +1.8359181935438764e+00 +1.6372946444385892e+01 +6.0346945946403530e+01 -5.3791799167289410e+03 -1.1772890799972226e+05 +5.5213277293429308e+07 
-4.2000000000000002e+00 -8.2407338432702348e-01 +1.8359247591324341e+00 +1.6374892306504343e+01 +6.0258040483981773e+01 -5.3745404561941668e+03 -1.1757492120181606e+05 +5.5129725779153548e+07 
-4.2999999999999998e+00 -8.2407435692868380e-01 +1.8359297247928335e+00 +1.6376813093990528e+01 +6.0207906186623013e+01 -5.3688828939770810e+03 -1.1760054712675631e+05 +5.5036557110540628e+07 
-4.4000000000000004e+00 -8.2407533053817372e-01 +1.8359332012200780e+00 +1.6378700732124464e+01 +6.0193518825160275e+01 -5.3624577468456082e+03 -1.1778997019310400e+05 +5.4935919523238979e+07 
-4.5000000000000000e+00 -8.2407630416837774e-01 +1.8359352991125402e+00 +1.6380547154545717e+01 +6.0211854311344048e+01 -5.3555156810579319e+03 -1.1812737657117877e+05 +5.4829961915135957e+07 
-4.5999999999999996e+00 -8.2407727683215859e-01 +1.8359361291747465e+00 +1.6382344289452430e+01 +6.0259888601995655e+01 -5.3483072409452207e+03 -1.1859695363166856e+05 +5.4720832525451481e+07 
-4.7000000000000002e+00 -8.2407824754242154e-01 +1.8359358021208543e+00 +1.6384084071022574e+01 +6.0334597613662126e+01 -5.3410830744047989e+03 -1.1918288948022228e+05 +5.4610680031594701e+07 
-4.7999999999999998e+00 -8.2407921531203054e-01 +1.8359344286733814e+00 +1.6385758427675267e+01 +6.0432957271137177e+01 -5.3340936981644727e+03 -1.1986937329126424e+05 +5.4501652396212578e+07 
-4.9000000000000004e+00 -8.2408017915390563e-01 +1.8359321195581590e+00 +1.6387359293219181e+01 +6.0551943677009966e+01 -5.3275897198985667e+03 -1.2064059641819862e+05 +5.4395897951046333e+07 
-5.0000000000000000e+00 -8.2408113808095407e-01 +1.8359289855151091e+00 +1.6388878599623780e+01 +6.0688532796220358e+01 -5.3218216890754193e+03 -1.2148075052286808e+05 +5.4295564652934641e+07 
-5.0999999999999996e+00 -8.2408209110611219e-01 +1.8359251372906560e+00 +1.6390308281202771e+01 +6.0839700690865065e+01 -5.3170401800870141e+03 -1.2237402902408436e+05 +5.4202800487403519e+07 
-5.2000000000000002e+00 -8.2408303724231335e-01 +1.8359206856417394e+00 +1.6391640270669914e+01 +6.1002423414516578e+01 -5.3134957169419567e+03 -1.2330462653766510e+05 +5.4119753107507445e+07 
-5.2999999999999998e+00 -8.2408397550250800e-01 +1.8359157413358442e+00 +1.6392866502227040e+01 +6.1173677030369426e+01 -5.3114388260615169e+03 -1.2425673903331335e+05 +5.4048570067120336e+07 
-5.4000000000000004e+00 -8.2408490489967778e-01 +1.8359104151493004e+00 +1.6393978912556229e+01 +6.1350437661721301e+01 -5.3111200606683133e+03 -1.2521456417582555e+05 +5.3991398949059509e+07 
-5.5000000000000000e+00 -8.2408582444678846e-01 +1.8359048178757669e+00 +1.6394969435720093e+01 +6.1529681261525440e+01 -5.3127898937176269e+03 -1.2616230001464579e+05 +5.3950386826981150e+07 
-5.5999999999999996e+00 -8.2408673315685443e-01 +1.8358990603110377e+00 +1.6395830009340763e+01 +6.1708384070299175e+01 -5.3166988431145319e+03 -1.2708414775997154e+05 +5.3927680881220795e+07 
-5.7000000000000002e+00 -8.2408763004288055e-01 +1.8358932532700576e+00 +1.6396552569766733e+01 +6.1883522121830417e+01 -5.3230973732471584e+03 -1.2796430888248725e+05 +5.3925427907686889e+07 
-5.7999999999999998e+00 -8.2408851411791739e-01 +1.8358875075782350e+00 +1.6397129056271957e+01 +6.2052071513684453e+01 -5.3322359721837156e+03 -1.2878698678267615e+05 +5.3945774679396771e+07 
-5.9000000000000004e+00 -8.2408938439500323e-01 +1.8358819340764805e+00 +1.6397551406533111e+01 +6.2211008274461847e+01 -5.3443650694530561e+03 -1.2953638605853965e+05 +5.3990867560565010e+07 
-6.0000000000000000e+00 -8.2409023988720242e-01 +1.8358766436095775e+00 +1.6397811559100138e+01 +6.2357308761724269e+01 -5.3597350680877034e+03 -1.3019671507457449e+05 +5.4062852607381091e+07 
-6.0999999999999996e+00 -8.2409108000686837e-01 +1.8358717186491811e+00 +1.6397908898760015e+01 +6.2488944115358130e+01 -5.3785572814619836e+03 -1.3075850518186677e+05 +5.4163286296474814e+07 
-6.2000000000000002e+00 -8.2409190576413049e-01 +1.8358671682823835e+00 +1.6397874423323191e+01 +6.2606655226815768e+01 -5.4009511273382586e+03 -1.3123034643912595e+05 +5.4291777944118425e+07 
-6.2999999999999998e+00 -8.2409271856868416e-01 +1.8358629928722636e+00 +1.6397747297759217e+01 +6.2711591518551607e+01 -5.4270235198696855e+03 -1.3162366705109805e+05 +5.4447519585642964e+07 
-6.4000000000000004e+00 -8.2409351983021573e-01 +1.8358591927587629e+00 +1.6397566684245664e+01 +6.2804902807759483e+01 -5.4568813048305792e+03 -1.3194989657043497e+05 +5.4629702911563292e+07 
-6.5000000000000000e+00 -8.2409431095839025e-01 +1.8358557682526297e+00 +1.6397371740701470e+01 +6.2887739482479006e+01 -5.4906312244539840e+03 -1.3222046689885663e+05 +5.4837519081394598e+07 
-6.5999999999999996e+00 -8.2409509336285491e-01 +1.8358527196371919e+00 +1.6397201620194053e+01 +6.2961252426421566e+01 -5.5283799120224357e+03 -1.3244681178481964e+05 +5.5070158715436161e+07 
-6.7000000000000002e+00 -8.2409586845323635e-01 +1.8358500471664312e+00 +1.6397095471710411e+01 +6.3026593080916676e+01 -5.5702339032965920e+03 -1.3264036718107684e+05 +5.5326811942298494e+07 
-6.7999999999999998e+00 -8.2409663763913588e-01 +1.8358477510625428e+00 +1.6397092438662423e+01 +6.3084913469269829e+01 -5.6162996058887047e+03 -1.3281257124340392e+05 +5.5606668247077905e+07 
-6.9000000000000004e+00 -8.2409740233017137e-01 +1.8358458315158377e+00 +1.6397231663281911e+01 +6.3137366204022825e+01 -5.6666833866045208e+03 -1.3297486439386458e+05 +5.5908916899680085e+07 
-7.0000000000000000e+00 -8.2409816393592727e-01 +1.8358442886843236e+00 +1.6397552282354109e+01 +6.3185104481529471e+01 -5.7214914865252704e+03 -1.3313868919532635e+05 +5.6232746541181155e+07 
-7.0999999999999996e+00 -8.2409892386594596e-01 +1.8358431226936642e+00 +1.6398093424591906e+01 +6.3229282061411830e+01 -5.7808299727725489e+03 -1.3331549017566082e+05 +5.6577344960848361e+07 
-7.2000000000000002e+00 -8.2409968352977547e-01 +1.8358423336299516e+00 +1.6398894215706381e+01 +6.3271053461167782e+01 -5.8448048292005287e+03 -1.3351671492159495e+05 +5.6941899512066618e+07 
-7.2999999999999998e+00 -8.2410044433693219e-01 +1.8358419215466477e+00 +1.6399993777830240e+01 +6.3311573758104494e+01 -5.9135219527764821e+03 -1.3375381287011169e+05 +5.7325597117347851e+07 
-7.4000000000000004e+00 -8.2410120769691342e-01 +1.8358418864583568e+00 +1.6401431224888817e+01 +6.3351998721748799e+01 -5.9870870589300193e+03 -1.3403823600574341e+05 +5.7727623800962396e+07 
-7.5000000000000000e+00 -8.2410197501920135e-01 +1.8358422283416245e+00 +1.6403245667885976e+01 +6.3393484799070741e+01 -6.0656057842434702e+03 -1.3438143872785309e+05 +5.8147165185195684e+07 
-7.5999999999999996e+00 -8.2410274771326109e-01 +1.8358429471330757e+00 +1.6405476211903448e+01 +6.3437189142220589e+01 -6.1491836266116843e+03 -1.3479487795170615e+05 +5.8583406198200874e+07 
-7.7000000000000002e+00 -8.2410352718850832e-01 +1.8358440427286524e+00 +1.6408161953912259e+01 +6.3484269625952578e+01 -6.2379259058235630e+03 -1.3529001317581651e+05 +5.9035530895185366e+07 
-7.7999999999999998e+00 -8.2410431485435698e-01 +1.8358455149820192e+00 +1.6411341987929056e+01 +6.3535884868704436e+01 -6.3319378606923910e+03 -1.3587830651917387e+05 +5.9502722917279363e+07 
-7.9000000000000004e+00 -8.2410511212020243e-01 +1.8358473637038935e+00 +1.6415055400756504e+01 +6.3593194237572973e+01 -6.4313245635174317e+03 -1.3657122272085221e+05 +5.9984165076557666e+07 
-8.0000000000000000e+00 -8.2410592039539432e-01 +1.8358495886694657e+00 +1.6419341273157457e+01 +6.3657357439680219e+01 -6.5361909724461630e+03 -1.3738022572011719e+05 +6.0479039742646955e+07 
-8.0999999999999996e+00 -8.2410674060185884e-01 +1.8358522130302133e+00 +1.6424221503938032e+01 +6.3728435582000870e+01 -6.6465079768191690e+03 -1.3830847745171262e+05 +6.0986359629567064e+07 
-8.1999999999999993e+00 -8.2410757172347682e-01 +1.8358553117989480e+00 +1.6429649160943367e+01 +6.3803409698408814e+01 -6.7616526393575778e+03 -1.3933421958938090e+05 +6.1503914979298845e+07 
-8.3000000000000007e+00 -8.2410841226087928e-01 +1.8358589633827855e+00 +1.6435560080944715e+01 +6.3878771730243237e+01 -6.8808416534198559e+03 -1.4043113338289657e+05 +6.2029075254602395e+07 
-8.4000000000000004e+00 -8.2410926071472590e-01 +1.8358632462350757e+00 +1.6441890109054071e+01 +6.3951012229307963e+01 -7.0032919040514753e+03 -1.4157289141781616e+05 +6.2559210886417881e+07 
-8.5000000000000000e+00 -8.2411011558583458e-01 +1.8358682388661949e+00 +1.6448575113928239e+01 +6.4016620086751374e+01 -7.1282207673938647e+03 -1.4273315640764491e+05 +6.3091694754937835e+07 
-8.5999999999999996e+00 -8.2411097537505540e-01 +1.8358740198330148e+00 +1.6455550969724321e+01 +6.4072082843199993e+01 -7.2548457624003167e+03 -1.4388558302234413e+05 +6.3623900518081538e+07 
-8.6999999999999993e+00 -8.2411183858336956e-01 +1.8358806677450255e+00 +1.6462753573368360e+01 +6.4113886523436975e+01 -7.3823848861173256e+03 -1.4500381691554707e+05 +6.4153204225014709e+07 
-8.8000000000000007e+00 -8.2411270371187506e-01 +1.8358882612746490e+00 +1.6470118838671262e+01 +6.4138515322629303e+01 -7.5100565017141907e+03 -1.4606149289184104e+05 +6.4676983782648869e+07 
-8.9000000000000004e+00 -8.2411356926177670e-01 +1.8358968791443353e+00 +1.6477582696816565e+01 +6.4142451997918670e+01 -7.6370793491163558e+03 -1.4703223721668054e+05 +6.5192619009338446e+07 
-9.0000000000000000e+00 -8.2411443373434468e-01 +1.8359066001391877e+00 +1.6485081092312342e+01 +6.4122177488605971e+01 -7.7626724687907108e+03 -1.4788966534112807e+05 +6.5697491276239373e+07 
-9.0999999999999996e+00 -8.2411529563099151e-01 +1.8359175031062289e+00 +1.6492549990319045e+01 +6.4074170953628965e+01 -7.8860553418904683e+03 -1.4860738220108720e+05 +6.6188984172784016e+07 
-9.1999999999999993e+00 -8.2411615345326072e-01 +1.8359296669508316e+00 +1.6499925377016829e+01 +6.3994909859158163e+01 -8.0064479006497686e+03 -1.4915898264737474e+05 +6.6664483566324279e+07 
-9.3000000000000007e+00 -8.2411700570277224e-01 +1.8359431706479679e+00 +1.6507143253383408e+01 +6.3880869674973809e+01 -8.1230704119053516e+03 -1.4951804974266823e+05 +6.7121377054098710e+07 
-9.4000000000000004e+00 -8.2411785088131095e-01 +1.8359580932335990e+00 +1.6514139644899888e+01 +6.3728524106594243e+01 -8.2351436596985241e+03 -1.4965815606056844e+05 +6.7557054824822843e+07 
-9.5000000000000000e+00 -8.2411868749074546e-01 +1.8359745138146353e+00 +1.6520850592638961e+01 +6.3534344813739828e+01 -8.3418887807965530e+03 -1.4955286206733692e+05 +6.7968908889307976e+07 
-9.5999999999999996e+00 -8.2411951403310002e-01 +1.8359925115679756e+00 +1.6527212161733285e+01 +6.3294801452473720e+01 -8.4425274252245272e+03 -1.4917571639500535e+05 +6.8354333843301356e+07 
-9.6999999999999993e+00 -8.2412032901048560e-01 +1.8360121657387445e+00 +1.6533160432724625e+01 +6.3006361697051560e+01 -8.5362815925698251e+03 -1.4850025588897138e+05 +6.8710726089360178e+07 
-9.8000000000000007e+00 -8.2412113092520611e-01 +1.8360335556488470e+00 +1.6538631517027952e+01 +6.2665491038331659e+01 -8.6223739308680560e+03 -1.4750000454195394e+05 +6.9035485274836466e+07 
-9.9000000000000004e+00 -8.2412191827965686e-01 +1.8360567606902289e+00 +1.6543561539811883e+01 +6.2268652929334984e+01 -8.7000274070597479e+03 -1.4614847423573831e+05 +6.9326012707496881e+07 
-1.0000000000000000e+01 -8.2412268957641410e-01 +1.8360818603337115e+00 +1.6547886656771119e+01 +6.1812308827146701e+01 -8.7684656073144579e+03 -1.4441916705041446e+05 +6.9579712600814700e+07 
-1.0100000000000000e+01 -8.2412344375027735e-01 +1.8361088752117745e+00 +1.6551563977344173e+01 +6.1294772057096054e+01 -8.8271819576654834e+03 -1.4229776506222927e+05 +6.9794903693680435e+07 
