# field on trajectory
# s[mm] rx[mm] ry[mm] rz[mm] bx[T] by[T] bz[T]
0.0000000000000000e+00 +9.1905000000000001e+00 +0.0000000000000000e+00 +0.0000000000000000e+00 +1.1145051461134241e-02 -1.0326993075842645e+00 -5.8844394208476015e-02
-1.0000000000000001e-01 +9.1904994840078054e+00 +0.0000000000000000e+00 -9.9999999998225009e-02 +1.1145150906435143e-02 -1.0326977761709033e+00 -5.8844305077009391e-02
-2.0000000000000001e-01 +9.1904979360322230e+00 +0.0000000000000000e+00 -1.9999999998580015e-01 +1.1145251502139556e-02 -1.0326963548693535e+00 -5.8844229171714252e-02
-3.0000000000000004e-01 +9.1904953560746723e+00 +0.0000000000000000e+00 -2.9999999995207549e-01 +1.1145352408127748e-02 -1.0326950465249793e+00 -5.8844165767653993e-02
-4.0000000000000002e-01 +9.1904917441364606e+00 +0.0000000000000000e+00 -3.9999999988640123e-01 +1.1145452784291975e-02 -1.0326938539825303e+00 -5.8844114139879423e-02
-5.0000000000000000e-01 +9.1904871002187818e+00 +0.0000000000000000e+00 -4.9999999977812765e-01 +1.1145551790536296e-02 -1.0326927800862085e+00 -5.8844073563440867e-02
-5.9999999999999998e-01 +9.1904814243227069e+00 +0.0000000000000000e+00 -5.9999999961660488e-01 +1.1145648586776394e-02 -1.0326918276797439e+00 -5.8844043313400166e-02
-6.9999999999999996e-01 +9.1904747164491898e+00 +0.0000000000000000e+00 -6.9999999939118329e-01 +1.1145742332939385e-02 -1.0326909996064642e+00 -5.8844022664842711e-02
-7.9999999999999993e-01 +9.1904669765990583e+00 +0.0000000000000000e+00 -7.9999999909121311e-01 +1.1145832188963634e-02 -1.0326902987093647e+00 -5.8844010892889514e-02
-8.9999999999999991e-01 +9.1904582047730123e+00 +0.0000000000000000e+00 -8.9999999870604475e-01 +1.1145917314798569e-02 -1.0326897278311813e+00 -5.8844007272709199e-02
-9.9999999999999989e-01 +9.1904484009716239e+00 +0.0000000000000000e+00 -9.9999999822502839e-01 +1.1145996870404504e-02 -1.0326892898144606e+00 -5.8844011079530058e-02
-1.0999999999999999e+00 +9.1904375651953298e+00 +0.0000000000000000e+00 -1.0999999976375143e+00 +1.1146070015752452e-02 -1.0326889875016332e+00 -5.8844021588652116e-02
-1.2000000000000000e+00 +9.1904256974444358e+00 +0.0000000000000000e+00 -1.1999999969328530e+00 +1.1146135910823935e-02 -1.0326888237350813e+00 -5.8844038075459154e-02
-1.3000000000000000e+00 +9.1904127977191052e+00 +0.0000000000000000e+00 -1.2999999961003947e+00 +1.1146193715610802e-02 -1.0326888013572133e+00 -5.8844059815430692e-02
-1.4000000000000001e+00 +9.1903988660193612e+00 +0.0000000000000000e+00 -1.3999999951294897e+00 +1.1146242590115049e-02 -1.0326889232105343e+00 -5.8844086084154118e-02
-1.5000000000000002e+00 +9.1903839023450828e+00 +0.0000000000000000e+00 -1.4999999940094881e+00 +1.1146281694348640e-02 -1.0326891921377148e+00 -5.8844116157336666e-02
-1.6000000000000003e+00 +9.1903679066960038e+00 +0.0000000000000000e+00 -1.5999999927297404e+00 +1.1146310473162908e-02 -1.0326896090903546e+00 -5.8844149579172042e-02
-1.7000000000000004e+00 +9.1903508790717101e+00 +0.0000000000000000e+00 -1.6999999912795967e+00 +1.1146329510730907e-02 -1.0326901674549684e+00 -5.8844186967381841e-02
-1.8000000000000005e+00 +9.1903328194716458e+00 +0.0000000000000000e+00 -1.7999999896484071e+00 +1.1146339676045759e-02 -1.0326908587267125e+00 -5.8844229208096933e-02
-1.9000000000000006e+00 +9.1903137278951235e+00 +0.0000000000000000e+00 -1.8999999878255218e+00 +1.1146341838086308e-02 -1.0326916744006651e+00 -5.8844277187491620e-02
-2.0000000000000004e+00 +9.1902936043413295e+00 +0.0000000000000000e+00 -1.9999999858002910e+00 +1.1146336865814056e-02 -1.0326926059718344e+00 -5.8844331791779954e-02
-2.1000000000000005e+00 +9.1902724488093366e+00 +0.0000000000000000e+00 -2.0999999835620646e+00 +1.1146325628170009e-02 -1.0326936449351622e+00 -5.8844393907212307e-02
-2.2000000000000006e+00 +9.1902502612981092e+00 +0.0000000000000000e+00 -2.1999999811001927e+00 +1.1146308994071583e-02 -1.0326947827855288e+00 -5.8844464420071713e-02
-2.3000000000000007e+00 +9.1902270418065122e+00 +0.0000000000000000e+00 -2.2999999784040250e+00 +1.1146287832409478e-02 -1.0326960110177605e+00 -5.8844544216670396e-02
-2.4000000000000008e+00 +9.1902027903333234e+00 +0.0000000000000000e+00 -2.3999999754629116e+00 +1.1146263012044556e-02 -1.0326973211266328e+00 -5.8844634183346241e-02
-2.5000000000000009e+00 +9.1901775068772356e+00 +0.0000000000000000e+00 -2.4999999722662021e+00 +1.1146235401804719e-02 -1.0326987046068743e+00 -5.8844735206459171e-02
-2.6000000000000010e+00 +9.1901511914368701e+00 +0.0000000000000000e+00 -2.5999999688032460e+00 +1.1146205870481809e-02 -1.0327001529531754e+00 -5.8844848172387672e-02
-2.7000000000000011e+00 +9.1901238440107829e+00 +0.0000000000000000e+00 -2.6999999650633937e+00 +1.1146175286828472e-02 -1.0327016576601906e+00 -5.8844973967525180e-02
-2.8000000000000012e+00 +9.1900954645974746e+00 +0.0000000000000000e+00 -2.7999999610359945e+00 +1.1146144519555036e-02 -1.0327032102225455e+00 -5.8845113478276596e-02
-2.9000000000000012e+00 +9.1900660531953964e+00 +0.0000000000000000e+00 -2.8999999567103978e+00 +1.1146114437326410e-02 -1.0327048021348413e+00 -5.8845267591054698e-02
-3.0000000000000013e+00 +9.1900356098029619e+00 +0.0000000000000000e+00 -2.9999999520759530e+00 +1.1146085908758943e-02 -1.0327064248916586e+00 -5.8845437192276591e-02
-3.1000000000000014e+00 +9.1900041344185528e+00 +0.0000000000000000e+00 -3.0999999471220101e+00 +1.1146059802417322e-02 -1.0327080699875657e+00 -5.8845623168360124e-02
-3.2000000000000015e+00 +9.1899716270405296e+00 +0.0000000000000000e+00 -3.1999999418379179e+00 +1.1146036986811441e-02 -1.0327097289171225e+00 -5.8845826405720468e-02
-3.3000000000000016e+00 +9.1899380876672403e+00 +0.0000000000000000e+00 -3.2999999362130263e+00 +1.1146018330393286e-02 -1.0327113931748835e+00 -5.8846047790766368e-02
-3.4000000000000017e+00 +9.1899035162970240e+00 +0.0000000000000000e+00 -3.3999999302366843e+00 +1.1146004701553804e-02 -1.0327130542554073e+00 -5.8846288209896763e-02
-3.5000000000000018e+00 +9.1898679129282250e+00 +0.0000000000000000e+00 -3.4999999238982409e+00 +1.1145996968619794e-02 -1.0327147036532598e+00 -5.8846548549497127e-02
-3.6000000000000019e+00 +9.1898312775592004e+00 +0.0000000000000000e+00 -3.5999999171870454e+00 +1.1145995751979880e-02 -1.0327163336521334e+00 -5.8846829386126724e-02
-3.7000000000000020e+00 +9.1897936101883264e+00 +0.0000000000000000e+00 -3.6999999100924472e+00 +1.1146000680502952e-02 -1.0327179396923216e+00 -5.8847130057068452e-02
-3.8000000000000020e+00 +9.1897549108140009e+00 +0.0000000000000000e+00 -3.7999999026037954e+00 +1.1146011135216018e-02 -1.0327195180035849e+00 -5.8847449589724654e-02
-3.9000000000000021e+00 +9.1897151794346517e+00 +0.0000000000000000e+00 -3.8999998947104388e+00 +1.1146026497189387e-02 -1.0327210648160898e+00 -5.8847787011417053e-02
-4.0000000000000018e+00 +9.1896744160487387e+00 +0.0000000000000000e+00 -3.9999998864017265e+00 +1.1146046147540995e-02 -1.0327225763604369e+00 -5.8848141349379823e-02
-4.1000000000000014e+00 +9.1896326206547538e+00 +0.0000000000000000e+00 -4.0999998776670079e+00 +1.1146069467440824e-02 -1.0327240488676890e+00 -5.8848511630752852e-02
-4.2000000000000011e+00 +9.1895897932512316e+00 +0.0000000000000000e+00 -4.1999998684956310e+00 +1.1146095838115258e-02 -1.0327254785694007e+00 -5.8848896882574719e-02
-4.3000000000000007e+00 +9.1895459338367491e+00 +0.0000000000000000e+00 -4.2999998588769452e+00 +1.1146124640851456e-02 -1.0327268616976484e+00 -5.8849296131775988e-02
-4.4000000000000004e+00 +9.1895010424099279e+00 +0.0000000000000000e+00 -4.3999998488002996e+00 +1.1146155257001742e-02 -1.0327281944850564e+00 -5.8849708405172271e-02
-4.5000000000000000e+00 +9.1894551189694411e+00 +0.0000000000000000e+00 -4.4999998382550430e+00 +1.1146187067987956e-02 -1.0327294731648280e+00 -5.8850132729457348e-02
-4.5999999999999996e+00 +9.1894081635140168e+00 +0.0000000000000000e+00 -4.5999998272305245e+00 +1.1146219455305856e-02 -1.0327306939707728e+00 -5.8850568131196414e-02
-4.6999999999999993e+00 +9.1893601760424399e+00 +0.0000000000000000e+00 -4.6999998157160929e+00 +1.1146251800529489e-02 -1.0327318531373377e+00 -5.8851013636819084e-02
-4.7999999999999989e+00 +9.1893111565535577e+00 +0.0000000000000000e+00 -4.7999998037010974e+00 +1.1146283485315545e-02 -1.0327329468996334e+00 -5.8851468272612645e-02
-4.8999999999999986e+00 +9.1892611050462811e+00 +0.0000000000000000e+00 -4.8999997911748858e+00 +1.1146313891407770e-02 -1.0327339714934640e+00 -5.8851931064715181e-02
-4.9999999999999982e+00 +9.1892100215195942e+00 +0.0000000000000000e+00 -4.9999997781268073e+00 +1.1146342400641308e-02 -1.0327349231553573e+00 -5.8852401039108659e-02
-5.0999999999999979e+00 +9.1891579059725501e+00 +0.0000000000000000e+00 -5.0999997645462116e+00 +1.1146368394947107e-02 -1.0327357981225900e+00 -5.8852877221612136e-02
-5.1999999999999975e+00 +9.1891047584042820e+00 +0.0000000000000000e+00 -5.1999997504224469e+00 +1.1146391256356268e-02 -1.0327365926332217e+00 -5.8853358637874921e-02
-5.2999999999999972e+00 +9.1890505788140011e+00 +0.0000000000000000e+00 -5.2999997357448621e+00 +1.1146410367004452e-02 -1.0327373029261193e+00 -5.8853844313369645e-02
-5.3999999999999968e+00 +9.1889953672010041e+00 +0.0000000000000000e+00 -5.3999997205028061e+00 +1.1146425109136236e-02 -1.0327379252409881e+00 -5.8854333273385490e-02
-5.4999999999999964e+00 +9.1889391235646745e+00 +0.0000000000000000e+00 -5.4999997046856279e+00 +1.1146434865109496e-02 -1.0327384558183998e+00 -5.8854824543021309e-02
-5.5999999999999961e+00 +9.1888818479044883e+00 +0.0000000000000000e+00 -5.5999996882826766e+00 +1.1146439195071613e-02 -1.0327388921469458e+00 -5.8855317208141369e-02
-5.6999999999999957e+00 +9.1888235402200156e+00 +0.0000000000000000e+00 -5.6999996712833010e+00 +1.1146438369925708e-02 -1.0327392367042978e+00 -5.8855810598368696e-02
-5.7999999999999954e+00 +9.1887642005109171e+00 +0.0000000000000000e+00 -5.7999996536768501e+00 +1.1146432838208155e-02 -1.0327394932151486e+00 -5.8856304104388753e-02
-5.8999999999999950e+00 +9.1887038287769442e+00 +0.0000000000000000e+00 -5.8999996354526729e+00 +1.1146423048395438e-02 -1.0327396654039538e+00 -5.8856797117020271e-02
-5.9999999999999947e+00 +9.1886424250179299e+00 +0.0000000000000000e+00 -5.9999996166001193e+00 +1.1146409448900619e-02 -1.0327397569949075e+00 -5.8857289027223147e-02
-6.0999999999999943e+00 +9.1885799892337889e+00 +0.0000000000000000e+00 -6.0999995971085381e+00 +1.1146392488069734e-02 -1.0327397717119209e+00 -5.8857779226106140e-02
-6.1999999999999940e+00 +9.1885165214245141e+00 +0.0000000000000000e+00 -6.1999995769672784e+00 +1.1146372614178255e-02 -1.0327397132786007e+00 -5.8858267104934650e-02
-6.2999999999999936e+00 +9.1884520215901695e+00 +0.0000000000000000e+00 -6.2999995561656892e+00 +1.1146350275427508e-02 -1.0327395854182260e+00 -5.8858752055138588e-02
-6.3999999999999932e+00 +9.1883864897308882e+00 +0.0000000000000000e+00 -6.3999995346931202e+00 +1.1146325919941105e-02 -1.0327393918537273e+00 -5.8859233468320095e-02
-6.4999999999999929e+00 +9.1883199258468711e+00 +0.0000000000000000e+00 -6.4999995125389205e+00 +1.1146299995761376e-02 -1.0327391363076632e+00 -5.8859710736261291e-02
-6.5999999999999925e+00 +9.1882523299383809e+00 +0.0000000000000000e+00 -6.5999994896924399e+00 +1.1146272950845805e-02 -1.0327388225021996e+00 -5.8860183250932244e-02
-6.6999999999999922e+00 +9.1881837020057375e+00 +0.0000000000000000e+00 -6.6999994661430273e+00 +1.1146245233063455e-02 -1.0327384541590858e+00 -5.8860650404498491e-02
-6.7999999999999918e+00 +9.1881140420493175e+00 +0.0000000000000000e+00 -6.7999994418800327e+00 +1.1146217290191392e-02 -1.0327380349996349e+00 -5.8861111589329058e-02
-6.8999999999999915e+00 +9.1880433500695453e+00 +0.0000000000000000e+00 -6.8999994168928058e+00 +1.1146189569911145e-02 -1.0327375687446994e+00 -5.8861566198004159e-02
-6.9999999999999911e+00 +9.1879716260668935e+00 +0.0000000000000000e+00 -6.9999993911706957e+00 +1.1146162519805103e-02 -1.0327370591146494e+00 -5.8862013623323030e-02
-7.0999999999999908e+00 +9.1878988700418809e+00 +0.0000000000000000e+00 -7.0999993647030522e+00 +1.1146136587352961e-02 -1.0327365098293513e+00 -5.8862453258311589e-02
-7.1999999999999904e+00 +9.1878250819950615e+00 +0.0000000000000000e+00 -7.1999993374792250e+00 +1.1146112219928167e-02 -1.0327359246081453e+00 -5.8862884496230471e-02
-7.2999999999999901e+00 +9.1877502619270288e+00 +0.0000000000000000e+00 -7.2999993094885642e+00 +1.1146089864794326e-02 -1.0327353071698233e+00 -5.8863306730582640e-02
-7.3999999999999897e+00 +9.1876744098384080e+00 +0.0000000000000000e+00 -7.3999992807204196e+00 +1.1146069969101646e-02 -1.0327346612326054e+00 -5.8863719355121205e-02
-7.4999999999999893e+00 +9.1875975257298510e+00 +0.0000000000000000e+00 -7.4999992511641409e+00 +1.1146052979883365e-02 -1.0327339905141202e+00 -5.8864121763857330e-02
-7.5999999999999890e+00 +9.1875196096020382e+00 +0.0000000000000000e+00 -7.5999992208090781e+00 +1.1146039231105619e-02 -1.0327332988973901e+00 -5.8864513618942502e-02
-7.6999999999999886e+00 +9.1874406614556658e+00 +0.0000000000000000e+00 -7.6999991896445801e+00 +1.1146028604888147e-02 -1.0327325909280405e+00 -5.8864895654230365e-02
-7.7999999999999883e+00 +9.1873606812914517e+00 +0.0000000000000000e+00 -7.7999991576599976e+00 +1.1146020870478526e-02 -1.0327318713147711e+00 -5.8865268871480400e-02
-7.8999999999999879e+00 +9.1872796691101222e+00 +0.0000000000000000e+00 -7.8999991248446806e+00 +1.1146015797225694e-02 -1.0327311447630361e+00 -5.8865634272447058e-02
-7.9999999999999876e+00 +9.1871976249124110e+00 +0.0000000000000000e+00 -7.9999990911879788e+00 +1.1146013154583655e-02 -1.0327304159749420e+00 -5.8865992858878086e-02
-8.0999999999999872e+00 +9.1871145486990553e+00 +0.0000000000000000e+00 -8.0999990566792430e+00 +1.1146012712115167e-02 -1.0327296896491442e+00 -5.8866345632513362e-02
-8.1999999999999869e+00 +9.1870304404707888e+00 +0.0000000000000000e+00 -8.1999990213078231e+00 +1.1146014239495473e-02 -1.0327289704807447e+00 -5.8866693595083210e-02
-8.2999999999999865e+00 +9.1869453002283397e+00 +0.0000000000000000e+00 -8.2999989850630680e+00 +1.1146017506515988e-02 -1.0327282631611907e+00 -5.8867037748307156e-02
-8.3999999999999861e+00 +9.1868591279724221e+00 +0.0000000000000000e+00 -8.3999989479343284e+00 +1.1146022283088019e-02 -1.0327275723781695e+00 -5.8867379093892364e-02
-8.4999999999999858e+00 +9.1867719237037360e+00 +0.0000000000000000e+00 -8.4999989099109552e+00 +1.1146028339246444e-02 -1.0327269028155075e+00 -5.8867718633532247e-02
-8.5999999999999854e+00 +9.1866836874229598e+00 +0.0000000000000000e+00 -8.5999988709822972e+00 +1.1146035445153470e-02 -1.0327262591530688e+00 -5.8868057368905075e-02
-8.6999999999999851e+00 +9.1865944191307456e+00 +0.0000000000000000e+00 -8.6999988311377052e+00 +1.1146043371102284e-02 -1.0327256460666485e+00 -5.8868396301672413e-02
-8.7999999999999847e+00 +9.1865041188277150e+00 +0.0000000000000000e+00 -8.7999987903665300e+00 +1.1146051887520790e-02 -1.0327250682278737e+00 -5.8868736433477710e-02
-8.8999999999999844e+00 +9.1864127865144543e+00 +0.0000000000000000e+00 -8.8999987486581205e+00 +1.1146060764975319e-02 -1.0327245303040993e+00 -5.8869078765944931e-02
-8.9999999999999840e+00 +9.1863204221915105e+00 +0.0000000000000000e+00 -8.9999987060018274e+00 +1.1146069774174323e-02 -1.0327240369583053e+00 -5.8869424300677063e-02
-9.0999999999999837e+00 +9.1862270258593863e+00 +0.0000000000000000e+00 -9.0999986623869997e+00 +1.1146078685972095e-02 -1.0327235928489931e+00 -5.8869774039254558e-02
-9.1999999999999833e+00 +9.1861325975185348e+00 +0.0000000000000000e+00 -9.1999986178029882e+00 +1.1146087271372467e-02 -1.0327232026300843e+00 -5.8870128983234044e-02
-9.2999999999999829e+00 +9.1860371371693557e+00 +0.0000000000000000e+00 -9.2999985722391436e+00 +1.1146095301532537e-02 -1.0327228709508172e+00 -5.8870490134146782e-02
-9.3999999999999826e+00 +9.1859406448121916e+00 +0.0000000000000000e+00 -9.3999985256848149e+00 +1.1146102547766353e-02 -1.0327226024556417e+00 -5.8870858493497179e-02
-9.4999999999999822e+00 +9.1858431204473181e+00 +0.0000000000000000e+00 -9.4999984781293509e+00 +1.1146108781548652e-02 -1.0327224017841208e+00 -5.8871235062761373e-02
-9.5999999999999819e+00 +9.1857445640749482e+00 +0.0000000000000000e+00 -9.5999984295621026e+00 +1.1146113892956685e-02 -1.0327222714985695e+00 -5.8871620544926555e-02
-9.6999999999999815e+00 +9.1856449756952223e+00 +0.0000000000000000e+00 -9.6999983799724205e+00 +1.1146118245896718e-02 -1.0327222058707977e+00 -5.8872014448999282e-02
-9.7999999999999812e+00 +9.1855443553082168e+00 +0.0000000000000000e+00 -9.7999983293496520e+00 +1.1146122322580334e-02 -1.0327221971060747e+00 -5.8872415985305383e-02
-9.8999999999999808e+00 +9.1854427029139512e+00 +0.0000000000000000e+00 -9.8999982776831494e+00 +1.1146126605042465e-02 -1.0327222374167557e+00 -5.8872824363956203e-02
-9.9999999999999805e+00 +9.1853400185123988e+00 +0.0000000000000000e+00 -9.9999982249622601e+00 +1.1146131575136298e-02 -1.0327223190224952e+00 -5.8873238794842638e-02
-1.0099999999999980e+01 +9.1852363021034868e+00 +0.0000000000000000e+00 -1.0099998171176335e+01 +1.1146137714528097e-02 -1.0327224341504515e+00 -5.8873658487629182e-02
-1.0199999999999980e+01 +9.1851315536871141e+00 +0.0000000000000000e+00 -1.0199998116314722e+01 +1.1146145504692107e-02 -1.0327225750354954e+00 -5.8874082651748046e-02
-1.0299999999999979e+01 +9.1850257732631508e+00 +0.0000000000000000e+00 -1.0299998060366772e+01 +1.1146155426905408e-02 -1.0327227339204201e+00 -5.8874510496393161e-02
-1.0399999999999979e+01 +9.1849189608314514e+00 +0.0000000000000000e+00 -1.0399998003321834e+01 +1.1146167962242772e-02 -1.0327229030561491e+00 -5.8874941230514316e-02
-1.0499999999999979e+01 +9.1848111163918578e+00 +0.0000000000000000e+00 -1.0499997945169257e+01 +1.1146183591571537e-02 -1.0327230747019407e+00 -5.8875374062811014e-02
-1.0599999999999978e+01 +9.1847022399442100e+00 +0.0000000000000000e+00 -1.0599997885898391e+01 +1.1146202795546447e-02 -1.0327232411256020e+00 -5.8875808201726831e-02
-1.0699999999999978e+01 +9.1845923314883553e+00 +0.0000000000000000e+00 -1.0699997825498587e+01 +1.1146226054604542e-02 -1.0327233946036936e+00 -5.8876242855443198e-02
-1.0799999999999978e+01 +9.1844813910241516e+00 +0.0000000000000000e+00 -1.0799997763959190e+01 +1.1146253848959968e-02 -1.0327235274217377e+00 -5.8876677231873627e-02
-1.0899999999999977e+01 +9.1843694185514781e+00 +0.0000000000000000e+00 -1.0899997701269553e+01 +1.1146286658598894e-02 -1.0327236318744299e+00 -5.8877110538657726e-02
-1.0999999999999977e+01 +9.1842564140702443e+00 +0.0000000000000000e+00 -1.0999997637419025e+01 +1.1146324963274291e-02 -1.0327237002658447e+00 -5.8877541983155202e-02
-1.1099999999999977e+01 +9.1841423775803932e+00 +0.0000000000000000e+00 -1.1099997572396955e+01 +1.1146369242500842e-02 -1.0327237249096448e+00 -5.8877970772440016e-02
-1.1199999999999976e+01 +9.1840273090819142e+00 +0.0000000000000000e+00 -1.1199997506192693e+01 +1.1146419975549757e-02 -1.0327236981292904e+00 -5.8878396113294373e-02
-1.1299999999999976e+01 +9.1839112085748464e+00 +0.0000000000000000e+00 -1.1299997438795588e+01 +1.1146477641443629e-02 -1.0327236122582475e+00 -5.8878817212202783e-02
-1.1399999999999975e+01 +9.1837940760592893e+00 +0.0000000000000000e+00 -1.1399997370194990e+01 +1.1146542718951274e-02 -1.0327234596401962e+00 -5.8879233275346152e-02
-1.1499999999999975e+01 +9.1836759115354081e+00 +0.0000000000000000e+00 -1.1499997300380249e+01 +1.1146615686582572e-02 -1.0327232326292413e+00 -5.8879643508595828e-02
-1.1599999999999975e+01 +9.1835567150034425e+00 +0.0000000000000000e+00 -1.1599997229340714e+01 +1.1146696839241849e-02 -1.0327229266333233e+00 -5.8880047191483695e-02
-1.1699999999999974e+01 +9.1834364864637106e+00 +0.0000000000000000e+00 -1.1699997157065734e+01 +1.1146785738299471e-02 -1.0327225492401080e+00 -5.8880443899347497e-02
