# multipoles
# s[mm] polynom_b[n=0][T/m^n] polynom_b[n=1][T/m^n] polynom_b[n=2][T/m^n] polynom_b[n=3][T/m^n] polynom_b[n=4][T/m^n] polynom_b[n=5][T/m^n] polynom_b[n=6][T/m^n] 
+0.0000000000000000e+00 -1.0337732014496790e+00 +2.2870547307925428e+00 +1.7809786923439148e+01 +2.2548349771005579e+02 +3.0608617480798061e+04 -2.8241223044610914e+05 -1.0738667964095080e+08 
+1.0000000000000001e-01 -1.0337719215293499e+00 +2.2870546852867233e+00 +1.7883322595732100e+01 +2.3453122121820252e+02 +2.9829347687538182e+04 -3.6356936562135606e+05 -1.0568366755094953e+08 
+2.0000000000000001e-01 -1.0337706847945582e+00 +2.2870766771261213e+00 +1.7966065103796453e+01 +2.4343159494561479e+02 +2.8893712088336968e+04 -4.4435829690607399e+05 -1.0329826242441043e+08 
+3.0000000000000004e-01 -1.0337694945848619e+00 +2.2871233614656337e+00 +1.8058490628806396e+01 +2.5216774007830500e+02 +2.7793546940593591e+04 -5.2479194941102830e+05 -1.0019369768174088e+08 
+4.0000000000000002e-01 -1.0337683542398097e+00 +2.2871973934357834e+00 +1.8161075320045487e+01 +2.6072277796634251e+02 +2.6520689388807063e+04 -6.0488324573508301e+05 -9.6333212065293357e+07 
+5.0000000000000000e-01 -1.0337672670989495e+00 +2.2873014281404687e+00 +1.8274295291738341e+01 +2.6907983012041262e+02 +2.5066977555893103e+04 -6.8464510559511906e+05 -9.1680050175056815e+07 
+5.9999999999999998e-01 -1.0337662349321182e+00 +2.2874373189493551e+00 +1.8398307691185064e+01 +2.7722343458230114e+02 +2.3429359007757394e+04 -7.6406200617240230e+05 -8.6218781203694299e+07 
+6.9999999999999996e-01 -1.0337652533335262e+00 +2.2876037373775557e+00 +1.8532013496193535e+01 +2.8514364764589351e+02 +2.1624910837265703e+04 -8.4300473470347258e+05 -8.0017963003679350e+07 
+7.9999999999999993e-01 -1.0337643163791199e+00 +2.2877985656479538e+00 +1.8674004495681395e+01 +2.9283186812564628e+02 +1.9675667053334011e+04 -9.2131566996503889e+05 -7.3166831905684680e+07 
+8.9999999999999991e-01 -1.0337634181449342e+00 +2.2880196860278947e+00 +1.8822872475859779e+01 +3.0027949329972046e+02 +1.7603661844597900e+04 -9.9883718066917756e+05 -6.5754625635642625e+07 
+9.9999999999999989e-01 -1.0337625527070378e+00 +2.2882649808325914e+00 +1.8977209219787039e+01 +3.0747791891847862e+02 +1.5430929530178722e+04 -1.0754116262078704e+06 -5.7870582882873453e+07 
+1.0999999999999999e+00 -1.0337617141416418e+00 +2.2885323324429354e+00 +1.9135606526356565e+01 +3.1441853877447812e+02 +1.3179504158734655e+04 -1.1508813548246182e+06 -4.9603941246048860e+07 
+1.2000000000000000e+00 -1.0337608965249847e+00 +2.2888196233248346e+00 +1.9296656200113574e+01 +3.2109274423004001e+02 +1.0871419655225676e+04 -1.2250887015195682e+06 -4.1043937760423355e+07 
+1.3000000000000000e+00 -1.0337600939335088e+00 +2.2891247360389908e+00 +1.9458950080621378e+01 +3.2749192404126899e+02 +8.5287092080370658e+03 -1.2978759877483111e+06 -3.2279805795989398e+07 
+1.4000000000000001e+00 -1.0337593004437868e+00 +2.2894455532600286e+00 +1.9621080037144242e+01 +3.3360746388650233e+02 +6.1734053316745794e+03 -1.3690855193213520e+06 -2.3400775210000269e+07 
+1.5000000000000002e+00 -1.0337585101325435e+00 +2.2897799577869660e+00 +1.9781637977705170e+01 +3.3943074616479618e+02 +3.8275396398804746e+03 -1.4385595859298012e+06 -1.4496071077481071e+07 
+1.6000000000000003e+00 -1.0337577170767160e+00 +2.2901258325678473e+00 +1.9939215861173043e+01 +3.4495314936146360e+02 +1.5131425752967493e+03 -1.5061404581009927e+06 -5.6549122548915371e+06 
+1.7000000000000004e+00 -1.0337569153534503e+00 +2.2904810607029891e+00 +2.0092405703606129e+01 +3.5016604806455848e+02 -7.4775676632101693e+02 -1.5716703880112299e+06 +3.0334896447374416e+06 
+1.8000000000000005e+00 -1.0337560990401398e+00 +2.2908435254677482e+00 +2.0239799587053419e+01 +3.5506081238528122e+02 -2.9331308421391641e+03 -1.6349916067566674e+06 +1.1479931380426392e+07 
+1.9000000000000006e+00 -1.0337552622143844e+00 +2.2912111103238986e+00 +2.0379989660563602e+01 +3.5962880773176340e+02 -5.0209537342139547e+03 -1.6959463237432456e+06 +1.9595218608420461e+07 
+2.0000000000000004e+00 -1.0337543989541220e+00 +2.2915816989427666e+00 +2.0511568162488992e+01 +3.6386139423134892e+02 -6.9892016219494863e+03 -1.7543767240059022e+06 +2.7290168300974395e+07 
+2.1000000000000005e+00 -1.0337535033375151e+00 +2.2919531752055473e+00 +2.0633127410464098e+01 +3.6774992680231230e+02 -8.8158526310593716e+03 -1.8101249692544469e+06 +3.4475608177077137e+07 
+2.2000000000000006e+00 -1.0337525694431120e+00 +2.2923234232378742e+00 +2.0743259828310794e+01 +3.7128575426531467e+02 -1.0478887403476007e+04 -1.8630331934542207e+06 +4.1062379614326179e+07 
+2.3000000000000007e+00 -1.0337515913497453e+00 +2.2926903274044750e+00 +2.0840557937862542e+01 +3.7446021957278037e+02 -1.1956288977872309e+04 -1.9129435047728207e+06 +4.6961337213888951e+07 
+2.4000000000000008e+00 -1.0337505631366468e+00 +2.2930517723403767e+00 +2.0923614379879105e+01 +3.7726465901533174e+02 -1.3226043247869025e+04 -1.9596979816916524e+06 +5.2083351190847188e+07 
+2.5000000000000009e+00 -1.0337494788834058e+00 +2.2934056429613920e+00 +2.0991021912909044e+01 +3.7969040209784703e+02 -1.4266138961493147e+04 -2.0031386730331373e+06 +5.6339307471198820e+07 
+2.6000000000000010e+00 -1.0337483343425207e+00 +2.2937502842179605e+00 +2.1041751140308314e+01 +3.8173214944937888e+02 -1.5060177329115648e+04 -2.0431558979678750e+06 +5.9661482466317423e+07 
+2.7000000000000011e+00 -1.0337471314384266e+00 +2.2940857611545833e+00 +2.1076196334716883e+01 +3.8339702677988640e+02 -1.5612810339882717e+04 -2.0798176001066212e+06 +6.2061721919102088e+07 
+2.8000000000000012e+00 -1.0337458735119061e+00 +2.2944125410509790e+00 +2.1095086503168833e+01 +3.8469497874257820e+02 -1.5933611749433658e+04 -2.1132321708574779e+06 +6.3570291076124728e+07 
+2.9000000000000012e+00 -1.0337445639036720e+00 +2.2947310911792385e+00 +2.1099150643810688e+01 +3.8563595007618522e+02 -1.6032155037763070e+04 -2.1435080005058330e+06 +6.4217453297946788e+07 
+3.0000000000000013e+00 -1.0337432059543481e+00 +2.2950418787764213e+00 +2.1089117739607321e+01 +3.8622988640062351e+02 -1.5918013254496840e+04 -2.1707534825497428e+06 +6.4033469202799745e+07 
+3.1000000000000014e+00 -1.0337418030044225e+00 +2.2953453710439962e+00 +2.1065716751612886e+01 +3.8648673417543210e+02 -1.5600758874919795e+04 -2.1950770129863289e+06 +6.3048595906063095e+07 
+3.2000000000000015e+00 -1.0337403583942451e+00 +2.2956420351257254e+00 +2.1029676615122010e+01 +3.8641644127557072e+02 -1.5089963686138644e+04 -2.2165869931154414e+06 +6.1293086331159391e+07 
+3.3000000000000016e+00 -1.0337388754639631e+00 +2.2959323380931052e+00 +2.0981726228846991e+01 +3.8602895738822929e+02 -1.4395198552982196e+04 -2.2353918314500819e+06 +5.8797187986811131e+07 
+3.4000000000000017e+00 -1.0337373575535642e+00 +2.2962167469358050e+00 +2.0922594458349195e+01 +3.8533423421831344e+02 -1.3526033457597487e+04 -2.2515999443696248e+06 +5.5591143052639514e+07 
+3.5000000000000018e+00 -1.0337358080027774e+00 +2.2964957285420886e+00 +2.0853010120322569e+01 +3.8434222601519838e+02 -1.2492037164300109e+04 -2.2653197587226299e+06 +5.1705186649353802e+07 
+3.6000000000000019e+00 -1.0337342301511008e+00 +2.2967697496869146e+00 +2.0773701984764116e+01 +3.8306288986402762e+02 -1.1302777237718057e+04 -2.2766597130444539e+06 +4.7169546828842878e+07 
+3.7000000000000020e+00 -1.0337326273377407e+00 +2.2970392770218493e+00 +2.0685398763554588e+01 +3.8150618592841977e+02 -9.9678197925579880e+03 -2.2857282584755733e+06 +4.2014443263185956e+07 
+3.8000000000000020e+00 -1.0337310029016640e+00 +2.2973047770495589e+00 +2.0588829114679200e+01 +3.7968207814513943e+02 -8.4967295394609300e+03 -2.2926338623509491e+06 +3.6270087328735426e+07 
+3.9000000000000021e+00 -1.0337293601814403e+00 +2.2975667161238937e+00 +2.0484721620542878e+01 +3.7760053415155340e+02 -6.8990693518310036e+03 -2.2974850072352150e+06 +2.9966679961870819e+07 
+4.0000000000000018e+00 -1.0337277025153284e+00 +2.2978255604264035e+00 +2.0373804795768311e+01 +3.7527152593843999e+02 -5.1844003775985138e+03 -2.3003901942979647e+06 +2.3134412051313259e+07 
+4.1000000000000014e+00 -1.0337260332412497e+00 +2.2980817759544547e+00 +2.0256807080833280e+01 +3.7270503013468482e+02 -3.3622818864527508e+03 -2.3014579444714226e+06 +1.5803463593769191e+07 
+4.2000000000000011e+00 -1.0337243556967020e+00 +2.2983358285028883e+00 +2.0134456829810269e+01 +3.6991102848385987e+02 -1.4422710161471236e+03 -2.3007968007229115e+06 +8.0040023986875499e+06 
+4.3000000000000007e+00 -1.0337226732187477e+00 +2.2985881836608657e+00 +2.0007482305448171e+01 +3.6689950788297205e+02 +5.6607736255411919e+02 -2.2985153277915884e+06 -2.3381670553586347e+05 
+4.4000000000000004e+00 -1.0337209891440231e+00 +2.2988393067834396e+00 +1.9876611678098218e+01 +3.6368046117601756e+02 +2.6532106863914792e+03 -2.2947221163824536e+06 -8.8798521489822511e+06 
+4.5000000000000000e+00 -1.0337193068086905e+00 +2.2990896629857889e+00 +1.9742573015908359e+01 +3.6026388704478131e+02 +4.8095789104547366e+03 -2.2895257810224462e+06 -1.7903976672079671e+07 
+4.5999999999999996e+00 -1.0337176296923050e+00 +2.2993397446735040e+00 +1.9606075244635512e+01 +3.5665638078817261e+02 +7.0255364856735750e+03 -2.2830065336230262e+06 -2.7273591406193722e+07 
+4.6999999999999993e+00 -1.0337159623507708e+00 +2.2995901182929761e+00 +1.9467820843014572e+01 +3.5285435441844925e+02 +9.2897734385208041e+03 -2.2751592512121294e+06 -3.6940419771306269e+07 
+4.7999999999999989e+00 -1.0337143097354575e+00 +2.2998413560398245e+00 +1.9328528423016600e+01 +3.4885262772832090e+02 +1.1590229711476908e+04 -2.2659650101640210e+06 -4.6850714732752576e+07 
+4.8999999999999986e+00 -1.0337126767980831e+00 +2.3000940298519521e+00 +1.9188916647412633e+01 +3.4464602859914748e+02 +1.3914844083899994e+04 -2.2554049371272195e+06 -5.6950722808392256e+07 
+4.9999999999999982e+00 -1.0337110684907376e+00 +2.3003487114107308e+00 +1.9049704229270557e+01 +3.4022939282374091e+02 +1.6251554216028984e+04 -2.2434602075483315e+06 -6.7186684378063798e+07 
+5.0999999999999979e+00 -1.0337094897658445e+00 +2.3006059721366685e+00 +1.8911609929002591e+01 +3.3559756428883520e+02 +1.8588296684091369e+04 -2.2301120470164064e+06 -7.7504833762901112e+07 
+5.1999999999999975e+00 -1.0337079455762839e+00 +2.3008663831723131e+00 +1.8775352568773890e+01 +3.3074539546095281e+02 +2.0913006696265435e+04 -2.2153417341993232e+06 -8.7851397814767629e+07 
+5.2999999999999972e+00 -1.0337064408752885e+00 +2.3011305153770092e+00 +1.8641651020346764e+01 +3.2566774759396134e+02 +2.3213618310282942e+04 -2.1991306023192140e+06 -9.8172596882624596e+07 
+5.3999999999999968e+00 -1.0337049806165386e+00 +2.3013989393090868e+00 +1.8511224216957721e+01 +3.2035949126467256e+02 +2.5478064195995401e+04 -2.1814600424643154e+06 -1.0841464362380870e+08 
+5.4999999999999964e+00 -1.0337035697541930e+00 +2.3016722252196375e+00 +1.8384791157524049e+01 +3.1481550657170806e+02 +2.7694275541542444e+04 -2.1623115049117985e+06 -1.1852374248652184e+08 
+5.5999999999999961e+00 -1.0337022132428619e+00 +2.3019509430353602e+00 +1.8263070903879527e+01 +3.0903068367474634e+02 +2.9850182089188889e+04 -2.1416665025104936e+06 -1.2844608980485272e+08 
+5.6999999999999957e+00 -1.0337009160376258e+00 +2.3022356623554114e+00 +1.8146782582280068e+01 +3.0299992291224464e+02 +3.1933712101915811e+04 -2.1195066115759932e+06 -1.3812787359546286e+08 
+5.7999999999999954e+00 -1.0336996830941307e+00 +2.3025269524337837e+00 +1.8036645396857217e+01 +2.9671813532093410e+02 +3.3932792086967303e+04 -2.0958134750531218e+06 -1.4751527215628922e+08 
+5.8999999999999950e+00 -1.0336985193685244e+00 +2.3028253821685154e+00 +1.7933378621245883e+01 +2.9018024300595584e+02 +3.5835346946114238e+04 -2.0705688049635242e+06 -1.5655445472621658e+08 
+5.9999999999999947e+00 -1.0336974298175132e+00 +2.3031315200887392e+00 +1.7837701605928018e+01 +2.8338117953212628e+02 +3.7629299819307285e+04 -2.0437543848474817e+06 -1.6519158066223881e+08 
+6.0999999999999943e+00 -1.0336964193983955e+00 +2.3034459343534910e+00 +1.7750333782627003e+01 +2.7631588996617961e+02 +3.9302571994497892e+04 -2.0153520701655594e+06 -1.7337279896648070e+08 
+6.1999999999999940e+00 -1.0336954930690243e+00 +2.3037691927230255e+00 +1.7671994660281868e+01 +2.6897933177131404e+02 +4.0843082964311914e+04 -1.9853437938015689e+06 -1.8104424846650851e+08 
+6.2999999999999936e+00 -1.0336946557878979e+00 +2.3041018625648020e+00 +1.7603403836044727e+01 +2.6136647464052845e+02 +4.2238750209230493e+04 -1.9537115652348534e+06 -1.8815205673504129e+08 
+6.3999999999999932e+00 -1.0336939125141373e+00 +2.3044445108288882e+00 +1.7545280992963892e+01 +2.5347230123421699e+02 +4.3477489226308549e+04 -1.9204374750427378e+06 -1.9464234015107524e+08 
+6.4999999999999929e+00 -1.0336932682074573e+00 +2.3047977040148502e+00 +1.7498345891527151e+01 +2.4529180761781478e+02 +4.4547213647556404e+04 -1.8855036955416317e+06 -2.0046120421242210e+08 
+6.5999999999999925e+00 -1.0336927261239413e+00 +2.3051615974816588e+00 +1.7463037931491016e+01 +2.3682692371401984e+02 +4.5440486263925646e+04 -1.8489190010506907e+06 -2.0557418986855504e+08 
+6.6999999999999922e+00 -1.0336922826248411e+00 +2.3055349762946147e+00 +1.7438693931862449e+01 +2.2810463836770376e+02 +4.6168167207928884e+04 -1.8107977050736966e+06 -2.1002359394486567e+08 
+6.7999999999999918e+00 -1.0336919322984304e+00 +2.3059163505743148e+00 +1.7424374344063448e+01 +2.1915751022303212e+02 +4.6745711902646588e+04 -1.7712799557129689e+06 -2.1387106864586526e+08 
+6.8999999999999915e+00 -1.0336916697327259e+00 +2.3063042309331072e+00 +1.7419139615684706e+01 +2.1001808132946897e+02 +4.7188575374198968e+04 -1.7305057994898909e+06 -2.1717826265173572e+08 
+6.9999999999999911e+00 -1.0336914895155507e+00 +2.3066971284561637e+00 +1.7422050203131032e+01 +2.0071887734393184e+02 +4.7512211995171252e+04 -1.6886151814533980e+06 -2.2000681987627849e+08 
+7.0999999999999908e+00 -1.0336913862345039e+00 +2.3070935547330169e+00 +1.7432166571196838e+01 +1.9129240650303529e+02 +4.7732075463641748e+04 -1.6457479389213661e+06 -2.2241837928108954e+08 
+7.1999999999999904e+00 -1.0336913544769748e+00 +2.3074920218656474e+00 +1.7448549193726642e+01 +1.8177115930887373e+02 +4.7863618789688713e+04 -1.6020437994776843e+06 -2.2447457480083075e+08 
+7.2999999999999901e+00 -1.0336913888301635e+00 +2.3078910425038019e+00 +1.7470258559105595e+01 +1.7218760738281549e+02 +4.7922294162505968e+04 -1.5576423739894486e+06 -2.2623703462352729e+08 
+7.3999999999999897e+00 -1.0336914838810050e+00 +2.3082891298569010e+00 +1.7496355160759308e+01 +1.6257420304194227e+02 +4.7923553126361308e+04 -1.5126831539713922e+06 -2.2776738201083979e+08 
+7.4999999999999893e+00 -1.0336916342161853e+00 +2.3086847977186942e+00 +1.7525899500864210e+01 +1.5296337845763770e+02 +4.7882846487797986e+04 -1.4673055063654163e+06 -2.2912723478400174e+08 
+7.5999999999999890e+00 -1.0336918344221637e+00 +2.3090765604900882e+00 +1.7557952093829218e+01 +1.4338754491981499e+02 +4.7815624239176817e+04 -1.4216486691023002e+06 -2.3037820492674750e+08 
+7.6999999999999886e+00 -1.0336920790850419e+00 +2.3094629332010084e+00 +1.7591573450734444e+01 +1.3387909208216689e+02 +4.7737335839209431e+04 -1.3758517464009775e+06 -2.3158189986799577e+08 
+7.7999999999999883e+00 -1.0336923627907300e+00 +2.3098424315290194e+00 +1.7625824102396969e+01 +1.2447038732548198e+02 +4.7663429753508586e+04 -1.3300537048402643e+06 -2.3279992023344377e+08 
+7.8999999999999879e+00 -1.0336926801247965e+00 +2.3102135718249301e+00 +1.7659764580188767e+01 +1.1519377493456854e+02 +4.7609353811960973e+04 -1.2843933683795810e+06 -2.3409386151544055e+08 
+7.9999999999999876e+00 -1.0336930256725254e+00 +2.3105748711271579e+00 +1.7692455425859766e+01 +1.0608157555274875e+02 +4.7590554999360276e+04 -1.2390094148618339e+06 -2.3552531301056740e+08 
+8.0999999999999872e+00 -1.0336933940188369e+00 +2.3109248471945483e+00 +1.7722957180816024e+01 +9.7166085146993851e+01 +4.7622479651514208e+04 -1.1940403698009155e+06 -2.3715585871849033e+08 
+8.1999999999999869e+00 -1.0336937797483523e+00 +2.3112620185200665e+00 +1.7750330397322653e+01 +8.8479574512673381e+01 +4.7720573221906052e+04 -1.1496246032668001e+06 -2.3904707617598206e+08 
+8.2999999999999865e+00 -1.0336941774453421e+00 +2.3115849043534018e+00 +1.7773635631537793e+01 +8.0054288492853829e+01 +4.7900280400542171e+04 -1.1059003250250632e+06 -2.4126053696922222e+08 
+8.3999999999999861e+00 -1.0336945816937138e+00 +2.3118920247233512e+00 +1.7791933444115308e+01 +7.1922445275671947e+01 +4.8177045086660008e+04 -1.0630055803471678e+06 -2.4385780655806205e+08 
+8.4999999999999858e+00 -1.0336949870773571e+00 +2.3121819005654403e+00 +1.7804284463583187e+01 +6.4116234238376123e+01 +4.8566309173896720e+04 -1.0210782549787166e+06 -2.4690043977777705e+08 
+8.5999999999999854e+00 -1.0336953893736411e+00 +2.3124535724000537e+00 +1.7810015396539956e+01 +5.6658170248008894e+01 +4.9078670132617597e+04 -9.8023242697337561e+05 -2.5042988503450343e+08 
+8.6999999999999851e+00 -1.0336957885576379e+00 +2.3127077546220813e+00 +1.7809386332507611e+01 +4.9537608869128611e+01 +4.9707949084126027e+04 -9.4048421680418984e+05 -2.5441794469429502e+08 
+8.7999999999999847e+00 -1.0336961855492035e+00 +2.3129454923739674e+00 +1.7802865962212831e+01 +4.2736731346700367e+01 +5.0444278521112697e+04 -9.0182445388335281e+05 -2.5882116107900697e+08 
+8.8999999999999844e+00 -1.0336965812678973e+00 +2.3131678305645940e+00 +1.7790922884411529e+01 +3.6237728660714758e+01 +5.1277793672792155e+04 -8.6424403169363085e+05 -2.6359609279490963e+08 
+8.9999999999999840e+00 -1.0336969766328807e+00 +2.3133758138528160e+00 +1.7774025588417164e+01 +3.0022802760368808e+01 +5.2198632811404830e+04 -8.2773391735447268e+05 -2.6869931604414725e+08 
+9.0999999999999837e+00 -1.0336973725629757e+00 +2.3135704866367583e+00 +1.7752642460338407e+01 +2.4074166988298945e+01 +5.3196937163270886e+04 -7.9228515435065143e+05 -2.7408742430562079e+08 
+9.1999999999999833e+00 -1.0336977699765615e+00 +2.3137528930477522e+00 +1.7727241768642660e+01 +1.8374046398301623e+01 +5.4262851209178334e+04 -7.5788886475561908e+05 -2.7971702984962237e+08 
+9.2999999999999829e+00 -1.0336981697916536e+00 +2.3139240769393288e+00 +1.7698291669948535e+01 +1.2904678178296887e+01 +5.5386522621798802e+04 -7.2453625192688603e+05 -2.8554476358914608e+08 
+9.3999999999999826e+00 -1.0336985729258532e+00 +2.3140850818762493e+00 +1.7666260202972399e+01 +7.6483121159629794e+00 +5.6558102397692644e+04 -6.9221860360458808e+05 -2.9152727577335799e+08 
+9.4999999999999822e+00 -1.0336989802963525e+00 +2.3142369511275502e+00 +1.7631615285804450e+01 +2.5872109133822376e+00 +5.7767744948429463e+04 -6.6092729400309164e+05 -2.9762123654519397e+08 
+9.5999999999999819e+00 -1.0336993928198355e+00 +2.3143807276542141e+00 +1.7594824701915591e+01 -2.2963493290658934e+00 +5.9005608399141696e+04 -6.3065378694608726e+05 -3.0378333746978843e+08 
+9.6999999999999815e+00 -1.0336998114126605e+00 +2.3145174540987257e+00 +1.7556356121006875e+01 -7.0200786760108338e+00 +6.0261854221351146e+04 -6.0138963874859072e+05 -3.0997028988529849e+08 
+9.7999999999999812e+00 -1.0337002369906370e+00 +2.3146481727834374e+00 +1.7516677068845567e+01 -1.1601673200276117e+01 +6.1526647842401937e+04 -5.7312649938188703e+05 -3.1613882791922051e+08 
+9.8999999999999808e+00 -1.0337006704691647e+00 +2.3147739256887854e+00 +1.7476254943030277e+01 -1.6058814207521600e+01 +6.2790158372692844e+04 -5.4585611735242978e+05 -3.2224570728149480e+08 
+9.9999999999999805e+00 -1.0337011127631390e+00 +2.3148957544497013e+00 +1.7435556998746737e+01 -2.0409168022420783e+01 +6.4042558913661938e+04 -5.1957034121118864e+05 -3.2824770685043538e+08 
+1.0099999999999980e+01 -1.0337015647869825e+00 +2.3150147003475459e+00 +1.7395050350869536e+01 -2.4670385614233076e+01 +6.5274026547861642e+04 -4.9426112208926107e+05 -3.3410162872460753e+08 
