# field on trajectory
# s[mm] rx[mm] ry[mm] rz[mm] bx[T] by[T] bz[T]
0.0000000000000000e+00 +9.2063000000000006e+00 +0.0000000000000000e+00 +0.0000000000000000e+00 +1.1376100950582080e-02 -1.0296681706198829e+00 -5.8478373226648769e-02
-1.0000000000000001e-01 +9.2062994855224218e+00 +0.0000000000000000e+00 -9.9999999998235431e-02 +1.1376338904545364e-02 -1.0296660796433947e+00 -5.8478489112444694e-02
-2.0000000000000001e-01 +9.2062979420910480e+00 +0.0000000000000000e+00 -1.9999999998588339e-01 +1.1376566724863087e-02 -1.0296641598830469e+00 -5.8478594253830951e-02
-3.0000000000000004e-01 +9.2062953697077994e+00 +0.0000000000000000e+00 -2.9999999995235649e-01 +1.1376785558162964e-02 -1.0296624133550580e+00 -5.8478689090046450e-02
-4.0000000000000002e-01 +9.2062917683744203e+00 +0.0000000000000000e+00 -3.9999999988706736e-01 +1.1376996551065589e-02 -1.0296608420742142e+00 -5.8478774060327074e-02
-5.0000000000000000e-01 +9.2062871380924829e+00 +0.0000000000000000e+00 -4.9999999977942866e-01 +1.1377200850172426e-02 -1.0296594480538646e+00 -5.8478849603904128e-02
-5.9999999999999998e-01 +9.2062814788633780e+00 +0.0000000000000000e+00 -5.9999999961885320e-01 +1.1377399602053875e-02 -1.0296582333059217e+00 -5.8478916160002926e-02
-6.9999999999999996e-01 +9.2062747906883224e+00 +0.0000000000000000e+00 -6.9999999939475366e-01 +1.1377593953237241e-02 -1.0296571998408550e+00 -5.8478974167841188e-02
-7.9999999999999993e-01 +9.2062670735683483e+00 +0.0000000000000000e+00 -7.9999999909654285e-01 +1.1377785050194758e-02 -1.0296563496676889e+00 -5.8479024066627652e-02
-8.9999999999999991e-01 +9.2062583275043046e+00 +0.0000000000000000e+00 -8.9999999871363356e-01 +1.1377974039331612e-02 -1.0296556847940019e+00 -5.8479066295560538e-02
-9.9999999999999989e-01 +9.2062485524968594e+00 +0.0000000000000000e+00 -9.9999999823543861e-01 +1.1378162066973927e-02 -1.0296552072259224e+00 -5.8479101293826025e-02
-1.0999999999999999e+00 +9.2062377485464886e+00 +0.0000000000000000e+00 -1.0999999976513708e+00 +1.1378350279356821e-02 -1.0296549189681232e+00 -5.8479129500596874e-02
-1.2000000000000000e+00 +9.2062259156534818e+00 +0.0000000000000000e+00 -1.1999999969508428e+00 +1.1378539822612367e-02 -1.0296548220238229e+00 -5.8479151355030845e-02
-1.3000000000000000e+00 +9.2062130538179368e+00 +0.0000000000000000e+00 -1.2999999961232676e+00 +1.1378731842757629e-02 -1.0296549183947814e+00 -5.8479167296269167e-02
-1.4000000000000001e+00 +9.2061991630397575e+00 +0.0000000000000000e+00 -1.3999999951580577e+00 +1.1378927485682680e-02 -1.0296552100812948e+00 -5.8479177763435135e-02
-1.5000000000000002e+00 +9.2061842433186563e+00 +0.0000000000000000e+00 -1.4999999940446263e+00 +1.1379127897138580e-02 -1.0296556990821952e+00 -5.8479183195632625e-02
-1.6000000000000003e+00 +9.2061682946541445e+00 +0.0000000000000000e+00 -1.5999999927723856e+00 +1.1379333996011742e-02 -1.0296563841826663e+00 -5.8479183884954301e-02
-1.7000000000000004e+00 +9.2061513170455402e+00 +0.0000000000000000e+00 -1.6999999913307484e+00 +1.1379545794234681e-02 -1.0296572513181175e+00 -5.8479179535518899e-02
-1.8000000000000005e+00 +9.2061333104919800e+00 +0.0000000000000000e+00 -1.7999999897091274e+00 +1.1379763077040032e-02 -1.0296582832115515e+00 -5.8479169704459287e-02
-1.9000000000000006e+00 +9.2061142749924372e+00 +0.0000000000000000e+00 -1.8999999878969351e+00 +1.1379985629705866e-02 -1.0296594625860327e+00 -5.8479153948917555e-02
-2.0000000000000004e+00 +9.2060942105457357e+00 +0.0000000000000000e+00 -1.9999999858835837e+00 +1.1380213237572797e-02 -1.0296607721648765e+00 -5.8479131826048227e-02
-2.1000000000000005e+00 +9.2060731171505719e+00 +0.0000000000000000e+00 -2.0999999836584857e+00 +1.1380445686061003e-02 -1.0296621946718383e+00 -5.8479102893020780e-02
-2.2000000000000006e+00 +9.2060509948055262e+00 +0.0000000000000000e+00 -2.1999999812110538e+00 +1.1380682760687299e-02 -1.0296637128313011e+00 -5.8479066707022700e-02
-2.3000000000000007e+00 +9.2060278435090854e+00 +0.0000000000000000e+00 -2.2999999785306997e+00 +1.1380924247082215e-02 -1.0296653093684689e+00 -5.8479022825262260e-02
-2.4000000000000008e+00 +9.2060036632596578e+00 +0.0000000000000000e+00 -2.3999999756068360e+00 +1.1381169931007042e-02 -1.0296669670095520e+00 -5.8478970804971442e-02
-2.5000000000000009e+00 +9.2059784540555931e+00 +0.0000000000000000e+00 -2.4999999724288751e+00 +1.1381419598370895e-02 -1.0296686684819585e+00 -5.8478910203408702e-02
-2.6000000000000010e+00 +9.2059522158951932e+00 +0.0000000000000000e+00 -2.5999999689862285e+00 +1.1381673035247787e-02 -1.0296703965144833e+00 -5.8478840577861922e-02
-2.7000000000000011e+00 +9.2059249487767350e+00 +0.0000000000000000e+00 -2.6999999652683084e+00 +1.1381930027893686e-02 -1.0296721338374977e+00 -5.8478761485651232e-02
-2.8000000000000012e+00 +9.2058966526984882e+00 +0.0000000000000000e+00 -2.7999999612645268e+00 +1.1382190362763592e-02 -1.0296738631831375e+00 -5.8478672484131869e-02
-2.9000000000000012e+00 +9.2058673276587282e+00 +0.0000000000000000e+00 -2.8999999569642956e+00 +1.1382453826528582e-02 -1.0296755672854943e+00 -5.8478573130697015e-02
-3.0000000000000013e+00 +9.2058369736557566e+00 +0.0000000000000000e+00 -2.9999999523570269e+00 +1.1382720206092907e-02 -1.0296772288808043e+00 -5.8478462982780734e-02
-3.1000000000000014e+00 +9.2058055906879179e+00 +0.0000000000000000e+00 -3.0999999474321323e+00 +1.1382989288611039e-02 -1.0296788307076372e+00 -5.8478341597860736e-02
-3.2000000000000015e+00 +9.2057731787536170e+00 +0.0000000000000000e+00 -3.1999999421790237e+00 +1.1383260861504745e-02 -1.0296803555070868e+00 -5.8478208533461334e-02
-3.3000000000000016e+00 +9.2057397378513333e+00 +0.0000000000000000e+00 -3.2999999365871124e+00 +1.1383534712480157e-02 -1.0296817860229590e+00 -5.8478063347156252e-02
-3.4000000000000017e+00 +9.2057052679796438e+00 +0.0000000000000000e+00 -3.3999999306458109e+00 +1.1383810629544857e-02 -1.0296831050019641e+00 -5.8477905596571497e-02
-3.5000000000000018e+00 +9.2056697691372342e+00 +0.0000000000000000e+00 -3.4999999243445306e+00 +1.1384088401024929e-02 -1.0296842951939023e+00 -5.8477734839388257e-02
-3.6000000000000019e+00 +9.2056332413229214e+00 +0.0000000000000000e+00 -3.5999999176726831e+00 +1.1384367709146553e-02 -1.0296853417982550e+00 -5.8477550768962321e-02
-3.7000000000000020e+00 +9.2055956845356626e+00 +0.0000000000000000e+00 -3.6999999106196801e+00 +1.1384647810567569e-02 -1.0296862398029598e+00 -5.8477353621150668e-02
-3.8000000000000020e+00 +9.2055570987745643e+00 +0.0000000000000000e+00 -3.7999999031749341e+00 +1.1384927855373409e-02 -1.0296869866442513e+00 -5.8477143767413191e-02
-3.9000000000000021e+00 +9.2055174840388858e+00 +0.0000000000000000e+00 -3.8999998953278561e+00 +1.1385206993450837e-02 -1.0296875797601621e+00 -5.8476921579186172e-02
-4.0000000000000018e+00 +9.2054768403280391e+00 +0.0000000000000000e+00 -3.9999998870678586e+00 +1.1385484374468475e-02 -1.0296880165905882e+00 -5.8476687427879454e-02
-4.1000000000000014e+00 +9.2054351676415909e+00 +0.0000000000000000e+00 -4.0999998783843532e+00 +1.1385759147857227e-02 -1.0296882945773465e+00 -5.8476441684873669e-02
-4.2000000000000011e+00 +9.2053924659792692e+00 +0.0000000000000000e+00 -4.1999998692667520e+00 +1.1386030462790788e-02 -1.0296884111642384e+00 -5.8476184721517430e-02
-4.3000000000000007e+00 +9.2053487353409604e+00 +0.0000000000000000e+00 -4.2999998597044664e+00 +1.1386297468166095e-02 -1.0296883637971099e+00 -5.8475916909124646e-02
-4.4000000000000004e+00 +9.2053039757267179e+00 +0.0000000000000000e+00 -4.3999998496869095e+00 +1.1386559312583828e-02 -1.0296881499239154e+00 -5.8475638618971669e-02
-4.5000000000000000e+00 +9.2052581871367600e+00 +0.0000000000000000e+00 -4.4999998392034932e+00 +1.1386815144328861e-02 -1.0296877669947768e+00 -5.8475350222294532e-02
-4.5999999999999996e+00 +9.2052113695714759e+00 +0.0000000000000000e+00 -4.5999998282436296e+00 +1.1387064111350750e-02 -1.0296872124620449e+00 -5.8475052090286125e-02
-4.6999999999999993e+00 +9.2051635230314233e+00 +0.0000000000000000e+00 -4.6999998167967307e+00 +1.1387305361244203e-02 -1.0296864837803628e+00 -5.8474744594093540e-02
-4.7999999999999989e+00 +9.2051146475173358e+00 +0.0000000000000000e+00 -4.7999998048522095e+00 +1.1387538041229555e-02 -1.0296855784067260e+00 -5.8474428104815200e-02
-4.8999999999999986e+00 +9.2050647430301247e+00 +0.0000000000000000e+00 -4.8999997923994787e+00 +1.1387761298133231e-02 -1.0296844938005443e+00 -5.8474102993498027e-02
-4.9999999999999982e+00 +9.2050138095708771e+00 +0.0000000000000000e+00 -4.9999997794279505e+00 +1.1387974278368240e-02 -1.0296832274237033e+00 -5.8473769631134841e-02
-5.0999999999999979e+00 +9.2049618471408667e+00 +0.0000000000000000e+00 -5.0999997659270377e+00 +1.1388176127914628e-02 -1.0296817767406246e+00 -5.8473428388661389e-02
-5.1999999999999975e+00 +9.2049088557415466e+00 +0.0000000000000000e+00 -5.1999997518861534e+00 +1.1388365992299960e-02 -1.0296801392183303e+00 -5.8473079636953640e-02
-5.2999999999999972e+00 +9.2048548353745598e+00 +0.0000000000000000e+00 -5.2999997372947112e+00 +1.1388543016579794e-02 -1.0296783123265019e+00 -5.8472723746825113e-02
-5.3999999999999968e+00 +9.2047997860417397e+00 +0.0000000000000000e+00 -5.3999997221421232e+00 +1.1388706345318134e-02 -1.0296762935375416e+00 -5.8472361089023893e-02
-5.4999999999999964e+00 +9.2047437077451075e+00 +0.0000000000000000e+00 -5.4999997064178041e+00 +1.1388855122567942e-02 -1.0296740803266373e+00 -5.8471992034230036e-02
-5.5999999999999961e+00 +9.2046866004868821e+00 +0.0000000000000000e+00 -5.5999996901111668e+00 +1.1388988899190764e-02 -1.0296716721592758e+00 -5.8471616973329366e-02
-5.6999999999999957e+00 +9.2046284642694740e+00 +0.0000000000000000e+00 -5.6999996732116252e+00 +1.1389108855180734e-02 -1.0296690764521461e+00 -5.8471236378278148e-02
-5.7999999999999954e+00 +9.2045692990954837e+00 +0.0000000000000000e+00 -5.7999996557085938e+00 +1.1389216578184085e-02 -1.0296663026079003e+00 -5.8470850741335206e-02
-5.8999999999999950e+00 +9.2045091049676877e+00 +0.0000000000000000e+00 -5.8999996375914856e+00 +1.1389313656250418e-02 -1.0296633600271190e+00 -5.8470460554795857e-02
-5.9999999999999947e+00 +9.2044478818890330e+00 +0.0000000000000000e+00 -5.9999996188497162e+00 +1.1389401677854532e-02 -1.0296602581081624e+00 -5.8470066310993871e-02
-6.0999999999999943e+00 +9.2043856298626245e+00 +0.0000000000000000e+00 -6.0999995994726994e+00 +1.1389482231918270e-02 -1.0296570062470176e+00 -5.8469668502303493e-02
-6.1999999999999940e+00 +9.2043223488917185e+00 +0.0000000000000000e+00 -6.1999995794498499e+00 +1.1389556907832339e-02 -1.0296536138371484e+00 -5.8469267621141546e-02
-6.2999999999999936e+00 +9.2042580389797095e+00 +0.0000000000000000e+00 -6.2999995587705824e+00 +1.1389627295478147e-02 -1.0296500902693426e+00 -5.8468864159969366e-02
-6.3999999999999932e+00 +9.2041927001301254e+00 +0.0000000000000000e+00 -6.3999995374243124e+00 +1.1389694985249612e-02 -1.0296464449315614e+00 -5.8468458611294891e-02
-6.4999999999999929e+00 +9.2041263323466165e+00 +0.0000000000000000e+00 -6.4999995154004555e+00 +1.1389761568075038e-02 -1.0296426872087885e+00 -5.8468051467674712e-02
-6.5999999999999925e+00 +9.2040589356329416e+00 +0.0000000000000000e+00 -6.5999994926884265e+00 +1.1389828635438904e-02 -1.0296388264828760e+00 -5.8467643221716041e-02
-6.6999999999999922e+00 +9.2039905099929680e+00 +0.0000000000000000e+00 -6.6999994692776417e+00 +1.1389897779403718e-02 -1.0296348721323960e+00 -5.8467234366078764e-02
-6.7999999999999918e+00 +9.2039210554306514e+00 +0.0000000000000000e+00 -6.7999994451575168e+00 +1.1389970592631839e-02 -1.0296308335324886e+00 -5.8466825393477542e-02
-6.8999999999999915e+00 +9.2038505719500350e+00 +0.0000000000000000e+00 -6.8999994203174673e+00 +1.1390048668407303e-02 -1.0296267200547073e+00 -5.8466416796683643e-02
-6.9999999999999911e+00 +9.2037790595552362e+00 +0.0000000000000000e+00 -6.9999993947469097e+00 +1.1390133600657666e-02 -1.0296225410668716e+00 -5.8466009068527190e-02
-7.0999999999999908e+00 +9.2037065182504385e+00 +0.0000000000000000e+00 -7.0999993684352605e+00 +1.1390226983975821e-02 -1.0296183059329109e+00 -5.8465602701899044e-02
-7.1999999999999904e+00 +9.2036329480398802e+00 +0.0000000000000000e+00 -7.1999993413719361e+00 +1.1390330413641828e-02 -1.0296140240127176e+00 -5.8465198189752918e-02
-7.2999999999999901e+00 +9.2035583489278459e+00 +0.0000000000000000e+00 -7.2999993135463539e+00 +1.1390445485644765e-02 -1.0296097046619908e+00 -5.8464796025107277e-02
-7.3999999999999897e+00 +9.2034827209186609e+00 +0.0000000000000000e+00 -7.3999992849479295e+00 +1.1390573796704512e-02 -1.0296053572320873e+00 -5.8464396701047486e-02
-7.4999999999999893e+00 +9.2034060640166775e+00 +0.0000000000000000e+00 -7.4999992555660810e+00 +1.1390716944293621e-02 -1.0296009910698674e+00 -5.8464000710727701e-02
-7.5999999999999890e+00 +9.2033283782262654e+00 +0.0000000000000000e+00 -7.5999992253902251e+00 +1.1390875976474372e-02 -1.0295966149008324e+00 -5.8463608361562384e-02
-7.6999999999999886e+00 +9.2032496635518051e+00 +0.0000000000000000e+00 -7.6999991944097790e+00 +1.1391049740862091e-02 -1.0295922349801847e+00 -5.8463219217724349e-02
-7.7999999999999883e+00 +9.2031699199976806e+00 +0.0000000000000000e+00 -7.7999991626141609e+00 +1.1391236534409309e-02 -1.0295878569453834e+00 -5.8462832657487869e-02
-7.8999999999999879e+00 +9.2030891475682761e+00 +0.0000000000000000e+00 -7.8999991299927874e+00 +1.1391434653480758e-02 -1.0295834864332196e+00 -5.8462448059030718e-02
-7.9999999999999876e+00 +9.2030073462679667e+00 +0.0000000000000000e+00 -7.9999990965350767e+00 +1.1391642393830581e-02 -1.0295791290798049e+00 -5.8462064800430889e-02
-8.0999999999999872e+00 +9.2029245161011151e+00 +0.0000000000000000e+00 -8.0999990622304470e+00 +1.1391858050579544e-02 -1.0295747905205581e+00 -5.8461682259663056e-02
-8.1999999999999869e+00 +9.2028406570720644e+00 +0.0000000000000000e+00 -8.1999990270683156e+00 +1.1392079918192249e-02 -1.0295704763901918e+00 -5.8461299814595365e-02
-8.2999999999999865e+00 +9.2027557691851367e+00 +0.0000000000000000e+00 -8.2999989910381018e+00 +1.1392306290454327e-02 -1.0295661923227006e+00 -5.8460916842986009e-02
-8.3999999999999861e+00 +9.2026698524446182e+00 +0.0000000000000000e+00 -8.3999989541292219e+00 +1.1392535460449682e-02 -1.0295619439513490e+00 -5.8460532722479856e-02
-8.4999999999999858e+00 +9.2025829068547651e+00 +0.0000000000000000e+00 -8.4999989163310961e+00 +1.1392765720537662e-02 -1.0295577369086570e+00 -5.8460146830605117e-02
-8.5999999999999854e+00 +9.2024949324197891e+00 +0.0000000000000000e+00 -8.5999988776331406e+00 +1.1392995362330294e-02 -1.0295535768263882e+00 -5.8459758544769945e-02
-8.6999999999999851e+00 +9.2024059291438576e+00 +0.0000000000000000e+00 -8.6999988380247757e+00 +1.1393222676669501e-02 -1.0295494693355398e+00 -5.8459367242259121e-02
-8.7999999999999847e+00 +9.2023158970310828e+00 +0.0000000000000000e+00 -8.7999987974954195e+00 +1.1393445953604293e-02 -1.0295454200663257e+00 -5.8458972300230734e-02
-8.8999999999999844e+00 +9.2022248360855219e+00 +0.0000000000000000e+00 -8.8999987560344902e+00 +1.1393663482367977e-02 -1.0295414346481664e+00 -5.8458573095712653e-02
-8.9999999999999840e+00 +9.2021327463111664e+00 +0.0000000000000000e+00 -8.9999987136314079e+00 +1.1393873551355389e-02 -1.0295375187096765e+00 -5.8458169005599421e-02
-9.0999999999999837e+00 +9.2020396277119367e+00 +0.0000000000000000e+00 -9.0999986702755891e+00 +1.1394074448100091e-02 -1.0295336778786508e+00 -5.8457759406648761e-02
-9.1999999999999833e+00 +9.2019454802916822e+00 +0.0000000000000000e+00 -9.1999986259564537e+00 +1.1394264459251575e-02 -1.0295299177820543e+00 -5.8457343675478231e-02
-9.2999999999999829e+00 +9.2018503040541706e+00 +0.0000000000000000e+00 -9.2999985806634218e+00 +1.1394441870552495e-02 -1.0295262440460062e+00 -5.8456921188561911e-02
-9.3999999999999826e+00 +9.2017540990030806e+00 +0.0000000000000000e+00 -9.3999985343859116e+00 +1.1394604966815842e-02 -1.0295226622957703e+00 -5.8456491322227050e-02
-9.4999999999999822e+00 +9.2016568651420023e+00 +0.0000000000000000e+00 -9.4999984871133414e+00 +1.1394752031902208e-02 -1.0295191781557413e+00 -5.8456053452650737e-02
-9.5999999999999819e+00 +9.2015586024744280e+00 +0.0000000000000000e+00 -9.5999984388351294e+00 +1.1394881925523358e-02 -1.0295157960166526e+00 -5.8455607273678753e-02
-9.6999999999999815e+00 +9.2014593110037470e+00 +0.0000000000000000e+00 -9.6999983895406956e+00 +1.1394995814301281e-02 -1.0295125153375977e+00 -5.8455153750479417e-02
-9.7999999999999812e+00 +9.2013589907332474e+00 +0.0000000000000000e+00 -9.7999983392194583e+00 +1.1395095442102527e-02 -1.0295093343455384e+00 -5.8454694166282295e-02
-9.8999999999999808e+00 +9.2012576416661211e+00 +0.0000000000000000e+00 -9.8999982878608375e+00 +1.1395182553297831e-02 -1.0295062512683781e+00 -5.8454229804566847e-02
-9.9999999999999805e+00 +9.2011552638054575e+00 +0.0000000000000000e+00 -9.9999982354542514e+00 +1.1395258892778027e-02 -1.0295032643349920e+00 -5.8453761949069351e-02
-1.0099999999999980e+01 +9.2010518571542548e+00 +0.0000000000000000e+00 -1.0099998181989118e+01 +1.1395326205969929e-02 -1.0295003717752649e+00 -5.8453291883789893e-02
-1.0199999999999980e+01 +9.2009474217154121e+00 +0.0000000000000000e+00 -1.0199998127454858e+01 +1.1395386238852214e-02 -1.0294975718201216e+00 -5.8452820892999253e-02
-1.0299999999999979e+01 +9.2008419574917415e+00 +0.0000000000000000e+00 -1.0299998071840889e+01 +1.1395440737971295e-02 -1.0294948627015617e+00 -5.8452350261245914e-02
-1.0399999999999979e+01 +9.2007354644859589e+00 +0.0000000000000000e+00 -1.0399998015136632e+01 +1.1395491450457217e-02 -1.0294922426526920e+00 -5.8451881273362934e-02
-1.0499999999999979e+01 +9.2006279427006952e+00 +0.0000000000000000e+00 -1.0499997957331502e+01 +1.1395540124039540e-02 -1.0294897099077616e+00 -5.8451415214474951e-02
-1.0599999999999978e+01 +9.2005193921384940e+00 +0.0000000000000000e+00 -1.0599997898414921e+01 +1.1395588507063195e-02 -1.0294872627021938e+00 -5.8450953370005089e-02
-1.0699999999999978e+01 +9.2004098128018104e+00 +0.0000000000000000e+00 -1.0699997838376307e+01 +1.1395638348504383e-02 -1.0294848992726193e+00 -5.8450497025681870e-02
-1.0799999999999978e+01 +9.2002992046930192e+00 +0.0000000000000000e+00 -1.0799997777205078e+01 +1.1395691397986452e-02 -1.0294826178569108e+00 -5.8450047467546250e-02
-1.0899999999999977e+01 +9.2001875678144120e+00 +0.0000000000000000e+00 -1.0899997714890654e+01 +1.1395749405795762e-02 -1.0294804166942146e+00 -5.8449605981958412e-02
-1.0999999999999977e+01 +9.2000749021682005e+00 +0.0000000000000000e+00 -1.0999997651422454e+01 +1.1395814122897561e-02 -1.0294782940249867e+00 -5.8449173855604795e-02
-1.1099999999999977e+01 +9.1999612077565160e+00 +0.0000000000000000e+00 -1.1099997586789897e+01 +1.1395887300951852e-02 -1.0294762480910229e+00 -5.8448752375505029e-02
-1.1199999999999976e+01 +9.1998464845814176e+00 +0.0000000000000000e+00 -1.1199997520982400e+01 +1.1395970692329284e-02 -1.0294742771354932e+00 -5.8448342829018847e-02
-1.1299999999999976e+01 +9.1997307326448858e+00 +0.0000000000000000e+00 -1.1299997453989382e+01 +1.1396066050127000e-02 -1.0294723794029770e+00 -5.8447946503852960e-02
-1.1399999999999975e+01 +9.1996139519488302e+00 +0.0000000000000000e+00 -1.1399997385800264e+01 +1.1396175128184508e-02 -1.0294705531394925e+00 -5.8447564688068089e-02
-1.1499999999999975e+01 +9.1994961424950894e+00 +0.0000000000000000e+00 -1.1499997316404462e+01 +1.1396299681099561e-02 -1.0294687965925338e+00 -5.8447198670085798e-02
-1.1599999999999975e+01 +9.1993773042854290e+00 +0.0000000000000000e+00 -1.1599997245791396e+01 +1.1396440865285549e-02 -1.0294671074993131e+00 -5.8446849325024884e-02
-1.1699999999999974e+01 +9.1992574373215508e+00 +0.0000000000000000e+00 -1.1699997173950484e+01 +1.1396597441522997e-02 -1.0294654815510573e+00 -5.8446515873343763e-02
