# field on trajectory
# s[mm] rx[mm] ry[mm] rz[mm] bx[T] by[T] bz[T]
0.0000000000000000e+00 +9.1476323485342608e+00 +0.0000000000000000e+00 +0.0000000000000000e+00 +1.1589464911284696e-02 -1.0329621997498442e+00 -5.8810881678126391e-02
1.0000000000000001e-01 +9.1476318316365202e+00 +0.0000000000000000e+00 +9.9999999998218805e-02 +1.1589442798679296e-02 -1.0329658665383263e+00 -5.8809289360876690e-02
2.0000000000000001e-01 +9.1476302809427192e+00 +0.0000000000000000e+00 +1.9999999998574999e-01 +1.1589416592414237e-02 -1.0329695267473620e+00 -5.8807693554233320e-02
2.9999999999999999e-01 +9.1476276964536503e+00 +0.0000000000000000e+00 +2.9999999995190701e-01 +1.1589385484986548e-02 -1.0329731778851481e+00 -5.8806093516984570e-02
4.0000000000000002e-01 +9.1476240781675404e+00 +0.0000000000000000e+00 +3.9999999988600199e-01 +1.1589348668935353e-02 -1.0329768174600567e+00 -5.8804488507990492e-02
5.0000000000000000e-01 +9.1476194260861501e+00 +0.0000000000000000e+00 +4.9999999977734699e-01 +1.1589305336851555e-02 -1.0329804429806446e+00 -5.8802877786187036e-02
5.9999999999999998e-01 +9.1476137402094899e+00 +0.0000000000000000e+00 +5.9999999961525596e-01 +1.1589254930203029e-02 -1.0329840520009639e+00 -5.8801261126235828e-02
6.9999999999999996e-01 +9.1476070205357907e+00 +0.0000000000000000e+00 +6.9999999938904001e-01 +1.1589197885775757e-02 -1.0329876422563546e+00 -5.8799640365444529e-02
8.0000000000000004e-01 +9.1475992670650292e+00 +0.0000000000000000e+00 +7.9999999908801400e-01 +1.1589134889205085e-02 -1.0329912115274811e+00 -5.8798017856799827e-02
9.0000000000000002e-01 +9.1475904798007797e+00 +0.0000000000000000e+00 +8.9999999870148795e-01 +1.1589066626150868e-02 -1.0329947575949918e+00 -5.8796395953305047e-02
1.0000000000000000e+00 +9.1475806587394892e+00 +0.0000000000000000e+00 +9.9999999821877705e-01 +1.1588993782290865e-02 -1.0329982782394895e+00 -5.8794777007966391e-02
1.1000000000000001e+00 +9.1475698038829201e+00 +0.0000000000000000e+00 +1.0999999976291901e+00 +1.1588917043313650e-02 -1.0330017712414570e+00 -5.8793163373776776e-02
1.2000000000000000e+00 +9.1475579152292994e+00 +0.0000000000000000e+00 +1.1999999969220501e+00 +1.1588837094911968e-02 -1.0330052343812210e+00 -5.8791557403701837e-02
1.3000000000000000e+00 +9.1475449927804107e+00 +0.0000000000000000e+00 +1.2999999960866500e+00 +1.1588754622775810e-02 -1.0330086654388917e+00 -5.8789961450664570e-02
1.3999999999999999e+00 +9.1475310365362503e+00 +0.0000000000000000e+00 +1.3999999951123201e+00 +1.1588670312585623e-02 -1.0330120621943193e+00 -5.8788377867530765e-02
1.5000000000000000e+00 +9.1475160464950402e+00 +0.0000000000000000e+00 +1.4999999939883699e+00 +1.1588584850005563e-02 -1.0330154224270465e+00 -5.8786809007094334e-02
1.6000000000000001e+00 +9.1475000226585603e+00 +0.0000000000000000e+00 +1.5999999927041100e+00 +1.1588498920676515e-02 -1.0330187439162444e+00 -5.8785257222061821e-02
1.7000000000000000e+00 +9.1474829650268106e+00 +0.0000000000000000e+00 +1.6999999912488499e+00 +1.1588413210209394e-02 -1.0330220244406754e+00 -5.8783724865038169e-02
1.8000000000000000e+00 +9.1474648735980093e+00 +0.0000000000000000e+00 +1.7999999896119101e+00 +1.1588328404178314e-02 -1.0330252617786404e+00 -5.8782214288511804e-02
1.8999999999999999e+00 +9.1474457483739400e+00 +0.0000000000000000e+00 +1.8999999877825899e+00 +1.1588245188113664e-02 -1.0330284537079200e+00 -5.8780727844839335e-02
2.0000000000000000e+00 +9.1474255893528191e+00 +0.0000000000000000e+00 +1.9999999857502100e+00 +1.1588164247495408e-02 -1.0330315980057354e+00 -5.8779267886231293e-02
2.1000000000000001e+00 +9.1474043965364302e+00 +0.0000000000000000e+00 +2.0999999835040901e+00 +1.1588086267746130e-02 -1.0330346924486857e+00 -5.8777836764736607e-02
2.2000000000000002e+00 +9.1473821699247697e+00 +0.0000000000000000e+00 +2.1999999810335300e+00 +1.1588011934224296e-02 -1.0330377348127071e+00 -5.8776436832228392e-02
2.2999999999999998e+00 +9.1473589095160595e+00 +0.0000000000000000e+00 +2.2999999783278602e+00 +1.1587941932217453e-02 -1.0330407228730238e+00 -5.8775070440388946e-02
2.3999999999999999e+00 +9.1473346153120794e+00 +0.0000000000000000e+00 +2.3999999753763701e+00 +1.1587876946935242e-02 -1.0330436544040842e+00 -5.8773739940694417e-02
2.5000000000000000e+00 +9.1473092873128206e+00 +0.0000000000000000e+00 +2.4999999721683901e+00 +1.1587817663502722e-02 -1.0330465271795231e+00 -5.8772447684400507e-02
2.6000000000000001e+00 +9.1472829255165191e+00 +0.0000000000000000e+00 +2.5999999686932198e+00 +1.1587764590093228e-02 -1.0330493386085604e+00 -5.8771195588670999e-02
2.7000000000000002e+00 +9.1472555299249496e+00 +0.0000000000000000e+00 +2.6999999649401798e+00 +1.1587717527371262e-02 -1.0330520846457827e+00 -5.8769983835081599e-02
2.7999999999999998e+00 +9.1472271005398795e+00 +0.0000000000000000e+00 +2.7999999608985902e+00 +1.1587676099125453e-02 -1.0330547608826914e+00 -5.8768812171345081e-02
2.8999999999999999e+00 +9.1471976373559905e+00 +0.0000000000000000e+00 +2.8999999565577501e+00 +1.1587639929138681e-02 -1.0330573629114801e+00 -5.8767680345201370e-02
3.0000000000000000e+00 +9.1471671403768209e+00 +0.0000000000000000e+00 +2.9999999519069700e+00 +1.1587608641189726e-02 -1.0330598863250873e+00 -5.8766588104426497e-02
3.1000000000000001e+00 +9.1471356096023904e+00 +0.0000000000000000e+00 +3.0999999469355801e+00 +1.1587581859055564e-02 -1.0330623267173176e+00 -5.8765535196844604e-02
3.2000000000000002e+00 +9.1471030450308994e+00 +0.0000000000000000e+00 +3.1999999416328699e+00 +1.1587559206513325e-02 -1.0330646796829259e+00 -5.8764521370338399e-02
3.2999999999999998e+00 +9.1470694466641493e+00 +0.0000000000000000e+00 +3.2999999359881800e+00 +1.1587540307342218e-02 -1.0330669408176989e+00 -5.8763546372859340e-02
3.3999999999999999e+00 +9.1470348145021205e+00 +0.0000000000000000e+00 +3.3999999299908001e+00 +1.1587524785325629e-02 -1.0330691057185555e+00 -5.8762609952438837e-02
3.5000000000000000e+00 +9.1469991485430509e+00 +0.0000000000000000e+00 +3.4999999236300501e+00 +1.1587512264253166e-02 -1.0330711699836383e+00 -5.8761711857198945e-02
3.6000000000000001e+00 +9.1469624487887007e+00 +0.0000000000000000e+00 +3.5999999168952499e+00 +1.1587502367922555e-02 -1.0330731292123934e+00 -5.8760851835362511e-02
3.7000000000000002e+00 +9.1469247152390807e+00 +0.0000000000000000e+00 +3.6999999097757001e+00 +1.1587494720141759e-02 -1.0330749790056717e+00 -5.8760029635264360e-02
3.7999999999999998e+00 +9.1468859478924092e+00 +0.0000000000000000e+00 +3.7999999022607200e+00 +1.1587488944731023e-02 -1.0330767149658218e+00 -5.8759245005362101e-02
3.8999999999999999e+00 +9.1468461467522495e+00 +0.0000000000000000e+00 +3.8999998943396199e+00 +1.1587484665524719e-02 -1.0330783326967607e+00 -5.8758497694245869e-02
4.0000000000000000e+00 +9.1468053118132708e+00 +0.0000000000000000e+00 +3.9999998860017101e+00 +1.1587481506373714e-02 -1.0330798278041025e+00 -5.8757787450650793e-02
4.0999999999999996e+00 +9.1467634430807898e+00 +0.0000000000000000e+00 +4.0999998772363098e+00 +1.1587479091146919e-02 -1.0330811958952000e+00 -5.8757114023465257e-02
4.2000000000000002e+00 +9.1467205405512608e+00 +0.0000000000000000e+00 +4.1999998680327302e+00 +1.1587477043733790e-02 -1.0330824325792816e+00 -5.8756477161744057e-02
4.2999999999999998e+00 +9.1466766042264602e+00 +0.0000000000000000e+00 +4.2999998583802803e+00 +1.1587474988046019e-02 -1.0330835334675113e+00 -5.8755876614717206e-02
4.4000000000000004e+00 +9.1466316341046099e+00 +0.0000000000000000e+00 +4.3999998482682798e+00 +1.1587472548019766e-02 -1.0330844941730977e+00 -5.8755312131801879e-02
4.5000000000000000e+00 +9.1465856301892607e+00 +0.0000000000000000e+00 +4.4999998376860297e+00 +1.1587469347617518e-02 -1.0330853103113653e+00 -5.8754783462611981e-02
4.5999999999999996e+00 +9.1465385924768707e+00 +0.0000000000000000e+00 +4.5999998266228497e+00 +1.1587465058488801e-02 -1.0330859793610205e+00 -5.8754290294653025e-02
4.7000000000000002e+00 +9.1464905209674292e+00 +0.0000000000000000e+00 +4.6999998150680504e+00 +1.1587459542959080e-02 -1.0330865062464960e+00 -5.8753832066305405e-02
4.7999999999999998e+00 +9.1464414156644995e+00 +0.0000000000000000e+00 +4.7999998030109499e+00 +1.1587452711075450e-02 -1.0330868977523935e+00 -5.8753408153653076e-02
4.9000000000000004e+00 +9.1463912765645095e+00 +0.0000000000000000e+00 +4.8999997904408596e+00 +1.1587444472954333e-02 -1.0330871606619514e+00 -5.8753017932783688e-02
5.0000000000000000e+00 +9.1463401036692602e+00 +0.0000000000000000e+00 +4.9999997773470897e+00 +1.1587434738784924e-02 -1.0330873017569124e+00 -5.8752660779785859e-02
5.0999999999999996e+00 +9.1462878969787305e+00 +0.0000000000000000e+00 +5.0999997637189498e+00 +1.1587423418833113e-02 -1.0330873278174391e+00 -5.8752336070748909e-02
5.2000000000000002e+00 +9.1462346564911599e+00 +0.0000000000000000e+00 +5.1999997495457499e+00 +1.1587410423445212e-02 -1.0330872456220073e+00 -5.8752043181761630e-02
5.2999999999999998e+00 +9.1461803822083105e+00 +0.0000000000000000e+00 +5.2999997348168204e+00 +1.1587395663051576e-02 -1.0330870619472963e+00 -5.8751781488910595e-02
5.4000000000000004e+00 +9.1461250741284204e+00 +0.0000000000000000e+00 +5.3999997195214604e+00 +1.1587379048170527e-02 -1.0330867835680999e+00 -5.8751550368279754e-02
5.5000000000000000e+00 +9.1460687322550296e+00 +0.0000000000000000e+00 +5.4999997036489701e+00 +1.1587360489411860e-02 -1.0330864172571996e+00 -5.8751349195948217e-02
5.5999999999999996e+00 +9.1460113565845909e+00 +0.0000000000000000e+00 +5.5999996871886903e+00 +1.1587339897480895e-02 -1.0330859697852988e+00 -5.8751177347990589e-02
5.7000000000000002e+00 +9.1459529471188894e+00 +0.0000000000000000e+00 +5.6999996701299196e+00 +1.1587317183181910e-02 -1.0330854479208835e+00 -5.8751034200474304e-02
5.7999999999999998e+00 +9.1458935038561293e+00 +0.0000000000000000e+00 +5.7999996524619597e+00 +1.1587292257422090e-02 -1.0330848584301446e+00 -5.8750919129459539e-02
5.9000000000000004e+00 +9.1458330267980994e+00 +0.0000000000000000e+00 +5.8999996341741401e+00 +1.1587265031215085e-02 -1.0330842080768581e+00 -5.8750831510997241e-02
6.0000000000000000e+00 +9.1457715159465796e+00 +0.0000000000000000e+00 +5.9999996152557697e+00 +1.1587235415684856e-02 -1.0330835036222881e+00 -5.8750770721128345e-02
6.0999999999999996e+00 +9.1457089712962301e+00 +0.0000000000000000e+00 +6.0999995956961603e+00 +1.1587203322069526e-02 -1.0330827518251049e+00 -5.8750736135883413e-02
6.2000000000000002e+00 +9.1456453928523906e+00 +0.0000000000000000e+00 +6.1999995754846200e+00 +1.1587168661724748e-02 -1.0330819594412375e+00 -5.8750727131279538e-02
6.2999999999999998e+00 +9.1455807806132707e+00 +0.0000000000000000e+00 +6.2999995546104604e+00 +1.1587131346127804e-02 -1.0330811332238137e+00 -5.8750743083321087e-02
6.4000000000000004e+00 +9.1455151345771100e+00 +0.0000000000000000e+00 +6.3999995330630002e+00 +1.1587091286881198e-02 -1.0330802799230396e+00 -5.8750783367997828e-02
6.5000000000000000e+00 +9.1454484547456794e+00 +0.0000000000000000e+00 +6.4999995108315600e+00 +1.1587048395716270e-02 -1.0330794062860913e+00 -5.8750847361283338e-02
6.5999999999999996e+00 +9.1453807411171901e+00 +0.0000000000000000e+00 +6.5999994879054302e+00 +1.1587002659884521e-02 -1.0330785196481125e+00 -5.8750934685665862e-02
6.7000000000000002e+00 +9.1453119936934399e+00 +0.0000000000000000e+00 +6.6999994642739402e+00 +1.1586954368219351e-02 -1.0330776297067767e+00 -5.8751045949739962e-02
6.7999999999999998e+00 +9.1452422124761892e+00 +0.0000000000000000e+00 +6.7999994399263999e+00 +1.1586903884780255e-02 -1.0330767467514230e+00 -5.8751182008579608e-02
6.9000000000000004e+00 +9.1451713974618905e+00 +0.0000000000000000e+00 +6.8999994148521200e+00 +1.1586851573428375e-02 -1.0330758810723635e+00 -5.8751343717194184e-02
7.0000000000000000e+00 +9.1450995486523308e+00 +0.0000000000000000e+00 +6.9999993890404202e+00 +1.1586797797817754e-02 -1.0330750429609092e+00 -5.8751531930524521e-02
7.0999999999999996e+00 +9.1450266660474906e+00 +0.0000000000000000e+00 +7.0999993624805997e+00 +1.1586742921387011e-02 -1.0330742427094397e+00 -5.8751747503440865e-02
7.2000000000000002e+00 +9.1449527496438208e+00 +0.0000000000000000e+00 +7.1999993351619702e+00 +1.1586687307350903e-02 -1.0330734906114640e+00 -5.8751991290740282e-02
7.2999999999999998e+00 +9.1448777994484391e+00 +0.0000000000000000e+00 +7.2999993070738700e+00 +1.1586631318691526e-02 -1.0330727969616402e+00 -5.8752264147142415e-02
7.4000000000000004e+00 +9.1448018154560096e+00 +0.0000000000000000e+00 +7.3999992782055797e+00 +1.1586575318150331e-02 -1.0330721720558809e+00 -5.8752566927289029e-02
7.5000000000000000e+00 +9.1447247976682995e+00 +0.0000000000000000e+00 +7.4999992485464304e+00 +1.1586519668219211e-02 -1.0330716261913655e+00 -5.8752900485739258e-02
7.5999999999999996e+00 +9.1446467460835503e+00 +0.0000000000000000e+00 +7.5999992180857303e+00 +1.1586464731132270e-02 -1.0330711696666155e+00 -5.8753265676967890e-02
7.7000000000000002e+00 +9.1445676607035296e+00 +0.0000000000000000e+00 +7.6999991868127999e+00 +1.1586410868857134e-02 -1.0330708127815331e+00 -5.8753663355361786e-02
7.7999999999999998e+00 +9.1444875415300100e+00 +0.0000000000000000e+00 +7.7999991547169403e+00 +1.1586358443086612e-02 -1.0330705658374626e+00 -5.8754094375217537e-02
7.9000000000000004e+00 +9.1444063885594495e+00 +0.0000000000000000e+00 +7.8999991217874603e+00 +1.1586307815230261e-02 -1.0330704391372576e+00 -5.8754559590739171e-02
8.0000000000000000e+00 +9.1443242017936104e+00 +0.0000000000000000e+00 +7.9999990880136904e+00 +1.1586259346405716e-02 -1.0330704429853084e+00 -5.8755059856034228e-02
8.0999999999999996e+00 +9.1442409812307197e+00 +0.0000000000000000e+00 +8.0999990533849306e+00 +1.1586213397430390e-02 -1.0330705876876181e+00 -5.8755596025111913e-02
8.1999999999999993e+00 +9.1441567268743391e+00 +0.0000000000000000e+00 +8.1999990178904891e+00 +1.1586170328812765e-02 -1.0330708835518330e+00 -5.8756168951879316e-02
8.3000000000000007e+00 +9.1440714387209105e+00 +0.0000000000000000e+00 +8.2999989815196997e+00 +1.1586130500744224e-02 -1.0330713408873267e+00 -5.8756779490139986e-02
8.4000000000000004e+00 +9.1439851167722104e+00 +0.0000000000000000e+00 +8.3999989442618492e+00 +1.1586094273090274e-02 -1.0330719700052258e+00 -5.8757428493589649e-02
8.5000000000000000e+00 +9.1438977610300203e+00 +0.0000000000000000e+00 +8.4999989061062706e+00 +1.1586062005382165e-02 -1.0330727812184735e+00 -5.8758116815814179e-02
8.5999999999999996e+00 +9.1438093714890005e+00 +0.0000000000000000e+00 +8.5999988670422596e+00 +1.1586033922710433e-02 -1.0330737805948040e+00 -5.8758845031245802e-02
8.6999999999999993e+00 +9.1437199481544802e+00 +0.0000000000000000e+00 +8.6999988270591402e+00 +1.1586009713628109e-02 -1.0330749572144104e+00 -5.8759612598077535e-02
8.8000000000000007e+00 +9.1436294910247007e+00 +0.0000000000000000e+00 +8.7999987861462294e+00 +1.1585988932847154e-02 -1.0330762959107473e+00 -5.8760418695550203e-02
8.9000000000000004e+00 +9.1435380000978608e+00 +0.0000000000000000e+00 +8.8999987442928301e+00 +1.1585971135411294e-02 -1.0330777815177810e+00 -5.8761262503035420e-02
9.0000000000000000e+00 +9.1434454753775292e+00 +0.0000000000000000e+00 +8.9999987014882503e+00 +1.1585955876706891e-02 -1.0330793988699907e+00 -5.8762143200039391e-02
9.0999999999999996e+00 +9.1433519168619295e+00 +0.0000000000000000e+00 +9.0999986577218195e+00 +1.1585942712474151e-02 -1.0330811328024034e+00 -5.8763059966208175e-02
9.1999999999999993e+00 +9.1432573245492801e+00 +0.0000000000000000e+00 +9.1999986129828297e+00 +1.1585931198817984e-02 -1.0330829681505964e+00 -5.8764011981331493e-02
9.3000000000000007e+00 +9.1431616984413608e+00 +0.0000000000000000e+00 +9.2999985672606194e+00 +1.1585920892218876e-02 -1.0330848897506983e+00 -5.8764998425346437e-02
9.4000000000000004e+00 +9.1430650385381700e+00 +0.0000000000000000e+00 +9.3999985205444805e+00 +1.1585911349543999e-02 -1.0330868824394157e+00 -5.8766018478342362e-02
9.5000000000000000e+00 +9.1429673448397004e+00 +0.0000000000000000e+00 +9.4999984728237195e+00 +1.1585902128058148e-02 -1.0330889310540390e+00 -5.8767071320564898e-02
9.5999999999999996e+00 +9.1428686173459699e+00 +0.0000000000000000e+00 +9.5999984240876799e+00 +1.1585892785434702e-02 -1.0330910204324573e+00 -5.8768156132420195e-02
9.6999999999999993e+00 +9.1427688560551807e+00 +0.0000000000000000e+00 +9.6999983743256504e+00 +1.1585882879766654e-02 -1.0330931354131716e+00 -5.8769272094479325e-02
9.8000000000000007e+00 +9.1426680609726798e+00 +0.0000000000000000e+00 +9.7999983235269408e+00 +1.1585871969577392e-02 -1.0330952608352901e+00 -5.8770418387481628e-02
9.9000000000000004e+00 +9.1425662320913492e+00 +0.0000000000000000e+00 +9.8999982716808805e+00 +1.1585859613832102e-02 -1.0330973815385827e+00 -5.8771594192341056e-02
1.0000000000000000e+01 +9.1424633694165305e+00 +0.0000000000000000e+00 +9.9999982187767706e+00 +1.1585845371948195e-02 -1.0330994823634363e+00 -5.8772798690147551e-02
1.0100000000000000e+01 +9.1423594729446602e+00 +0.0000000000000000e+00 +1.0099998164803900e+01 +1.1585828803806783e-02 -1.0331015481509180e+00 -5.8774031062173895e-02
1.0199999999999999e+01 +9.1422545426793000e+00 +0.0000000000000000e+00 +1.0199998109751700e+01 +1.1585809469763267e-02 -1.0331035637427488e+00 -5.8775290489877959e-02
1.0300000000000001e+01 +9.1421485786168795e+00 +0.0000000000000000e+00 +1.0299998053609301e+01 +1.1585786930658676e-02 -1.0331055139813494e+00 -5.8776576154908639e-02
1.0400000000000000e+01 +9.1420415807609707e+00 +0.0000000000000000e+00 +1.0399997996366100e+01 +1.1585760747830310e-02 -1.0331073837098201e+00 -5.8777887239108498e-02
1.0500000000000000e+01 +9.1419335491080194e+00 +0.0000000000000000e+00 +1.0499997938011500e+01 +1.1585730483123046e-02 -1.0331091577719858e+00 -5.8779222924519557e-02
1.0600000000000000e+01 +9.1418244836597893e+00 +0.0000000000000000e+00 +1.0599997878534600e+01 +1.1585695848566271e-02 -1.0331108247871197e+00 -5.8780582398943106e-02
1.0699999999999999e+01 +9.1417143844180693e+00 +0.0000000000000000e+00 +1.0699997817925000e+01 +1.1585657155073635e-02 -1.0331123884738116e+00 -5.8781964872464579e-02
1.0800000000000001e+01 +9.1416032513792906e+00 +0.0000000000000000e+00 +1.0799997756171701e+01 +1.1585614862818758e-02 -1.0331138563229698e+00 -5.8783369560516628e-02
1.0900000000000000e+01 +9.1414910845470292e+00 +0.0000000000000000e+00 +1.0899997693264300e+01 +1.1585569431451148e-02 -1.0331152358221776e+00 -5.8784795678276013e-02
1.1000000000000000e+01 +9.1413778839177091e+00 +0.0000000000000000e+00 +1.0999997629191901e+01 +1.1585521320083062e-02 -1.0331165344556488e+00 -5.8786242440659012e-02
1.1100000000000000e+01 +9.1412636494931299e+00 +0.0000000000000000e+00 +1.1099997563943900e+01 +1.1585470987275694e-02 -1.0331177597041188e+00 -5.8787709062313377e-02
1.1199999999999999e+01 +9.1411483812750394e+00 +0.0000000000000000e+00 +1.1199997497509599e+01 +1.1585418891025812e-02 -1.0331189190447727e+00 -5.8789194757612399e-02
1.1300000000000001e+01 +9.1410320792599205e+00 +0.0000000000000000e+00 +1.1299997429878401e+01 +1.1585365488752367e-02 -1.0331200199511810e+00 -5.8790698740649142e-02
1.1400000000000000e+01 +9.1409147434512903e+00 +0.0000000000000000e+00 +1.1399997361039500e+01 +1.1585311237282715e-02 -1.0331210698931879e+00 -5.8792220225228495e-02
1.1500000000000000e+01 +9.1407963738456193e+00 +0.0000000000000000e+00 +1.1499997290982201e+01 +1.1585256592839408e-02 -1.0331220763368649e+00 -5.8793758424862286e-02
1.1600000000000000e+01 +9.1406769704464494e+00 +0.0000000000000000e+00 +1.1599997219695799e+01 +1.1585202011026398e-02 -1.0331230467443968e+00 -5.8795312552761186e-02
1.1699999999999999e+01 +9.1405565332520098e+00 +0.0000000000000000e+00 +1.1699997147169800e+01 +1.1585147946815789e-02 -1.0331239885740300e+00 -5.8796881821829697e-02
1.1800000000000001e+01 +9.1404350622623003e+00 +0.0000000000000000e+00 +1.1799997073393300e+01 +1.1585094854534156e-02 -1.0331249092799759e+00 -5.8798465444658693e-02
