# multipoles
# s[mm] polynom_b[n=0][T/m^n] polynom_b[n=1][T/m^n] polynom_b[n=2][T/m^n] polynom_b[n=3][T/m^n] polynom_b[n=4][T/m^n] polynom_b[n=5][T/m^n] polynom_b[n=6][T/m^n] 
+0.0000000000000000e+00 -1.0329855268049370e+00 +2.3421688087085206e+00 +2.7319324238665601e+01 -9.7897023616814602e+02 -1.4090661002777578e+05 +3.9042580494118324e+06 +7.4122291464391863e+08 
+1.0000000000000001e-01 -1.0329896660163067e+00 +2.3420955449761491e+00 +2.7320087834023337e+01 -9.7383746346482656e+02 -1.4027048410080624e+05 +3.8615333134983014e+06 +7.3746548867662287e+08 
+2.0000000000000001e-01 -1.0329937906268067e+00 +2.3420270554530833e+00 +2.7322873790735105e+01 -9.6891389729172852e+02 -1.3967361725949886e+05 +3.8204556890274649e+06 +7.3386804024495590e+08 
+2.9999999999999999e-01 -1.0329978968136253e+00 +2.3419647374947887e+00 +2.7327786747069542e+01 -9.6425029479053751e+02 -1.3912032218462703e+05 +3.7813522672015736e+06 +7.3045596957801592e+08 
+4.0000000000000002e-01 -1.0330019807541653e+00 +2.3419099884281835e+00 +2.7334931376575625e+01 -9.5989741182407022e+02 -1.3861491235250278e+05 +3.7445501305053048e+06 +7.2725468110999763e+08 
+5.0000000000000000e-01 -1.0330060386260571e+00 +2.3418642055444021e+00 +2.7344412392182235e+01 -9.5590600268001822e+02 -1.3816170211926030e+05 +3.7103763505954691e+06 +7.2428958389368224e+08 
+5.9999999999999998e-01 -1.0330100664602953e+00 +2.3418282113430346e+00 +2.7356241781446041e+01 -9.5230963577500074e+02 -1.3776308394186560e+05 +3.6790564641578482e+06 +7.2157697207148099e+08 
+6.9999999999999996e-01 -1.0330140596583610e+00 +2.3418005432439237e+00 +2.7370058078846270e+01 -9.4907347238058321e+02 -1.3741374511120559e+05 +3.6504114809616921e+06 +7.1909669465227056e+08 
+8.0000000000000004e-01 -1.0330180134537723e+00 +2.3417791708799665e+00 +2.7385405842529252e+01 -9.4614565357364472e+02 -1.3710644284816462e+05 +3.6241616632102430e+06 +7.1681949645603096e+08 
+9.0000000000000002e-01 -1.0330219230801296e+00 +2.3417620638867334e+00 +2.7401829652650054e+01 -9.4347432003203892e+02 -1.3683393492108746e+05 +3.6000272692260700e+06 +7.1471612529418838e+08 
+1.0000000000000000e+00 -1.0330257837711250e+00 +2.3417471919138326e+00 +2.7418874108430476e+01 -9.4100761242143551e+02 -1.3658897957895393e+05 +3.5777285558026107e+06 +7.1275733160921168e+08 
+1.1000000000000001e+00 -1.0330295907604348e+00 +2.3417325246321927e+00 +2.7436083818665320e+01 -9.3869367159239664e+02 -1.3636433537388837e+05 +3.5569857793316725e+06 +7.1091386762875032e+08 
+1.2000000000000000e+00 -1.0330333392817348e+00 +2.3417160317444168e+00 +2.7453003401704091e+01 -9.3648063892056086e+02 -1.3615276116060719e+05 +3.5375191978594782e+06 +7.0915648735041511e+08 
+1.3000000000000000e+00 -1.0330370245686049e+00 +2.3416956829899664e+00 +2.7469177473696259e+01 -9.3431665647146156e+02 -1.3594701585893068e+05 +3.5190490720783845e+06 +7.0745594536454701e+08 
+1.3999999999999999e+00 -1.0330406418545219e+00 +2.3416694481580365e+00 +2.7484150648032426e+01 -9.3214986740834013e+02 -1.3573985845572801e+05 +3.5012956677760342e+06 +7.0578299688751531e+08 
+1.5000000000000000e+00 -1.0330441863728490e+00 +2.3416352970963712e+00 +2.7497467533638595e+01 -9.2992841623798427e+02 -1.3552404796455722e+05 +3.4839792572008092e+06 +7.0410839753439343e+08 
+1.6000000000000001e+00 -1.0330476533567561e+00 +2.3415911997196210e+00 +2.7508672726131710e+01 -9.2760044911660475e+02 -1.3529234325565276e+05 +3.4668201210361244e+06 +7.0240290249836445e+08 
+1.7000000000000000e+00 -1.0330510380391889e+00 +2.3415351260138677e+00 +2.7517310802755237e+01 -9.2511411395816958e+02 -1.3503750295771551e+05 +3.4495385489263004e+06 +7.0063726606427121e+08 
+1.8000000000000000e+00 -1.0330543356528696e+00 +2.3414650460549256e+00 +2.7522926322750408e+01 -9.2241756102903832e+02 -1.3475228546491126e+05 +3.4318548430941454e+06 +6.9878224163165271e+08 
+1.8999999999999999e+00 -1.0330575414301688e+00 +2.3413789300087617e+00 +2.7525063812190069e+01 -9.1945894293604147e+02 -1.3442944864328127e+05 +3.4134893182035862e+06 +6.9680858029459059e+08 
+2.0000000000000000e+00 -1.0330606506031643e+00 +2.3412747481431713e+00 +2.7523267769588912e+01 -9.1618641502693822e+02 -1.3406174993633488e+05 +3.3941623038290655e+06 +6.9468703132846546e+08 
+2.1000000000000001e+00 -1.0330636584035602e+00 +2.3411504708363071e+00 +2.7517082658979934e+01 -9.1254813563511311e+02 -1.3364194623813900e+05 +3.3735941458714115e+06 +6.9238834158892953e+08 
+2.2000000000000002e+00 -1.0330665600626532e+00 +2.3410040685897440e+00 +2.7506052902143473e+01 -9.0849226648274725e+02 -1.3316279373331388e+05 +3.3515052089396180e+06 +6.8988325470811117e+08 
+2.2999999999999998e+00 -1.0330693508113018e+00 +2.3408335120342274e+00 +2.7489722876522119e+01 -9.0396697287797372e+02 -1.3261704786340400e+05 +3.3276158775573615e+06 +6.8714251093742144e+08 
+2.3999999999999999e+00 -1.0330720258798425e+00 +2.3406367719334580e+00 +2.7467636905467632e+01 -8.9892042383352407e+02 -1.3199746313463041e+05 +3.3016465568951387e+06 +6.8413684620530832e+08 
+2.5000000000000000e+00 -1.0330745804981201e+00 +2.3404118192029353e+00 +2.7439339260872828e+01 -8.9330079262649326e+02 -1.3129679316878313e+05 +3.2733176759234276e+06 +6.8083699234162903e+08 
+2.6000000000000001e+00 -1.0330770105187750e+00 +2.3401570198109831e+00 +2.7404441974365898e+01 -8.8706709544894215e+02 -1.3050860984646917e+05 +3.2424084317071768e+06 +6.7721558911437690e+08 
+2.7000000000000002e+00 -1.0330793144073516e+00 +2.3398723237434798e+00 +2.7362833057349512e+01 -8.8022288420894654e+02 -1.2962976517927198e+05 +3.2089444030349869e+06 +6.7325276168977118e+08 
+2.7999999999999998e+00 -1.0330814913136099e+00 +2.3395580783987215e+00 +2.7314470849515057e+01 -8.7278315449281615e+02 -1.2865793312139901e+05 +3.1730157038728823e+06 +6.6893046066019619e+08 
+2.8999999999999999e+00 -1.0330835403873566e+00 +2.3392146311922426e+00 +2.7259313713538372e+01 -8.6476290225433820e+02 -1.2759078827007084e+05 +3.1347124518403341e+06 +6.6423064033428407e+08 
+3.0000000000000000e+00 -1.0330854607782860e+00 +2.3388423295659382e+00 +2.7197320018112233e+01 -8.5617712406128510e+02 -1.2642600553459741e+05 +3.0941247697887369e+06 +6.5913525715725815e+08 
+3.1000000000000001e+00 -1.0330872516361300e+00 +2.3384415209703526e+00 +2.7128448155757283e+01 -8.4704081658522955e+02 -1.2516126049803199e+05 +3.0513427829793585e+06 +6.5362627151045966e+08 
+3.2000000000000002e+00 -1.0330889121106746e+00 +2.3380125528692473e+00 +2.7052656545255637e+01 -8.3736897675471857e+02 -1.2379422946837169e+05 +3.0064566202317537e+06 +6.4768564798179936e+08 
+3.2999999999999998e+00 -1.0330904413516087e+00 +2.3375557727334151e+00 +2.6969903614807961e+01 -8.2717660157618388e+02 -1.2232258915936737e+05 +2.9595564130827324e+06 +6.4129535385945559e+08 
+3.3999999999999999e+00 -1.0330918385087666e+00 +2.3370715280282175e+00 +2.6880147831789508e+01 -8.1647868779485691e+02 -1.2074401727190014e+05 +2.9107322940452634e+06 +6.3443736195647883e+08 
+3.5000000000000000e+00 -1.0330931027319847e+00 +2.3365601662217372e+00 +2.6783347685364973e+01 -8.0529023213564835e+02 -1.1905619216546130e+05 +2.8600743982127830e+06 +6.2709364906393313e+08 
+3.6000000000000001e+00 -1.0330942331711428e+00 +2.3360220347726854e+00 +2.6679461693895867e+01 -7.9362623095738161e+02 -1.1725679301051455e+05 +2.8076728614580780e+06 +6.1924619672119439e+08 
+3.7000000000000002e+00 -1.0330952289762716e+00 +2.3354574811290467e+00 +2.6568448417939052e+01 -7.8150168023036042e+02 -1.1534350004241783e+05 +2.7536178205196061e+06 +6.1087699245502985e+08 
+3.7999999999999998e+00 -1.0330960892974672e+00 +2.3348668527173588e+00 +2.6450266449323220e+01 -7.6893157524386856e+02 -1.1331399436070101e+05 +2.6979994115492268e+06 +6.0196802885753798e+08 
+3.8999999999999999e+00 -1.0330968132848846e+00 +2.3342504969509870e+00 +2.6324874413296108e+01 -7.5593091083678928e+02 -1.1116595797579866e+05 +2.6409077716168906e+06 +5.9250130383651340e+08 
+4.0000000000000000e+00 -1.0330974000889133e+00 +2.3336087612115639e+00 +2.6192230988019457e+01 -7.4251468089301159e+02 -1.0889707419277860e+05 +2.5824330360258175e+06 +5.8245882248903096e+08 
+4.0999999999999996e+00 -1.0330978488599751e+00 +2.3329419928567741e+00 +2.6052294884223812e+01 -7.2869787855545417e+02 -1.0650502722630344e+05 +2.5226653397682384e+06 +5.7182259528846097e+08 
+4.2000000000000002e+00 -1.0330981587487238e+00 +2.3322505392050941e+00 +2.5905024866350306e+01 -7.1449549580929238e+02 -1.0398750261624943e+05 +2.4616948152904189e+06 +5.6057464011150646e+08 
+4.2999999999999998e+00 -1.0330983289059432e+00 +2.3315347475403594e+00 +2.5750379743437495e+01 -6.9992252362093006e+02 -1.0134218705463587e+05 +2.3996115935625457e+06 +5.4869698142772377e+08 
+4.4000000000000004e+00 -1.0330983584826281e+00 +2.3307949651007647e+00 +2.5588318378782414e+01 -6.8499395163068959e+02 -9.8566768587426966e+04 +2.3365058024678524e+06 +5.3617165132383162e+08 
+4.5000000000000000e+00 -1.0330982466299692e+00 +2.3300315390926620e+00 +2.5418799690613056e+01 -6.6972476871250183e+02 -9.5658936647472598e+04 +2.2724675710420986e+06 +5.2298068976988244e+08 
+4.5999999999999996e+00 -1.0330979943338690e+00 +2.3292449617566922e+00 +2.5241871517319165e+01 -6.5413172722612251e+02 -9.2618184384510998e+04 +2.2075930258894651e+06 +5.0911602844935244e+08 
+4.7000000000000002e+00 -1.0330976098223770e+00 +2.3284362644974776e+00 +2.5057915792129474e+01 -6.3823475159263660e+02 -8.9450869310530965e+04 +2.1419710962724122e+06 +4.9460766729250938e+08 
+4.7999999999999998e+00 -1.0330971031116627e+00 +2.3276066039453212e+00 +2.4867392969642207e+01 -6.2205358165377424e+02 -8.6164996055483454e+04 +2.0756810301012690e+06 +4.7949488245724648e+08 
+4.9000000000000004e+00 -1.0330964842180510e+00 +2.3267571366571609e+00 +2.4670763518879333e+01 -6.0560795473742326e+02 -8.2768569524016566e+04 +2.0088020573273425e+06 +4.6381695139736754e+08 
+5.0000000000000000e+00 -1.0330957631579583e+00 +2.3258890191144537e+00 +2.4468487915176343e+01 -5.8891760583522387e+02 -7.9269594680012233e+04 +1.9414133916799789e+06 +4.4761315161958653e+08 
+5.0999999999999996e+00 -1.0330949499479503e+00 +2.3250034077140258e+00 +2.4261026646121881e+01 -5.7200226734497335e+02 -7.5676076664019696e+04 +1.8735942289568272e+06 +4.3092276124815613e+08 
+5.2000000000000002e+00 -1.0330940546047245e+00 +2.3241014587726818e+00 +2.4048840206650631e+01 -5.5488166919995695e+02 -7.1996020672067869e+04 +1.8054237475868426e+06 +4.1378505836072719e+08 
+5.2999999999999998e+00 -1.0330930871451363e+00 +2.3231843285167364e+00 +2.3832389103980301e+01 -5.3757553857099253e+02 -6.8237432050956879e+04 +1.7369811067169185e+06 +3.9623932144326389e+08 
+5.4000000000000004e+00 -1.0330920575861640e+00 +2.3222531730748539e+00 +2.3612133848866424e+01 -5.2010359966010981e+02 -6.4408316107858991e+04 +1.6683454448071222e+06 +3.7832482840492624e+08 
+5.5000000000000000e+00 -1.0330909759449451e+00 +2.3213091484793735e+00 +2.3388534962627133e+01 -5.0248557372849490e+02 -6.0516678242878632e+04 +1.5995958796010071e+06 +3.6008085720276207e+08 
+5.5999999999999996e+00 -1.0330898522388501e+00 +2.3203534106586550e+00 +2.3162052981407989e+01 -4.8474117889695265e+02 -5.6570524013664261e+04 +1.5308115067820151e+06 +3.4154668609378231e+08 
+5.7000000000000002e+00 -1.0330886964853478e+00 +2.3193871154336807e+00 +2.2933148441110227e+01 -4.6689013003863414e+02 -5.2577858830966652e+04 +1.4620713991760921e+06 +3.2276159212989360e+08 
+5.7999999999999998e+00 -1.0330875187021278e+00 +2.3184114185118845e+00 +2.2702281889687011e+01 -4.4895213858761213e+02 -4.8546688190100758e+04 +1.3934546053815845e+06 +3.0376485224759841e+08 
+5.9000000000000004e+00 -1.0330863289070653e+00 +2.3174274754834823e+00 +2.2469913883416687e+01 -4.3094691244900810e+02 -4.4485017581267166e+04 +1.3250401491186407e+06 +2.8459574277848023e+08 
+6.0000000000000000e+00 -1.0330851371182201e+00 +2.3164364418114216e+00 +2.2236504985201655e+01 -4.1289415570743182e+02 -4.0400852450228762e+04 +1.2569070273232681e+06 +2.6529353923777229e+08 
+6.0999999999999996e+00 -1.0330839533538805e+00 +2.3154394728402150e+00 +2.2002515765385148e+01 -3.9481356889240476e+02 -3.6302198194050063e+04 +1.1891342115051877e+06 +2.4589751624183851e+08 
+6.2000000000000002e+00 -1.0330827876325270e+00 +2.3144377237768095e+00 +2.1768406802983989e+01 -3.7672484839573718e+02 -3.2197060181302269e+04 +1.1218006441380049e+06 +2.2644694758693191e+08 
+6.2999999999999998e+00 -1.0330816499728930e+00 +2.3134323496919387e+00 +2.1534638685838122e+01 -3.5864768653124810e+02 -2.8093443737493435e+04 +1.0549852388165446e+06 +2.0698110612571970e+08 
+6.4000000000000004e+00 -1.0330805503938898e+00 +2.3124245055161254e+00 +2.1301672002638771e+01 -3.4060177144348745e+02 -2.3999353982438475e+04 +9.8876687962155393e+05 +1.8753926295371869e+08 
+6.5000000000000000e+00 -1.0330794989146781e+00 +2.3114153460246429e+00 +2.1069967350488071e+01 -3.2260678638689535e+02 -1.9922795919678065e+04 +9.2322441726213065e+05 +1.6816068777012900e+08 
+6.5999999999999996e+00 -1.0330785043632809e+00 +2.3104060563161846e+00 +2.0839958958617107e+01 -3.0468142128079285e+02 -1.5871350828239045e+04 +8.5842984826950263e+05 +1.4888275163886729e+08 
+6.7000000000000002e+00 -1.0330775708188520e+00 +2.3093978855276718e+00 +2.0611976018318693e+01 -2.8684060888609633e+02 -1.1851029340406805e+04 +7.9442963376602414e+05 +1.2973599605768658e+08 
+6.7999999999999998e+00 -1.0330767011702060e+00 +2.3083920836857019e+00 +2.0386320820964077e+01 -2.6909834628771426e+02 -7.8674586444077395e+03 +7.3126406328680587e+05 +1.1074933325539756e+08 
+6.9000000000000004e+00 -1.0330758983063530e+00 +2.3073899008265650e+00 +2.0163295643531878e+01 -2.5146863169224019e+02 -3.9262653763594039e+03 +6.6897343285121326e+05 +9.1951672026407406e+07 
+7.0000000000000000e+00 -1.0330751651166628e+00 +2.3063925869777631e+00 +1.9943202772219145e+01 -2.3396546386402235e+02 -3.3076086776341242e+01 +6.0759804198531550e+05 +7.3371919974232018e+07 
+7.0999999999999996e+00 -1.0330745044907976e+00 +2.3054013921636476e+00 +1.9726344490884106e+01 -2.1660284230423144e+02 +3.8064829929733801e+03 +5.4717819472287805e+05 +5.5038982355997458e+07 
+7.2000000000000002e+00 -1.0330739193186909e+00 +2.3044175664095254e+00 +1.9513023074848842e+01 -1.9939476741404246e+02 +7.5867860867305862e+03 +4.8775420061309892e+05 +3.6981761386100389e+07 
+7.2999999999999998e+00 -1.0330734124906260e+00 +2.3034423597418034e+00 +1.9303540805412876e+01 -1.8235524052381737e+02 +1.1302207597280960e+04 +4.2936637496870186e+05 +1.9229157546446756e+07 
+7.4000000000000004e+00 -1.0330729868971837e+00 +2.3024770221850992e+00 +1.9098199953421688e+01 -1.6549826385621290e+02 +1.4947122440770077e+04 +3.7205503864070575e+05 +1.8100679336241547e+06 
+7.5000000000000000e+00 -1.0330726454293342e+00 +2.3015228037663022e+00 +1.8897302796054014e+01 -1.4883784065663875e+02 +1.8515905731658171e+04 +3.1586051882675767e+05 -1.5246612258499961e+07 
+7.5999999999999996e+00 -1.0330723909783415e+00 +2.3005809545178844e+00 +1.8701151599760244e+01 -1.3238797535009945e+02 +2.2002933121801372e+04 +2.6082315007203873e+05 -3.1911991392305993e+07 
+7.7000000000000002e+00 -1.0330722264358181e+00 +2.2996527244719909e+00 +1.8510048628227420e+01 -1.1616267336802836e+02 +2.5402580657873481e+04 +2.0698327322331068e+05 -4.8157180738540538e+07 
+7.7999999999999998e+00 -1.0330721546937744e+00 +2.2987393636707418e+00 +1.8324296145400318e+01 -1.0017594151028430e+02 +2.8709224737679222e+04 +1.5438123764303929e+05 -6.3953294304659694e+07 
+7.9000000000000004e+00 -1.0330721786445527e+00 +2.2978421221564047e+00 +1.8144196405162710e+01 -8.4441787680123426e+01 +3.1917242313011804e+04 +1.0305739966126367e+05 -7.9271449825628653e+07 
+8.0000000000000000e+00 -1.0330723011808847e+00 +2.2969622499859472e+00 +1.7970051658499923e+01 -6.8974221341724714e+01 +3.5021010773739792e+04 +5.3052125316137084e+04 -9.4082768267495543e+07 
+8.0999999999999996e+00 -1.0330725251958872e+00 +2.2961009972147481e+00 +1.7802164151535806e+01 -5.3787253078876169e+01 +3.8014907981540047e+04 +4.4057877869935910e+03 -1.0835837398235629e+08 
+8.1999999999999993e+00 -1.0330728535830629e+00 +2.2952596139177515e+00 +1.7640836123717119e+01 -3.8894895240373891e+01 +4.0893312333267517e+04 -4.2841228780081932e+04 -1.2206939509186526e+08 
+8.3000000000000007e+00 -1.0330732892363235e+00 +2.2944393501713702e+00 +1.7486369808518806e+01 -2.4311161462472640e+01 +4.3650602743095114e+04 -8.8648532009320013e+04 -1.3518696339302874e+08 
+8.4000000000000004e+00 -1.0330738350499917e+00 +2.2936414560663394e+00 +1.7339067433496446e+01 -1.0050067044976265e+01 +4.6281158662609763e+04 -1.3297571911968503e+05 -1.4768221451371223e+08 
+8.5000000000000000e+00 -1.0330744939187488e+00 +2.2928671816220900e+00 +1.7199231201636785e+01 +3.8743747246195448e+00 +4.8779360645477282e+04 -1.7578240683658386e+05 -1.5952629175913718e+08 
+8.5999999999999996e+00 -1.0330752666756520e+00 +2.2921172621968839e+00 +1.7066996065445402e+01 +1.7458885872859657e+01 +5.1142911244070448e+04 -2.1708804718931555e+05 -1.7070758851230884e+08 
+8.6999999999999993e+00 -1.0330761459031053e+00 +2.2913906176357983e+00 +1.6941878458438243e+01 +3.0732039426969251e+01 +5.3381829848919529e+04 -2.5707103121094347e+05 -1.8127834221968240e+08 
+8.8000000000000007e+00 -1.0330771221230273e+00 +2.2906857675807775e+00 +1.6823251776966160e+01 +4.3727721091386826e+01 +5.5509032234760816e+04 -2.9593038686161878e+05 -1.9130591365972611e+08 
+8.9000000000000004e+00 -1.0330781858566549e+00 +2.2900012317172651e+00 +1.6710489332022721e+01 +5.6479812948273128e+01 +5.7537436007162825e+04 -3.3386510822051758e+05 -2.0085767273503703e+08 
+9.0000000000000000e+00 -1.0330793276245789e+00 +2.2893355297329943e+00 +1.6602964360106839e+01 +6.9022196157103352e+01 +5.9479960174495136e+04 -3.7107417447462713e+05 -2.1000099572053978e+08 
+9.0999999999999996e+00 -1.0330805379466903e+00 +2.2886871813256953e+00 +1.6500050012947469e+01 +8.1388750657967378e+01 +6.1349525350974072e+04 -4.0775654778536322e+05 -2.1880326624470288e+08 
+9.1999999999999993e+00 -1.0330818073421693e+00 +2.2880547062009935e+00 +1.6401119358396546e+01 +9.3613355258865965e+01 +6.3159053731337350e+04 -4.4411117363882554e+05 -2.2733187513452670e+08 
+9.3000000000000007e+00 -1.0330831263294256e+00 +2.2874366240740280e+00 +1.6305545374266181e+01 +1.0572988755909664e+02 +6.4921469211490337e+04 -4.8033698007981409e+05 -2.3565422099630001e+08 
+9.4000000000000004e+00 -1.0330844854261116e+00 +2.2868314546665713e+00 +1.6212700949545322e+01 +1.1777222400661712e+02 +6.6649697355354496e+04 -5.1663287776030862e+05 -2.4383771001873386e+08 
+9.5000000000000000e+00 -1.0330858751490954e+00 +2.2862377177120830e+00 +1.6121958880994306e+01 +1.2977423973967737e+02 +6.8356665464974431e+04 -5.5319775876350969e+05 -2.5194975631396744e+08 
+9.5999999999999996e+00 -1.0330872860144618e+00 +2.2856539329571293e+00 +1.6032691874748725e+01 +1.4176980853603652e+02 +7.0055302541874596e+04 -5.9023049605951493e+05 -2.6005778170523903e+08 
+9.6999999999999993e+00 -1.0330887085374292e+00 +2.2850786201562414e+00 +1.5944272535128146e+01 +1.5379280292885761e+02 +7.1758539499582737e+04 -6.2792994385792431e+05 -2.6822921672521242e+08 
+9.8000000000000007e+00 -1.0330901332323372e+00 +2.2845102990776156e+00 +1.5856073366542457e+01 +1.6587709403427894e+02 +7.3479309125265252e+04 -6.6649493634177570e+05 -2.7653150042513901e+08 
+9.9000000000000004e+00 -1.0330915506127323e+00 +2.2839474895054237e+00 +1.5767466778990807e+01 +1.7805655146583862e+02 +7.5230545971921922e+04 -7.0612428696039296e+05 -2.8503207984037459e+08 
+1.0000000000000000e+01 -1.0330929511911753e+00 +2.2833887112367575e+00 +1.5677825071253851e+01 +1.9036504339939333e+02 +7.7025186675641846e+04 -7.4701678842202073e+05 -2.9379841148738998e+08 
+1.0100000000000000e+01 -1.0330943254793648e+00 +2.2828324840813723e+00 +1.5586520441458644e+01 +2.0283643656922700e+02 +7.8876169751929381e+04 -7.8937121250269376e+05 -3.0289796037964243e+08 
