# trajectory
# s[mm] rx[mm] ry[mm] rz[mm] px[rad] py[rad] pz[rad]
0.0000000000000000e+00 +9.1013000000000002e+00 +0.0000000000000000e+00 +0.0000000000000000e+00 +0.0000000000000000e+00 +0.0000000000000000e+00 +1.0000000000000000e+00
1.0000000000000001e-01 +9.1012994844854784e+00 +0.0000000000000000e+00 +9.9999999998228284e-02 -1.0310292344135590e-05 +0.0000000000000000e+00 +9.9999999994684896e-01
2.0000000000000001e-01 +9.1012979379411583e+00 +0.0000000000000000e+00 +1.9999999998582635e-01 -2.0620595899555885e-05 +0.0000000000000000e+00 +9.9999999978739551e-01
3.0000000000000004e-01 +9.1012953603659437e+00 +0.0000000000000000e+00 +2.9999999995216398e-01 -3.0930910123414381e-05 +0.0000000000000000e+00 +9.9999999952163943e-01
4.0000000000000002e-01 +9.1012917517587955e+00 +0.0000000000000000e+00 +3.9999999988661084e-01 -4.1241234487096373e-05 +0.0000000000000000e+00 +9.9999999914958027e-01
5.0000000000000000e-01 +9.1012871121187260e+00 +0.0000000000000000e+00 +4.9999999977853660e-01 -5.1551568476214095e-05 +0.0000000000000000e+00 +9.9999999867121792e-01
5.9999999999999998e-01 +9.1012814414447973e+00 +0.0000000000000000e+00 +5.9999999961731099e-01 -6.1861911592621263e-05 +0.0000000000000000e+00 +9.9999999808655193e-01
6.9999999999999996e-01 +9.1012747397361196e+00 +0.0000000000000000e+00 +6.9999999939230351e-01 -7.2172263376622228e-05 +0.0000000000000000e+00 +9.9999999739558221e-01
7.9999999999999993e-01 +9.1012670069918471e+00 +0.0000000000000000e+00 +7.9999999909288388e-01 -8.2482623429183088e-05 +0.0000000000000000e+00 +9.9999999659830840e-01
8.9999999999999991e-01 +9.1012582432111699e+00 +0.0000000000000000e+00 +8.9999999870842173e-01 -9.2792991413950259e-05 +0.0000000000000000e+00 +9.9999999569473030e-01
9.9999999999999989e-01 +9.1012484483933100e+00 +0.0000000000000000e+00 +9.9999999822828656e-01 -1.0310336705725099e-04 +0.0000000000000000e+00 +9.9999999468484779e-01
1.0999999999999999e+00 +9.1012376225375107e+00 +0.0000000000000000e+00 +1.0999999976418477e+00 -1.1341375014809493e-04 +0.0000000000000000e+00 +9.9999999356866054e-01
1.2000000000000000e+00 +9.1012257656430364e+00 +0.0000000000000000e+00 +1.1999999969384751e+00 -1.2372414053817699e-04 +0.0000000000000000e+00 +9.9999999234616843e-01
1.3000000000000000e+00 +9.1012128777091625e+00 +0.0000000000000000e+00 +1.2999999961075379e+00 -1.3403453814188129e-04 +0.0000000000000000e+00 +9.9999999101737114e-01
1.4000000000000001e+00 +9.1011989587351678e+00 +0.0000000000000000e+00 +1.3999999951384057e+00 -1.4434494293628637e-04 +0.0000000000000000e+00 +9.9999998958226854e-01
1.5000000000000002e+00 +9.1011840087203328e+00 +0.0000000000000000e+00 +1.4999999940204480e+00 -1.5465535496117156e-04 +0.0000000000000000e+00 +9.9999998804086043e-01
1.6000000000000003e+00 +9.1011680276639311e+00 +0.0000000000000000e+00 +1.5999999927430342e+00 -1.6496577431902447e-04 +0.0000000000000000e+00 +9.9999998639314647e-01
1.7000000000000004e+00 +9.1011510155652200e+00 +0.0000000000000000e+00 +1.6999999912955337e+00 -1.7527620117504977e-04 +0.0000000000000000e+00 +9.9999998463912643e-01
1.8000000000000005e+00 +9.1011329724234393e+00 +0.0000000000000000e+00 +1.7999999896673160e+00 -1.8558663575717906e-04 +0.0000000000000000e+00 +9.9999998277880009e-01
1.9000000000000006e+00 +9.1011138982378021e+00 +0.0000000000000000e+00 +1.8999999878477503e+00 -1.9589707835608193e-04 +0.0000000000000000e+00 +9.9999998081216712e-01
2.0000000000000004e+00 +9.1010937930074896e+00 +0.0000000000000000e+00 +1.9999999858262059e+00 -2.0620752932517831e-04 +0.0000000000000000e+00 +9.9999997873922719e-01
2.1000000000000005e+00 +9.1010726567316436e+00 +0.0000000000000000e+00 +2.0999999835920522e+00 -2.1651798908065188e-04 +0.0000000000000000e+00 +9.9999997655997996e-01
2.2000000000000006e+00 +9.1010504894093636e+00 +0.0000000000000000e+00 +2.1999999811346584e+00 -2.2682845810146468e-04 +0.0000000000000000e+00 +9.9999997427442500e-01
2.3000000000000007e+00 +9.1010272910396957e+00 +0.0000000000000000e+00 +2.2999999784433935e+00 -2.3713893692937297e-04 +0.0000000000000000e+00 +9.9999997188256196e-01
2.4000000000000008e+00 +9.1010030616216309e+00 +0.0000000000000000e+00 +2.3999999755076269e+00 -2.4744942616894422e-04 +0.0000000000000000e+00 +9.9999996938439029e-01
2.5000000000000009e+00 +9.1009778011540927e+00 +0.0000000000000000e+00 +2.4999999723167279e+00 -2.5775992648757523e-04 +0.0000000000000000e+00 +9.9999996677990965e-01
2.6000000000000010e+00 +9.1009515096359390e+00 +0.0000000000000000e+00 +2.5999999688600655e+00 -2.6807043860983977e-04 +0.0000000000000000e+00 +9.9999996406911940e-01
2.7000000000000011e+00 +9.1009241870659530e+00 +0.0000000000000000e+00 +2.6999999651270081e+00 -2.7838096325511581e-04 +0.0000000000000000e+00 +9.9999996125201895e-01
2.8000000000000012e+00 +9.1008958334428485e+00 +0.0000000000000000e+00 +2.7999999611069253e+00 -2.8869150107520009e-04 +0.0000000000000000e+00 +9.9999995832860777e-01
2.9000000000000012e+00 +9.1008664487652791e+00 +0.0000000000000000e+00 +2.8999999567891859e+00 -2.9900205264863326e-04 +0.0000000000000000e+00 +9.9999995529888530e-01
3.0000000000000013e+00 +9.1008360330318432e+00 +0.0000000000000000e+00 +2.9999999521631584e+00 -3.0931261848069522e-04 +0.0000000000000000e+00 +9.9999995216285087e-01
3.1000000000000014e+00 +9.1008045862410931e+00 +0.0000000000000000e+00 +3.0999999472182123e+00 -3.1962319900339948e-04 +0.0000000000000000e+00 +9.9999994892050403e-01
3.2000000000000015e+00 +9.1007721083915403e+00 +0.0000000000000000e+00 +3.1999999419437155e+00 -3.2993379457548633e-04 +0.0000000000000000e+00 +9.9999994557184413e-01
3.3000000000000016e+00 +9.1007385994816659e+00 +0.0000000000000000e+00 +3.2999999363290371e+00 -3.4024440548241486e-04 +0.0000000000000000e+00 +9.9999994211687060e-01
3.4000000000000017e+00 +9.1007040595099244e+00 +0.0000000000000000e+00 +3.3999999303635455e+00 -3.5055503193635401e-04 +0.0000000000000000e+00 +9.9999993855558289e-01
3.5000000000000018e+00 +9.1006684884747546e+00 +0.0000000000000000e+00 +3.4999999240366098e+00 -3.6086567407617241e-04 +0.0000000000000000e+00 +9.9999993488798056e-01
3.6000000000000019e+00 +9.1006318863745843e+00 +0.0000000000000000e+00 +3.5999999173375978e+00 -3.7117633196742710e-04 +0.0000000000000000e+00 +9.9999993111406293e-01
3.7000000000000020e+00 +9.1005942532078361e+00 +0.0000000000000000e+00 +3.6999999102558783e+00 -3.8148700560235112e-04 +0.0000000000000000e+00 +9.9999992723382969e-01
3.8000000000000020e+00 +9.1005555889729415e+00 +0.0000000000000000e+00 +3.7999999027808196e+00 -3.9179769489984008e-04 +0.0000000000000000e+00 +9.9999992324728026e-01
3.9000000000000021e+00 +9.1005158936683390e+00 +0.0000000000000000e+00 +3.8999998949017902e+00 -4.0210839970543756e-04 +0.0000000000000000e+00 +9.9999991915441422e-01
4.0000000000000018e+00 +9.1004751672924904e+00 +0.0000000000000000e+00 +3.9999998866081583e+00 -4.1241911979131947e-04 +0.0000000000000000e+00 +9.9999991495523122e-01
4.1000000000000014e+00 +9.1004334098438822e+00 +0.0000000000000000e+00 +4.0999998778892923e+00 -4.2272985485627702e-04 +0.0000000000000000e+00 +9.9999991064973093e-01
4.2000000000000011e+00 +9.1003906213210328e+00 +0.0000000000000000e+00 +4.1999998687345608e+00 -4.3304060452569902e-04 +0.0000000000000000e+00 +9.9999990623791302e-01
4.3000000000000007e+00 +9.1003468017225053e+00 +0.0000000000000000e+00 +4.2999998591333313e+00 -4.4335136835155280e-04 +0.0000000000000000e+00 +9.9999990171977726e-01
4.4000000000000004e+00 +9.1003019510469088e+00 +0.0000000000000000e+00 +4.3999998490749723e+00 -4.5366214581236394e-04 +0.0000000000000000e+00 +9.9999989709532344e-01
4.5000000000000000e+00 +9.1002560692929091e+00 +0.0000000000000000e+00 +4.4999998385488524e+00 -4.6397293631319516e-04 +0.0000000000000000e+00 +9.9999989236455145e-01
4.5999999999999996e+00 +9.1002091564592344e+00 +0.0000000000000000e+00 +4.5999998275443392e+00 -4.7428373919116600e-04 +0.0000000000000000e+00 +9.9999988752746105e-01
4.6999999999999993e+00 +9.1001612125446805e+00 +0.0000000000000000e+00 +4.6999998160508012e+00 -4.8459455377639814e-04 +0.0000000000000000e+00 +9.9999988258405237e-01
4.7999999999999989e+00 +9.1001122375481085e+00 +0.0000000000000000e+00 +4.7999998040576060e+00 -4.9490537945298002e-04 +0.0000000000000000e+00 +9.9999987753432518e-01
4.8999999999999986e+00 +9.1000622314684385e+00 +0.0000000000000000e+00 +4.8999997915541220e+00 -5.0521621566452081e-04 +0.0000000000000000e+00 +9.9999987237827959e-01
4.9999999999999982e+00 +9.1000111943046420e+00 +0.0000000000000000e+00 +4.9999997785297179e+00 -5.1552706191416401e-04 +0.0000000000000000e+00 +9.9999986711591538e-01
5.0999999999999979e+00 +9.0999591260557366e+00 +0.0000000000000000e+00 +5.0999997649737612e+00 -5.2583791776460132e-04 +0.0000000000000000e+00 +9.9999986174723254e-01
5.1999999999999975e+00 +9.0999060267207827e+00 +0.0000000000000000e+00 +5.1999997508756204e+00 -5.3614878283808783e-04 +0.0000000000000000e+00 +9.9999985627223098e-01
5.2999999999999972e+00 +9.0998518962988726e+00 +0.0000000000000000e+00 +5.2999997362246631e+00 -5.4645965681645746e-04 +0.0000000000000000e+00 +9.9999985069091057e-01
5.3999999999999968e+00 +9.0997967347891304e+00 +0.0000000000000000e+00 +5.3999997210102579e+00 -5.5677053944114014e-04 +0.0000000000000000e+00 +9.9999984500327121e-01
5.4999999999999964e+00 +9.0997405421907018e+00 +0.0000000000000000e+00 +5.4999997052217733e+00 -5.6708143051317880e-04 +0.0000000000000000e+00 +9.9999983920931268e-01
5.5999999999999961e+00 +9.0996833185027501e+00 +0.0000000000000000e+00 +5.5999996888485768e+00 -5.7739232989324827e-04 +0.0000000000000000e+00 +9.9999983330903486e-01
5.6999999999999957e+00 +9.0996250637244493e+00 +0.0000000000000000e+00 +5.6999996718800361e+00 -5.8770323750167400e-04 +0.0000000000000000e+00 +9.9999982730243742e-01
5.7999999999999954e+00 +9.0995657778549770e+00 +0.0000000000000000e+00 +5.7999996543055197e+00 -5.9801415331845235e-04 +0.0000000000000000e+00 +9.9999982118952024e-01
5.8999999999999950e+00 +9.0995054608935106e+00 +0.0000000000000000e+00 +5.8999996361143960e+00 -6.0832507738327129e-04 +0.0000000000000000e+00 +9.9999981497028301e-01
5.9999999999999947e+00 +9.0994441128392225e+00 +0.0000000000000000e+00 +5.9999996172960328e+00 -6.1863600979553243e-04 +0.0000000000000000e+00 +9.9999980864472537e-01
6.0999999999999943e+00 +9.0993817336912688e+00 +0.0000000000000000e+00 +6.0999995978397976e+00 -6.2894695071437313e-04 +0.0000000000000000e+00 +9.9999980221284701e-01
6.1999999999999940e+00 +9.0993183234487898e+00 +0.0000000000000000e+00 +6.1999995777350581e+00 -6.3925790035869044e-04 +0.0000000000000000e+00 +9.9999979567464747e-01
6.2999999999999936e+00 +9.0992538821108973e+00 +0.0000000000000000e+00 +6.2999995569711826e+00 -6.4956885900716488e-04 +0.0000000000000000e+00 +9.9999978903012643e-01
6.3999999999999932e+00 +9.0991884096766764e+00 +0.0000000000000000e+00 +6.3999995355375390e+00 -6.5987982699828576e-04 +0.0000000000000000e+00 +9.9999978227928321e-01
6.4999999999999929e+00 +9.0991219061451734e+00 +0.0000000000000000e+00 +6.4999995134234947e+00 -6.7019080473037704e-04 +0.0000000000000000e+00 +9.9999977542211738e-01
6.5999999999999925e+00 +9.0990543715153915e+00 +0.0000000000000000e+00 +6.5999994906184183e+00 -6.8050179265768810e-04 +0.0000000000000000e+00 +9.9999976845862826e-01
6.6999999999999922e+00 +9.0989858057862865e+00 +0.0000000000000000e+00 +6.6999994671116765e+00 -6.9081279124711867e-04 +0.0000000000000000e+00 +9.9999976138881519e-01
6.7999999999999918e+00 +9.0989162089567710e+00 +0.0000000000000000e+00 +6.7999994428926369e+00 -7.0112380093492245e-04 +0.0000000000000000e+00 +9.9999975421267762e-01
6.8999999999999915e+00 +9.0988455810257154e+00 +0.0000000000000000e+00 +6.8999994179506672e+00 -7.1143482212275891e-04 +0.0000000000000000e+00 +9.9999974693021487e-01
6.9999999999999911e+00 +9.0987739219919508e+00 +0.0000000000000000e+00 +6.9999993922751349e+00 -7.2174585517768115e-04 +0.0000000000000000e+00 +9.9999973954142629e-01
7.0999999999999908e+00 +9.0987012318542728e+00 +0.0000000000000000e+00 +7.0999993658554077e+00 -7.3205690043212179e-04 +0.0000000000000000e+00 +9.9999973204631132e-01
7.1999999999999904e+00 +9.0986275106114469e+00 +0.0000000000000000e+00 +7.1999993386808532e+00 -7.4236795818387953e-04 +0.0000000000000000e+00 +9.9999972444486929e-01
7.2999999999999901e+00 +9.0985527582622101e+00 +0.0000000000000000e+00 +7.2999993107408381e+00 -7.5267902869610400e-04 +0.0000000000000000e+00 +9.9999971673709964e-01
7.3999999999999897e+00 +9.0984769748052745e+00 +0.0000000000000000e+00 +7.3999992820247291e+00 -7.6299011219728061e-04 +0.0000000000000000e+00 +9.9999970892300183e-01
7.4999999999999893e+00 +9.0984001602393310e+00 +0.0000000000000000e+00 +7.4999992525218939e+00 -7.7330120888121408e-04 +0.0000000000000000e+00 +9.9999970100257529e-01
7.5999999999999890e+00 +9.0983223145630525e+00 +0.0000000000000000e+00 +7.5999992222217001e+00 -7.8361231890701228e-04 +0.0000000000000000e+00 +9.9999969297581948e-01
7.6999999999999886e+00 +9.0982434377750998e+00 +0.0000000000000000e+00 +7.6999991911135135e+00 -7.9392344239906831e-04 +0.0000000000000000e+00 +9.9999968484273394e-01
7.7999999999999883e+00 +9.0981635298741210e+00 +0.0000000000000000e+00 +7.7999991591867026e+00 -8.0423457944704289e-04 +0.0000000000000000e+00 +9.9999967660331812e-01
7.8999999999999879e+00 +9.0980825908587573e+00 +0.0000000000000000e+00 +7.8999991264306333e+00 -8.1454573010584521e-04 +0.0000000000000000e+00 +9.9999966825757158e-01
7.9999999999999876e+00 +9.0980006207276460e+00 +0.0000000000000000e+00 +7.9999990928346723e+00 -8.2485689439561400e-04 +0.0000000000000000e+00 +9.9999965980549388e-01
8.0999999999999872e+00 +9.0979176194794249e+00 +0.0000000000000000e+00 +8.0999990583881871e+00 -8.3516807230169714e-04 +0.0000000000000000e+00 +9.9999965124708456e-01
8.1999999999999869e+00 +9.0978335871127332e+00 +0.0000000000000000e+00 +8.1999990230805437e+00 -8.4547926377463115e-04 +0.0000000000000000e+00 +9.9999964258234331e-01
8.2999999999999865e+00 +9.0977485236262190e+00 +0.0000000000000000e+00 +8.2999989869011106e+00 -8.5579046873011976e-04 +0.0000000000000000e+00 +9.9999963381126966e-01
8.3999999999999861e+00 +9.0976624290185413e+00 +0.0000000000000000e+00 +8.3999989498392527e+00 -8.6610168704901196e-04 +0.0000000000000000e+00 +9.9999962493386341e-01
8.4999999999999858e+00 +9.0975753032883695e+00 +0.0000000000000000e+00 +8.4999989118843384e+00 -8.7641291857727926e-04 +0.0000000000000000e+00 +9.9999961595012421e-01
8.5999999999999854e+00 +9.0974871464343927e+00 +0.0000000000000000e+00 +8.5999988730257328e+00 -8.8672416312821512e-04 +0.0000000000000000e+00 +9.9999960686005185e-01
8.6999999999999851e+00 +9.0973979584553177e+00 +0.0000000000000000e+00 +8.6999988332528044e+00 -8.9703542050686394e-04 +0.0000000000000000e+00 +9.9999959766364610e-01
8.7999999999999847e+00 +9.0973077393498709e+00 +0.0000000000000000e+00 +8.7999987925549181e+00 -9.0734669053445856e-04 +0.0000000000000000e+00 +9.9999958836090674e-01
8.8999999999999844e+00 +9.0972164891167946e+00 +0.0000000000000000e+00 +8.8999987509214407e+00 -9.1765797305063367e-04 +0.0000000000000000e+00 +9.9999957895183345e-01
8.9999999999999840e+00 +9.0971242077548489e+00 +0.0000000000000000e+00 +8.9999987083417405e+00 -9.2796926791341590e-04 +0.0000000000000000e+00 +9.9999956943642609e-01
9.0999999999999837e+00 +9.0970308952628045e+00 +0.0000000000000000e+00 +9.0999986648051827e+00 -9.3828057499921447e-04 +0.0000000000000000e+00 +9.9999955981468425e-01
9.1999999999999833e+00 +9.0969365516394447e+00 +0.0000000000000000e+00 +9.1999986203011339e+00 -9.4859189420281058e-04 +0.0000000000000000e+00 +9.9999955008660779e-01
9.2999999999999829e+00 +9.0968411768835633e+00 +0.0000000000000000e+00 +9.2999985748189609e+00 -9.5890322543734749e-04 +0.0000000000000000e+00 +9.9999954025219628e-01
9.3999999999999826e+00 +9.0967447709939595e+00 +0.0000000000000000e+00 +9.3999985283480285e+00 -9.6921456863432000e-04 +0.0000000000000000e+00 +9.9999953031144950e-01
9.4999999999999822e+00 +9.0966473339694396e+00 +0.0000000000000000e+00 +9.4999984808777054e+00 -9.7952592374356382e-04 +0.0000000000000000e+00 +9.9999952026436711e-01
9.5999999999999819e+00 +9.0965488658088152e+00 +0.0000000000000000e+00 +9.5999984323973582e+00 -9.8983729073324426e-04 +0.0000000000000000e+00 +9.9999951011094879e-01
9.6999999999999815e+00 +9.0964493665108979e+00 +0.0000000000000000e+00 +9.6999983828963519e+00 -1.0001486695898458e-03 +0.0000000000000000e+00 +9.9999949985119418e-01
9.7999999999999812e+00 +9.0963488360745011e+00 +0.0000000000000000e+00 +9.7999983323640532e+00 -1.0104600603181601e-03 +0.0000000000000000e+00 +9.9999948948510287e-01
9.8999999999999808e+00 +9.0962472744984382e+00 +0.0000000000000000e+00 +9.8999982807898288e+00 -1.0207714629412751e-03 +0.0000000000000000e+00 +9.9999947901267439e-01
9.9999999999999805e+00 +9.0961446817815155e+00 +0.0000000000000000e+00 +9.9999982281630437e+00 -1.0310828775005625e-03 +0.0000000000000000e+00 +9.9999946843390841e-01
1.0099999999999980e+01 +9.0960410579225375e+00 +0.0000000000000000e+00 +1.0099998174473065e+01 -1.0413943040556665e-03 +0.0000000000000000e+00 +9.9999945774880450e-01
1.0199999999999980e+01 +9.0959364029203016e+00 +0.0000000000000000e+00 +1.0199998119709258e+01 -1.0517057426844914e-03 +0.0000000000000000e+00 +9.9999944695736220e-01
1.0299999999999979e+01 +9.0958307167735946e+00 +0.0000000000000000e+00 +1.0299998063860992e+01 -1.0620171934831891e-03 +0.0000000000000000e+00 +9.9999943605958108e-01
1.0399999999999979e+01 +9.0957239994811943e+00 +0.0000000000000000e+00 +1.0399998006917629e+01 -1.0723286565661463e-03 +0.0000000000000000e+00 +9.9999942505546058e-01
1.0499999999999979e+01 +9.0956162510418661e+00 +0.0000000000000000e+00 +1.0499997948868538e+01 -1.0826401320659725e-03 +0.0000000000000000e+00 +9.9999941394500025e-01
1.0599999999999978e+01 +9.0955074714543613e+00 +0.0000000000000000e+00 +1.0599997889703085e+01 -1.0929516201320338e-03 +0.0000000000000000e+00 +9.9999940272819943e-01
1.0699999999999978e+01 +9.0953976607174152e+00 +0.0000000000000000e+00 +1.0699997829410634e+01 -1.1032631209144702e-03 +0.0000000000000000e+00 +9.9999939140505756e-01
1.0799999999999978e+01 +9.0952868188297504e+00 +0.0000000000000000e+00 +1.0799997767980551e+01 -1.1135746345482275e-03 +0.0000000000000000e+00 +9.9999937997557420e-01
1.0899999999999977e+01 +9.0951749457900739e+00 +0.0000000000000000e+00 +1.0899997705402203e+01 -1.1238861611516222e-03 +0.0000000000000000e+00 +9.9999936843974868e-01
1.0999999999999977e+01 +9.0950620415970835e+00 +0.0000000000000000e+00 +1.0999997641664956e+01 -1.1341977008263585e-03 +0.0000000000000000e+00 +9.9999935679758056e-01
1.1099999999999977e+01 +9.0949481062494701e+00 +0.0000000000000000e+00 +1.1099997576758176e+01 -1.1445092536575472e-03 +0.0000000000000000e+00 +9.9999934504906940e-01
1.1199999999999976e+01 +9.0948331397459121e+00 +0.0000000000000000e+00 +1.1199997510671226e+01 -1.1548208197137240e-03 +0.0000000000000000e+00 +9.9999933319421463e-01
1.1299999999999976e+01 +9.0947171420850843e+00 +0.0000000000000000e+00 +1.1299997443393474e+01 -1.1651323990468688e-03 +0.0000000000000000e+00 +9.9999932123301571e-01
1.1399999999999975e+01 +9.0946001132656580e+00 +0.0000000000000000e+00 +1.1399997374914285e+01 -1.1754439916924259e-03 +0.0000000000000000e+00 +9.9999930916547231e-01
1.1499999999999975e+01 +9.0944820532863009e+00 +0.0000000000000000e+00 +1.1499997305223024e+01 -1.1857555976693235e-03 +0.0000000000000000e+00 +9.9999929699158396e-01
1.1599999999999975e+01 +9.0943629621456790e+00 +0.0000000000000000e+00 +1.1599997234309058e+01 -1.1960672169799944e-03 +0.0000000000000000e+00 +9.9999928471135024e-01
1.1699999999999974e+01 +9.0942428398424600e+00 +0.0000000000000000e+00 +1.1699997162161750e+01 -1.2063788496103982e-03 +0.0000000000000000e+00 +9.9999927232477070e-01
1.1799999999999974e+01 +9.0941216863753134e+00 +0.0000000000000000e+00 +1.1799997088770468e+01 -1.2166904955300418e-03 +0.0000000000000000e+00 +9.9999925983184501e-01
