# field on trajectory
# s[mm] rx[mm] ry[mm] rz[mm] bx[T] by[T] bz[T]
0.0000000000000000e+00 +9.0449999999999999e+00 +0.0000000000000000e+00 +0.0000000000000000e+00 +2.7997433778275760e-03 -5.1547789358668300e-02 -3.4261634891252459e-04
1.0000000000000001e-01 +9.0449994827045739e+00 +0.0000000000000000e+00 +9.9999999998216030e-02 +2.7997934170663828e-03 -5.1547706947238363e-02 -3.4261460094067860e-04
2.0000000000000001e-01 +9.0449979308194024e+00 +0.0000000000000000e+00 +1.9999999998572832e-01 +2.7998418699113083e-03 -5.1547623077894365e-02 -3.4261303108749257e-04
3.0000000000000004e-01 +9.0449953443461695e+00 +0.0000000000000000e+00 +2.9999999995183313e-01 +2.7998888342410833e-03 -5.1547537853847053e-02 -3.4261162482729384e-04
4.0000000000000002e-01 +9.0449917232865840e+00 +0.0000000000000000e+00 +3.9999999988582680e-01 +2.7999344079340438e-03 -5.1547451378312306e-02 -3.4261036763849606e-04
5.0000000000000000e-01 +9.0449870676423831e+00 +0.0000000000000000e+00 +4.9999999977700571e-01 +2.7999786888690103e-03 -5.1547363754510959e-02 -3.4260924500355272e-04
5.9999999999999998e-01 +9.0449813774153256e+00 +0.0000000000000000e+00 +5.9999999961466632e-01 +2.8000217749261833e-03 -5.1547275085668719e-02 -3.4260824240891125e-04
6.9999999999999996e-01 +9.0449746526071930e+00 +0.0000000000000000e+00 +6.9999999938810509e-01 +2.8000637639880423e-03 -5.1547185475016202e-02 -3.4260734534496918e-04
7.9999999999999993e-01 +9.0449668932197831e+00 +0.0000000000000000e+00 +7.9999999908661867e-01 +2.8001047539402248e-03 -5.1547095025788706e-02 -3.4260653930602689e-04
8.9999999999999991e-01 +9.0449580992549112e+00 +0.0000000000000000e+00 +8.9999999869950353e-01 +2.8001448426724250e-03 -5.1547003841226131e-02 -3.4260580979024338e-04
9.9999999999999989e-01 +9.0449482707144089e+00 +0.0000000000000000e+00 +9.9999999821605656e-01 +2.8001841280792875e-03 -5.1546912024572997e-02 -3.4260514229959025e-04
1.0999999999999999e+00 +9.0449374076001199e+00 +0.0000000000000000e+00 +1.0999999976255743e+00 +2.8002227080612934e-03 -5.1546819679078253e-02 -3.4260452233980643e-04
1.2000000000000000e+00 +9.0449255099138988e+00 +0.0000000000000000e+00 +1.1999999969173536e+00 +2.8002606805256551e-03 -5.1546726907995243e-02 -3.4260393542035275e-04
1.3000000000000000e+00 +9.0449125776576089e+00 +0.0000000000000000e+00 +1.2999999960806914e+00 +2.8002981433872080e-03 -5.1546633814581626e-02 -3.4260336705436599e-04
1.4000000000000001e+00 +9.0448986108331191e+00 +0.0000000000000000e+00 +1.3999999951048845e+00 +2.8003351945692988e-03 -5.1546540502099204e-02 -3.4260280275861410e-04
1.5000000000000002e+00 +9.0448836094423033e+00 +0.0000000000000000e+00 +1.4999999939792299e+00 +2.8003719320046820e-03 -5.1546447073813957e-02 -3.4260222805345027e-04
1.6000000000000003e+00 +9.0448675734870392e+00 +0.0000000000000000e+00 +1.5999999926930246e+00 +2.8004084536364048e-03 -5.1546353632995874e-02 -3.4260162846276750e-04
1.7000000000000004e+00 +9.0448505029692026e+00 +0.0000000000000000e+00 +1.6999999912355657e+00 +2.8004448574187046e-03 -5.1546260282918852e-02 -3.4260098951395301e-04
1.8000000000000005e+00 +9.0448323978906693e+00 +0.0000000000000000e+00 +1.7999999895961503e+00 +2.8004812413178972e-03 -5.1546167126860686e-02 -3.4260029673784304e-04
1.9000000000000006e+00 +9.0448132582533116e+00 +0.0000000000000000e+00 +1.8999999877640756e+00 +2.8005177033132676e-03 -5.1546074268102919e-02 -3.4259953566867697e-04
2.0000000000000004e+00 +9.0447930840589930e+00 +0.0000000000000000e+00 +1.9999999857286390e+00 +2.8005543413979653e-03 -5.1545981809930780e-02 -3.4259869184405194e-04
2.1000000000000005e+00 +9.0447718753095732e+00 +0.0000000000000000e+00 +2.0999999834791376e+00 +2.8005912197992941e-03 -5.1545889836524028e-02 -3.4259775337847873e-04
2.2000000000000006e+00 +9.0447496320068996e+00 +0.0000000000000000e+00 +2.1999999810048689e+00 +2.8006282676319174e-03 -5.1545798355628412e-02 -3.4259671868171480e-04
2.3000000000000007e+00 +9.0447263541528109e+00 +0.0000000000000000e+00 +2.2999999782951304e+00 +2.8006653802293536e-03 -5.1545707355879974e-02 -3.4259558873327709e-04
2.4000000000000008e+00 +9.0447020417491348e+00 +0.0000000000000000e+00 +2.3999999753392194e+00 +2.8007024529220787e-03 -5.1545616825913056e-02 -3.4259436450737989e-04
2.5000000000000009e+00 +9.0446766947976922e+00 +0.0000000000000000e+00 +2.4999999721264334e+00 +2.8007393810363735e-03 -5.1545526754359916e-02 -3.4259304697204147e-04
2.6000000000000010e+00 +9.0446503133002949e+00 +0.0000000000000000e+00 +2.5999999686460704e+00 +2.8007760598931677e-03 -5.1545437129849950e-02 -3.4259163708819107e-04
2.7000000000000011e+00 +9.0446228972587424e+00 +0.0000000000000000e+00 +2.6999999648874278e+00 +2.8008123848068801e-03 -5.1545347941009262e-02 -3.4259013580877485e-04
2.8000000000000012e+00 +9.0445944466748287e+00 +0.0000000000000000e+00 +2.7999999608398030e+00 +2.8008482510842691e-03 -5.1545259176459982e-02 -3.4258854407786355e-04
2.9000000000000012e+00 +9.0445649615503374e+00 +0.0000000000000000e+00 +2.8999999564924939e+00 +2.8008835540232761e-03 -5.1545170824819755e-02 -3.4258686282975841e-04
3.0000000000000013e+00 +9.0445344418870466e+00 +0.0000000000000000e+00 +2.9999999518347984e+00 +2.8009181889118700e-03 -5.1545082874701095e-02 -3.4258509298809836e-04
3.1000000000000014e+00 +9.0445028876867237e+00 +0.0000000000000000e+00 +3.0999999468560144e+00 +2.8009520510268904e-03 -5.1544995314710879e-02 -3.4258323546496646e-04
3.2000000000000015e+00 +9.0444702989511292e+00 +0.0000000000000000e+00 +3.1999999415454399e+00 +2.8009850356328940e-03 -5.1544908133449641e-02 -3.4258129115999710e-04
3.3000000000000016e+00 +9.0444366756820163e+00 +0.0000000000000000e+00 +3.2999999358923726e+00 +2.8010170379810032e-03 -5.1544821319511172e-02 -3.4257926095948186e-04
3.4000000000000017e+00 +9.0444020178811311e+00 +0.0000000000000000e+00 +3.3999999298861106e+00 +2.8010479533077453e-03 -5.1544734861481742e-02 -3.4257714573547718e-04
3.5000000000000018e+00 +9.0443663255502127e+00 +0.0000000000000000e+00 +3.4999999235159520e+00 +2.8010776768339018e-03 -5.1544648747939667e-02 -3.4257494634491097e-04
3.6000000000000019e+00 +9.0443295986909948e+00 +0.0000000000000000e+00 +3.5999999167711949e+00 +2.8011061037633545e-03 -5.1544562967454660e-02 -3.4257266362868876e-04
3.7000000000000020e+00 +9.0442918373052006e+00 +0.0000000000000000e+00 +3.6999999096411376e+00 +2.8011331292819275e-03 -5.1544477508587247e-02 -3.4257029841080127e-04
3.8000000000000020e+00 +9.0442530413945512e+00 +0.0000000000000000e+00 +3.7999999021150779e+00 +2.8011586485562367e-03 -5.1544392359888225e-02 -3.4256785149743051e-04
3.9000000000000021e+00 +9.0442132109607591e+00 +0.0000000000000000e+00 +3.8999998941823142e+00 +2.8011825567325322e-03 -5.1544307509897969e-02 -3.4256532367605717e-04
4.0000000000000018e+00 +9.0441723460055314e+00 +0.0000000000000000e+00 +3.9999998858321448e+00 +2.8012047489355484e-03 -5.1544222947146071e-02 -3.4256271571456718e-04
4.1000000000000014e+00 +9.0441304465305699e+00 +0.0000000000000000e+00 +4.0999998770538681e+00 +2.8012251480278223e-03 -5.1544138660950117e-02 -3.4256002693498327e-04
4.2000000000000011e+00 +9.0440875125375708e+00 +0.0000000000000000e+00 +4.1999998678367829e+00 +2.8012437878995261e-03 -5.1544054643817304e-02 -3.4255725094484998e-04
4.3000000000000007e+00 +9.0440435440282254e+00 +0.0000000000000000e+00 +4.2999998581701870e+00 +2.8012607302024986e-03 -5.1543970889051619e-02 -3.4255437992790024e-04
4.4000000000000004e+00 +9.0439985410042194e+00 +0.0000000000000000e+00 +4.3999998480433797e+00 +2.8012760365923031e-03 -5.1543887389954843e-02 -3.4255140607210077e-04
4.5000000000000000e+00 +9.0439525034672315e+00 +0.0000000000000000e+00 +4.4999998374456593e+00 +2.8012897687287241e-03 -5.1543804139826795e-02 -3.4254832157028031e-04
4.5999999999999996e+00 +9.0439054314189402e+00 +0.0000000000000000e+00 +4.5999998263663242e+00 +2.8013019882762755e-03 -5.1543721131965245e-02 -3.4254511862076066e-04
4.6999999999999993e+00 +9.0438573248610155e+00 +0.0000000000000000e+00 +4.6999998147946727e+00 +2.8013127569047011e-03 -5.1543638359666036e-02 -3.4254178942798460e-04
4.7999999999999989e+00 +9.0438081837951234e+00 +0.0000000000000000e+00 +4.7999998027200039e+00 +2.8013221362894812e-03 -5.1543555816223073e-02 -3.4253832620314726e-04
4.8999999999999986e+00 +9.0437580082229267e+00 +0.0000000000000000e+00 +4.8999997901316172e+00 +2.8013301881123359e-03 -5.1543473494928417e-02 -3.4253472116482471e-04
4.9999999999999982e+00 +9.0437067981460810e+00 +0.0000000000000000e+00 +4.9999997770188109e+00 +2.8013369740617256e-03 -5.1543391389072206e-02 -3.4253096653960466e-04
5.0999999999999979e+00 +9.0436545535662418e+00 +0.0000000000000000e+00 +5.0999997633708833e+00 +2.8013425558333607e-03 -5.1543309491942822e-02 -3.4252705456271575e-04
5.1999999999999975e+00 +9.0436012744850576e+00 +0.0000000000000000e+00 +5.1999997491771337e+00 +2.8013469951307006e-03 -5.1543227796826935e-02 -3.4252297747865823e-04
5.2999999999999972e+00 +9.0435469609041750e+00 +0.0000000000000000e+00 +5.2999997344268612e+00 +2.8013503536654591e-03 -5.1543146297009394e-02 -3.4251872754183352e-04
5.3999999999999968e+00 +9.0434916128252336e+00 +0.0000000000000000e+00 +5.3999997191093652e+00 +2.8013526931581047e-03 -5.1543064985773449e-02 -3.4251429701717489e-04
5.4999999999999964e+00 +9.0434352302498731e+00 +0.0000000000000000e+00 +5.4999997032139438e+00 +2.8013540753383738e-03 -5.1542983856400659e-02 -3.4250967818077750e-04
5.5999999999999961e+00 +9.0433778131797258e+00 +0.0000000000000000e+00 +5.5999996867298965e+00 +2.8013545619457614e-03 -5.1542902902170971e-02 -3.4250486332052898e-04
5.6999999999999957e+00 +9.0433193616164242e+00 +0.0000000000000000e+00 +5.6999996696465232e+00 +2.8013542147300344e-03 -5.1542822116362831e-02 -3.4249984473673967e-04
5.7999999999999954e+00 +9.0432598755615956e+00 +0.0000000000000000e+00 +5.7999996519531223e+00 +2.8013530954517315e-03 -5.1542741492253116e-02 -3.4249461474277382e-04
5.8999999999999950e+00 +9.0431993550168652e+00 +0.0000000000000000e+00 +5.8999996336389930e+00 +2.8013512658826628e-03 -5.1542661023117206e-02 -3.4248916566567933e-04
5.9999999999999947e+00 +9.0431377999838531e+00 +0.0000000000000000e+00 +5.9999996146934347e+00 +2.8013487878064255e-03 -5.1542580702229099e-02 -3.4248348984681972e-04
6.0999999999999943e+00 +9.0430752104641794e+00 +0.0000000000000000e+00 +6.0999995951057473e+00 +2.8013457101735998e-03 -5.1542500524577685e-02 -3.4247758632633248e-04
6.1999999999999940e+00 +9.0430115864594587e+00 +0.0000000000000000e+00 +6.1999995748652292e+00 +2.8013420305656512e-03 -5.1542420492011617e-02 -3.4247148089391145e-04
6.2999999999999936e+00 +9.0429469279713057e+00 +0.0000000000000000e+00 +6.2999995539611806e+00 +2.8013377337313071e-03 -5.1542340608082070e-02 -3.4246520603482675e-04
6.3999999999999932e+00 +9.0428812350013299e+00 +0.0000000000000000e+00 +6.3999995323829006e+00 +2.8013328044325905e-03 -5.1542260876324769e-02 -3.4245879424596806e-04
6.4999999999999929e+00 +9.0428145075511388e+00 +0.0000000000000000e+00 +6.4999995101196895e+00 +2.8013272274453097e-03 -5.1542181300259567e-02 -3.4245227803627378e-04
6.5999999999999925e+00 +9.0427467456223365e+00 +0.0000000000000000e+00 +6.5999994871608463e+00 +2.8013209875595367e-03 -5.1542101883389847e-02 -3.4244568992715672e-04
6.6999999999999922e+00 +9.0426779492165235e+00 +0.0000000000000000e+00 +6.6999994634956703e+00 +2.8013140695800978e-03 -5.1542022629202065e-02 -3.4243906245293247e-04
6.7999999999999918e+00 +9.0426081183352984e+00 +0.0000000000000000e+00 +6.7999994391134617e+00 +2.8013064583270481e-03 -5.1541943541165210e-02 -3.4243242816124614e-04
6.8999999999999915e+00 +9.0425372529802548e+00 +0.0000000000000000e+00 +6.8999994140035197e+00 +2.8012981386361631e-03 -5.1541864622730318e-02 -3.4242581961349913e-04
6.9999999999999911e+00 +9.0424653531529859e+00 +0.0000000000000000e+00 +6.9999993881551443e+00 +2.8012890953594250e-03 -5.1541785877330007e-02 -3.4241926938527684e-04
7.0999999999999908e+00 +9.0423924188550799e+00 +0.0000000000000000e+00 +7.0999993615576358e+00 +2.8012793133654996e-03 -5.1541707308377871e-02 -3.4241281006677353e-04
7.1999999999999904e+00 +9.0423184500881213e+00 +0.0000000000000000e+00 +7.1999993342002941e+00 +2.8012687775402223e-03 -5.1541628919268029e-02 -3.4240647426322024e-04
7.2999999999999901e+00 +9.0422434468536910e+00 +0.0000000000000000e+00 +7.2999993060724186e+00 +2.8012574727870861e-03 -5.1541550713374670e-02 -3.4240029459531047e-04
7.3999999999999897e+00 +9.0421674091533664e+00 +0.0000000000000000e+00 +7.3999992771633094e+00 +2.8012453840277228e-03 -5.1541472694051418e-02 -3.4239430369962587e-04
7.4999999999999893e+00 +9.0420903369887213e+00 +0.0000000000000000e+00 +7.4999992474622665e+00 +2.8012324962023872e-03 -5.1541394864630961e-02 -3.4238853422906247e-04
7.5999999999999890e+00 +9.0420122303613262e+00 +0.0000000000000000e+00 +7.5999992169585902e+00 +2.8012187942704379e-03 -5.1541317228424470e-02 -3.4238301885325579e-04
7.6999999999999886e+00 +9.0419330892727476e+00 +0.0000000000000000e+00 +7.6999991856415795e+00 +2.8012042632108288e-03 -5.1541239788721105e-02 -3.4237779025900677e-04
7.7999999999999883e+00 +9.0418529137245489e+00 +0.0000000000000000e+00 +7.7999991535005355e+00 +2.8011888880225843e-03 -5.1541162548787448e-02 -3.4237288115070635e-04
7.8999999999999879e+00 +9.0417717037182879e+00 +0.0000000000000000e+00 +7.8999991205247584e+00 +2.8011726537252894e-03 -5.1541085511867139e-02 -3.4236832425076069e-04
7.9999999999999876e+00 +9.0416894592555206e+00 +0.0000000000000000e+00 +7.9999990867035482e+00 +2.8011555453595679e-03 -5.1541008681180202e-02 -3.4236415230001565e-04
8.0999999999999872e+00 +9.0416061803377978e+00 +0.0000000000000000e+00 +8.0999990520262060e+00 +2.8011375596223628e-03 -5.1540932072083462e-02 -3.4236039290323934e-04
8.1999999999999869e+00 +9.0415218669666650e+00 +0.0000000000000000e+00 +8.1999990164820318e+00 +2.8011187397450395e-03 -5.1540855748581520e-02 -3.4235705304966015e-04
8.2999999999999865e+00 +9.0414365191436623e+00 +0.0000000000000000e+00 +8.2999989800603249e+00 +2.8010991405386775e-03 -5.1540779786893511e-02 -3.4235413455253487e-04
8.3999999999999861e+00 +9.0413501368703244e+00 +0.0000000000000000e+00 +8.3999989427503863e+00 +2.8010788167496755e-03 -5.1540704263300721e-02 -3.4235163919990954e-04
8.4999999999999858e+00 +9.0412627201481772e+00 +0.0000000000000000e+00 +8.4999989045415170e+00 +2.8010578230576494e-03 -5.1540629254148505e-02 -3.4234956875371116e-04
8.5999999999999854e+00 +9.0411742689787342e+00 +0.0000000000000000e+00 +8.5999988654230162e+00 +2.8010362140733465e-03 -5.1540554835848483e-02 -3.4234792494884143e-04
8.6999999999999851e+00 +9.0410847833634982e+00 +0.0000000000000000e+00 +8.6999988253841849e+00 +2.8010140443365389e-03 -5.1540481084880539e-02 -3.4234670949226799e-04
8.7999999999999847e+00 +9.0409942633039595e+00 +0.0000000000000000e+00 +8.7999987844143241e+00 +2.8009913683139345e-03 -5.1540408077794954e-02 -3.4234592406211771e-04
8.8999999999999844e+00 +9.0409027088015925e+00 +0.0000000000000000e+00 +8.8999987425027349e+00 +2.8009682403970781e-03 -5.1540335891214421e-02 -3.4234557030676847e-04
8.9999999999999840e+00 +9.0408101198578557e+00 +0.0000000000000000e+00 +8.9999986996387182e+00 +2.8009447149002584e-03 -5.1540264601836201e-02 -3.4234564984394155e-04
9.0999999999999837e+00 +9.0407164964741895e+00 +0.0000000000000000e+00 +9.0999986558115733e+00 +2.8009208460584062e-03 -5.1540194286434096e-02 -3.4234616425979434e-04
9.1999999999999833e+00 +9.0406218386520152e+00 +0.0000000000000000e+00 +9.1999986110106011e+00 +2.8008966880250022e-03 -5.1540125021860610e-02 -3.4234711510801216e-04
9.2999999999999829e+00 +9.0405261463927324e+00 +0.0000000000000000e+00 +9.2999985652251027e+00 +2.8008722948699811e-03 -5.1540056885048952e-02 -3.4234850390889987e-04
9.3999999999999826e+00 +9.0404294196977197e+00 +0.0000000000000000e+00 +9.3999985184443791e+00 +2.8008477205776314e-03 -5.1539989953015224e-02 -3.4235033214847474e-04
9.4999999999999822e+00 +9.0403316585683307e+00 +0.0000000000000000e+00 +9.4999984706577294e+00 +2.8008230190445004e-03 -5.1539924302860377e-02 -3.4235260127755827e-04
9.5999999999999819e+00 +9.0402328630058939e+00 +0.0000000000000000e+00 +9.5999984218544565e+00 +2.8007982440772980e-03 -5.1539860011772326e-02 -3.4235531271086775e-04
9.6999999999999815e+00 +9.0401330330117080e+00 +0.0000000000000000e+00 +9.6999983720238596e+00 +2.8007734493907979e-03 -5.1539797157028076e-02 -3.4235846782610817e-04
9.7999999999999812e+00 +9.0400321685870466e+00 +0.0000000000000000e+00 +9.7999983211552397e+00 +2.8007486886057428e-03 -5.1539735815995733e-02 -3.4236206796306435e-04
9.8999999999999808e+00 +9.0399302697331514e+00 +0.0000000000000000e+00 +9.8999982692378978e+00 +2.8007240152467432e-03 -5.1539676066136596e-02 -3.4236611442269228e-04
9.9999999999999805e+00 +9.0398273364512320e+00 +0.0000000000000000e+00 +9.9999982162611349e+00 +2.8006994827401849e-03 -5.1539617985007308e-02 -3.4237060846621116e-04
1.0099999999999980e+01 +9.0397233687424663e+00 +0.0000000000000000e+00 +1.0099998162214252e+01 +2.8006751324301683e-03 -5.1539561607068581e-02 -3.4237554024378489e-04
1.0199999999999980e+01 +9.0396183666079963e+00 +0.0000000000000000e+00 +1.0199998107086550e+01 +2.8006509576937177e-03 -5.1539506794043663e-02 -3.4238085560089307e-04
1.0299999999999979e+01 +9.0395123300489324e+00 +0.0000000000000000e+00 +1.0299998050867329e+01 +2.8006269400031088e-03 -5.1539453364406795e-02 -3.4238648932707216e-04
1.0399999999999979e+01 +9.0394052590663598e+00 +0.0000000000000000e+00 +1.0399997993545890e+01 +2.8006030609280699e-03 -5.1539401136565376e-02 -3.4239237623329529e-04
1.0499999999999979e+01 +9.0392971536613391e+00 +0.0000000000000000e+00 +1.0499997935111534e+01 +2.8005793021385491e-03 -5.1539349928858211e-02 -3.4239845115261543e-04
1.0599999999999978e+01 +9.0391880138349094e+00 +0.0000000000000000e+00 +1.0599997875553562e+01 +2.8005556454074884e-03 -5.1539299559553421e-02 -3.4240464894081025e-04
1.0699999999999978e+01 +9.0390778395880940e+00 +0.0000000000000000e+00 +1.0699997814861275e+01 +2.8005320726135897e-03 -5.1539249846846449e-02 -3.4241090447702580e-04
1.0799999999999978e+01 +9.0389666309219017e+00 +0.0000000000000000e+00 +1.0799997753023973e+01 +2.8005085657440863e-03 -5.1539200608858131e-02 -3.4241715266442149e-04
1.0899999999999977e+01 +9.0388543878373344e+00 +0.0000000000000000e+00 +1.0899997690030958e+01 +2.8004851068975122e-03 -5.1539151663632717e-02 -3.4242332843081560e-04
1.0999999999999977e+01 +9.0387411103353852e+00 +0.0000000000000000e+00 +1.0999997625871529e+01 +2.8004616782864766e-03 -5.1539102829135867e-02 -3.4242936672933142e-04
1.1099999999999977e+01 +9.0386267984170470e+00 +0.0000000000000000e+00 +1.1099997560534989e+01 +2.8004382622404283e-03 -5.1539053923252705e-02 -3.4243520253904303e-04
1.1199999999999976e+01 +9.0385114520833145e+00 +0.0000000000000000e+00 +1.1199997494010638e+01 +2.8004148412084321e-03 -5.1539004763785867e-02 -3.4244077086562248e-04
1.1299999999999976e+01 +9.0383950713351879e+00 +0.0000000000000000e+00 +1.1299997426287778e+01 +2.8003913977619381e-03 -5.1538955168453415e-02 -3.4244600674198722e-04
1.1399999999999975e+01 +9.0382776561736744e+00 +0.0000000000000000e+00 +1.1399997357355707e+01 +2.8003679145975555e-03 -5.1538904954887006e-02 -3.4245084522894809e-04
1.1499999999999975e+01 +9.0381592065997935e+00 +0.0000000000000000e+00 +1.1499997287203728e+01 +2.8003443745398251e-03 -5.1538853940629854e-02 -3.4245522141585719e-04
1.1599999999999975e+01 +9.0380397226145828e+00 +0.0000000000000000e+00 +1.1599997215821142e+01 +2.8003207605439900e-03 -5.1538801943134739e-02 -3.4245907042125767e-04
1.1699999999999974e+01 +9.0379192042190990e+00 +0.0000000000000000e+00 +1.1699997143197251e+01 +2.8002970556987700e-03 -5.1538748779762063e-02 -3.4246232739353213e-04
1.1799999999999974e+01 +9.0377976514144240e+00 +0.0000000000000000e+00 +1.1799997069321357e+01 +2.8002732432291359e-03 -5.1538694267777879e-02 -3.4246492751155411e-04
