# field on trajectory
# s[mm] rx[mm] ry[mm] rz[mm] bx[T] by[T] bz[T]
0.0000000000000000e+00 +9.0449999999999999e+00 +0.0000000000000000e+00 +0.0000000000000000e+00 +1.1508855185780683e-02 -1.0342345411811016e+00 -5.8970444737223293e-02
1.0000000000000001e-01 +9.0449994832405380e+00 +0.0000000000000000e+00 +9.9999999998219735e-02 +1.1508766559360395e-02 -1.0342340837576689e+00 -5.8970018500314331e-02
2.0000000000000001e-01 +9.0449979329624473e+00 +0.0000000000000000e+00 +1.9999999998575785e-01 +1.1508671076125944e-02 -1.0342337035302880e+00 -5.8969592230916433e-02
3.0000000000000004e-01 +9.0449953491661059e+00 +0.0000000000000000e+00 +2.9999999995193277e-01 +1.1508567792096854e-02 -1.0342334064548224e+00 -5.8969166603151879e-02
4.0000000000000002e-01 +9.0449917318518107e+00 +0.0000000000000000e+00 +3.9999999988606288e-01 +1.1508455763320378e-02 -1.0342331984862536e+00 -5.8968742291096332e-02
5.0000000000000000e-01 +9.0449870810197694e+00 +0.0000000000000000e+00 +4.9999999977746667e-01 +1.1508334045876308e-02 -1.0342330855786293e+00 -5.8968319968780311e-02
5.9999999999999998e-01 +9.0449813966700940e+00 +0.0000000000000000e+00 +5.9999999961546246e-01 +1.1508202047781297e-02 -1.0342330728185520e+00 -5.8967900302314871e-02
6.9999999999999996e-01 +9.0449746788027987e+00 +0.0000000000000000e+00 +6.9999999938936863e-01 +1.1508060584681904e-02 -1.0342331618257012e+00 -5.8967483926275911e-02
7.9999999999999993e-01 +9.0449669274177964e+00 +0.0000000000000000e+00 +7.9999999908850372e-01 +1.1507910824137471e-02 -1.0342333533520365e+00 -5.8967071467354311e-02
8.9999999999999991e-01 +9.0449581425148953e+00 +0.0000000000000000e+00 +8.9999999870218605e-01 +1.1507753933711585e-02 -1.0342336481481371e+00 -5.8966663552246182e-02
9.9999999999999989e-01 +9.0449483240938005e+00 +0.0000000000000000e+00 +9.9999999821973407e-01 +1.1507591080964956e-02 -1.0342340469630853e+00 -5.8966260807665288e-02
1.0999999999999999e+00 +9.0449374721541158e+00 +0.0000000000000000e+00 +1.0999999976304660e+00 +1.1507423433448379e-02 -1.0342345505443604e+00 -5.8965863860355683e-02
1.2000000000000000e+00 +9.0449255866953386e+00 +0.0000000000000000e+00 +1.1999999969237003e+00 +1.1507252158695620e-02 -1.0342351596377197e+00 -5.8965473337104307e-02
1.3000000000000000e+00 +9.0449126677168614e+00 +0.0000000000000000e+00 +1.2999999960887552e+00 +1.1507078424216373e-02 -1.0342358749870926e+00 -5.8965089864753545e-02
1.4000000000000001e+00 +9.0448987152179718e+00 +0.0000000000000000e+00 +1.3999999951149489e+00 +1.1506903397489126e-02 -1.0342366973344639e+00 -5.8964714070213746e-02
1.5000000000000002e+00 +9.0448837291978492e+00 +0.0000000000000000e+00 +1.4999999939915998e+00 +1.1506728245954150e-02 -1.0342376274197642e+00 -5.8964346580475904e-02
1.6000000000000003e+00 +9.0448677096555645e+00 +0.0000000000000000e+00 +1.5999999927080260e+00 +1.1506554137006363e-02 -1.0342386659807572e+00 -5.8963988022624168e-02
1.7000000000000004e+00 +9.0448506565900821e+00 +0.0000000000000000e+00 +1.6999999912535457e+00 +1.1506382237988277e-02 -1.0342398137529272e+00 -5.8963639023848470e-02
1.8000000000000005e+00 +9.0448325700002563e+00 +0.0000000000000000e+00 +1.7999999896174770e+00 +1.1506213716182908e-02 -1.0342410714693666e+00 -5.8963300211457001e-02
1.9000000000000006e+00 +9.0448134498848329e+00 +0.0000000000000000e+00 +1.8999999877891378e+00 +1.1506049738806709e-02 -1.0342424398606653e+00 -5.8962972212888952e-02
2.0000000000000004e+00 +9.0447932962424460e+00 +0.0000000000000000e+00 +1.9999999857578463e+00 +1.1505891473002459e-02 -1.0342439196547957e+00 -5.8962655655726899e-02
2.1000000000000005e+00 +9.0447721090716193e+00 +0.0000000000000000e+00 +2.0999999835129204e+00 +1.1505740085832220e-02 -1.0342455115770044e+00 -5.8962351167709530e-02
2.2000000000000006e+00 +9.0447498883707631e+00 +0.0000000000000000e+00 +2.1999999810436774e+00 +1.1505596744270234e-02 -1.0342472163496972e+00 -5.8962059376744209e-02
2.3000000000000007e+00 +9.0447266341381773e+00 +0.0000000000000000e+00 +2.2999999783394358e+00 +1.1505462615195838e-02 -1.0342490346923274e+00 -5.8961780910919429e-02
2.4000000000000008e+00 +9.0447023463720466e+00 +0.0000000000000000e+00 +2.3999999753895129e+00 +1.1505338865386386e-02 -1.0342509673212836e+00 -5.8961516398517586e-02
2.5000000000000009e+00 +9.0446770250704436e+00 +0.0000000000000000e+00 +2.4999999721832262e+00 +1.1505226661510168e-02 -1.0342530149497788e+00 -5.8961266468027379e-02
2.6000000000000010e+00 +9.0446506702313236e+00 +0.0000000000000000e+00 +2.5999999687098936e+00 +1.1505126768288224e-02 -1.0342551768447539e+00 -5.8961031543201370e-02
2.7000000000000011e+00 +9.0446232818525303e+00 +0.0000000000000000e+00 +2.6999999649588320e+00 +1.1505038343045509e-02 -1.0342574464994339e+00 -5.8960811228139204e-02
2.8000000000000012e+00 +9.0445948599317969e+00 +0.0000000000000000e+00 +2.7999999609193589e+00 +1.1504960141297146e-02 -1.0342598159652094e+00 -5.8960604922046973e-02
2.9000000000000012e+00 +9.0445654044667627e+00 +0.0000000000000000e+00 +2.8999999565807917e+00 +1.1504890918600600e-02 -1.0342622772953591e+00 -5.8960412024172452e-02
3.0000000000000013e+00 +9.0445349154549692e+00 +0.0000000000000000e+00 +2.9999999519324474e+00 +1.1504829430563560e-02 -1.0342648225453883e+00 -5.8960231933799678e-02
3.1000000000000014e+00 +9.0445033928938781e+00 +0.0000000000000000e+00 +3.0999999469636430e+00 +1.1504774432851837e-02 -1.0342674437733799e+00 -5.8960064050243698e-02
3.2000000000000015e+00 +9.0444708367808744e+00 +0.0000000000000000e+00 +3.1999999416636955e+00 +1.1504724681197273e-02 -1.0342701330403388e+00 -5.8959907772845099e-02
3.3000000000000016e+00 +9.0444372471132741e+00 +0.0000000000000000e+00 +3.2999999360219214e+00 +1.1504678931405601e-02 -1.0342728824105447e+00 -5.8959762500964845e-02
3.4000000000000017e+00 +9.0444026238883328e+00 +0.0000000000000000e+00 +3.3999999300276378e+00 +1.1504635939364393e-02 -1.0342756839518914e+00 -5.8959627633978724e-02
3.5000000000000018e+00 +9.0443669671032563e+00 +0.0000000000000000e+00 +3.4999999236701607e+00 +1.1504594461050914e-02 -1.0342785297362380e+00 -5.8959502571272172e-02
3.6000000000000019e+00 +9.0443302767552058e+00 +0.0000000000000000e+00 +3.5999999169388071e+00 +1.1504553252540049e-02 -1.0342814118397554e+00 -5.8959386712234829e-02
3.7000000000000020e+00 +9.0442925528413056e+00 +0.0000000000000000e+00 +3.6999999098228935e+00 +1.1504511070012165e-02 -1.0342843223432727e+00 -5.8959279456255259e-02
3.8000000000000020e+00 +9.0442537953586513e+00 +0.0000000000000000e+00 +3.7999999023117357e+00 +1.1504466669761054e-02 -1.0342872533326242e+00 -5.8959180202715504e-02
3.9000000000000021e+00 +9.0442140043043207e+00 +0.0000000000000000e+00 +3.8999998943946501e+00 +1.1504418808201794e-02 -1.0342901968989962e+00 -5.8959088350985907e-02
4.0000000000000018e+00 +9.0441731796753739e+00 +0.0000000000000000e+00 +3.9999998860609529e+00 +1.1504366241878674e-02 -1.0342931451392738e+00 -5.8959003300419581e-02
4.1000000000000014e+00 +9.0441313214688730e+00 +0.0000000000000000e+00 +4.0999998772999602e+00 +1.1504307727473075e-02 -1.0342960901563891e+00 -5.8958924450347172e-02
4.2000000000000011e+00 +9.0440884296818780e+00 +0.0000000000000000e+00 +4.1999998681009876e+00 +1.1504242021811372e-02 -1.0342990240596663e+00 -5.8958851200071494e-02
4.3000000000000007e+00 +9.0440445043114632e+00 +0.0000000000000000e+00 +4.2999998584533508e+00 +1.1504167881872852e-02 -1.0343019389651713e+00 -5.8958782948862198e-02
4.4000000000000004e+00 +9.0439995453547208e+00 +0.0000000000000000e+00 +4.3999998483463658e+00 +1.1504084064797592e-02 -1.0343048269960551e+00 -5.8958719095950345e-02
4.5000000000000000e+00 +9.0439535528087696e+00 +0.0000000000000000e+00 +4.4999998377693489e+00 +1.1503989327894376e-02 -1.0343076802829034e+00 -5.8958659040523165e-02
4.5999999999999996e+00 +9.0439065266707637e+00 +0.0000000000000000e+00 +4.5999998267116151e+00 +1.1503882805561907e-02 -1.0343104922820487e+00 -5.8958602229160058e-02
4.6999999999999993e+00 +9.0438584669379001e+00 +0.0000000000000000e+00 +4.6999998151624798e+00 +1.1503765139971197e-02 -1.0343132617273991e+00 -5.8958548298139027e-02
4.7999999999999989e+00 +9.0438093736074148e+00 +0.0000000000000000e+00 +4.7999998031112581e+00 +1.1503637350197046e-02 -1.0343159886724347e+00 -5.8958496931081517e-02
4.8999999999999986e+00 +9.0437592466765881e+00 +0.0000000000000000e+00 +4.8999997905472661e+00 +1.1503500455279630e-02 -1.0343186731715941e+00 -5.8958447811499927e-02
4.9999999999999982e+00 +9.0437080861427432e+00 +0.0000000000000000e+00 +4.9999997774598191e+00 +1.1503355474220614e-02 -1.0343213152802284e+00 -5.8958400622789800e-02
5.0999999999999979e+00 +9.0436558920032439e+00 +0.0000000000000000e+00 +5.0999997638382322e+00 +1.1503203425979314e-02 -1.0343239150545549e+00 -5.8958355048222534e-02
5.1999999999999975e+00 +9.0436026642555003e+00 +0.0000000000000000e+00 +5.1999997496718207e+00 +1.1503045329468871e-02 -1.0343264725516106e+00 -5.8958310770937654e-02
5.2999999999999972e+00 +9.0435484028969597e+00 +0.0000000000000000e+00 +5.2999997349498988e+00 +1.1502882203552367e-02 -1.0343289878292050e+00 -5.8958267473935434e-02
5.3999999999999968e+00 +9.0434931079251157e+00 +0.0000000000000000e+00 +5.3999997196617828e+00 +1.1502715067039003e-02 -1.0343314609458774e+00 -5.8958224840069164e-02
5.4999999999999964e+00 +9.0434367793375028e+00 +0.0000000000000000e+00 +5.4999997037967878e+00 +1.1502544938680253e-02 -1.0343338919608451e+00 -5.8958182552037802e-02
5.5999999999999961e+00 +9.0433794171316979e+00 +0.0000000000000000e+00 +5.5999996873442281e+00 +1.1502372837165998e-02 -1.0343362809339642e+00 -5.8958140292378343e-02
5.6999999999999957e+00 +9.0433210213053190e+00 +0.0000000000000000e+00 +5.6999996702934190e+00 +1.1502199781120690e-02 -1.0343386279256761e+00 -5.8958097743458233e-02
5.7999999999999954e+00 +9.0432615918560284e+00 +0.0000000000000000e+00 +5.7999996526336748e+00 +1.1502026789099501e-02 -1.0343409329969662e+00 -5.8958054587467973e-02
5.8999999999999950e+00 +9.0432011287815275e+00 +0.0000000000000000e+00 +5.8999996343543106e+00 +1.1501854879584480e-02 -1.0343431962093155e+00 -5.8958010506413416e-02
5.9999999999999947e+00 +9.0431396320795621e+00 +0.0000000000000000e+00 +5.9999996154446418e+00 +1.1501685070980707e-02 -1.0343454176246560e+00 -5.8957965182108371e-02
6.0999999999999943e+00 +9.0430771017479170e+00 +0.0000000000000000e+00 +6.0999995958939826e+00 +1.1501518381612428e-02 -1.0343475973053236e+00 -5.8957918296166957e-02
6.1999999999999940e+00 +9.0430135377844234e+00 +0.0000000000000000e+00 +6.1999995756916482e+00 +1.1501355829719229e-02 -1.0343497353140092e+00 -5.8957869529996106e-02
6.2999999999999936e+00 +9.0429489401869496e+00 +0.0000000000000000e+00 +6.2999995548269530e+00 +1.1501198433452185e-02 -1.0343518317137188e+00 -5.8957818564788107e-02
6.3999999999999932e+00 +9.0428833089534084e+00 +0.0000000000000000e+00 +6.3999995332892112e+00 +1.1501047210869992e-02 -1.0343538865677204e+00 -5.8957765081512896e-02
6.4999999999999929e+00 +9.0428166440817535e+00 +0.0000000000000000e+00 +6.4999995110677382e+00 +1.1500903179935150e-02 -1.0343558999395033e+00 -5.8957708760910631e-02
6.5999999999999925e+00 +9.0427489455699792e+00 +0.0000000000000000e+00 +6.5999994881518482e+00 +1.1500767085927262e-02 -1.0343578730086262e+00 -5.8957649376946530e-02
6.6999999999999922e+00 +9.0426802134161210e+00 +0.0000000000000000e+00 +6.6999994645308556e+00 +1.1500638583705289e-02 -1.0343598114177486e+00 -5.8957587077283519e-02
6.7999999999999918e+00 +9.0426104476182481e+00 +0.0000000000000000e+00 +6.7999994401940747e+00 +1.1500517055515275e-02 -1.0343617219236021e+00 -5.8957522103043093e-02
6.8999999999999915e+00 +9.0425396481744595e+00 +0.0000000000000000e+00 +6.8999994151308197e+00 +1.1500401883588243e-02 -1.0343636112807655e+00 -5.8957454695364168e-02
6.9999999999999911e+00 +9.0424678150828726e+00 +0.0000000000000000e+00 +6.9999993893304060e+00 +1.1500292450139792e-02 -1.0343654862415421e+00 -5.8957385095405296e-02
7.0999999999999908e+00 +9.0423949483416219e+00 +0.0000000000000000e+00 +7.0999993627821478e+00 +1.1500188137369690e-02 -1.0343673535558335e+00 -5.8957313544347190e-02
7.1999999999999904e+00 +9.0423210479488478e+00 +0.0000000000000000e+00 +7.1999993354753586e+00 +1.1500088327461491e-02 -1.0343692199710155e+00 -5.8957240283394996e-02
7.2999999999999901e+00 +9.0422461139026939e+00 +0.0000000000000000e+00 +7.2999993073993528e+00 +1.1499992402582121e-02 -1.0343710922318154e+00 -5.8957165553780701e-02
7.3999999999999897e+00 +9.0421701462012951e+00 +0.0000000000000000e+00 +7.3999992785434454e+00 +1.1499899744881458e-02 -1.0343729770801839e+00 -5.8957089596765405e-02
7.4999999999999893e+00 +9.0420931448427755e+00 +0.0000000000000000e+00 +7.4999992488969500e+00 +1.1499809736491973e-02 -1.0343748812551741e+00 -5.8957012653641908e-02
7.5999999999999890e+00 +9.0420151098252415e+00 +0.0000000000000000e+00 +7.5999992184491800e+00 +1.1499721759528278e-02 -1.0343768114928145e+00 -5.8956934965736806e-02
7.6999999999999886e+00 +9.0419360411467711e+00 +0.0000000000000000e+00 +7.6999991871894506e+00 +1.1499635196086768e-02 -1.0343787745259878e+00 -5.8956856774413070e-02
7.7999999999999883e+00 +9.0418559388054103e+00 +0.0000000000000000e+00 +7.7999991551070753e+00 +1.1499549428245168e-02 -1.0343807770843014e+00 -5.8956778321072316e-02
7.8999999999999879e+00 +9.0417748027991660e+00 +0.0000000000000000e+00 +7.8999991221913675e+00 +1.1499463838062187e-02 -1.0343828258939685e+00 -5.8956699847157221e-02
7.9999999999999876e+00 +9.0416926331259990e+00 +0.0000000000000000e+00 +7.9999990884316405e+00 +1.1499377807577066e-02 -1.0343849276776795e+00 -5.8956621594153880e-02
8.0999999999999872e+00 +9.0416094297838168e+00 +0.0000000000000000e+00 +8.0999990538172089e+00 +1.1499290718809186e-02 -1.0343870891544784e+00 -5.8956543803594080e-02
8.1999999999999869e+00 +9.0415251927704681e+00 +0.0000000000000000e+00 +8.1999990183373850e+00 +1.1499201953757697e-02 -1.0343893170396394e+00 -5.8956466717057877e-02
8.2999999999999865e+00 +9.0414399220837343e+00 +0.0000000000000000e+00 +8.2999989819814832e+00 +1.1499110894401053e-02 -1.0343916180445412e+00 -5.8956390576175771e-02
8.3999999999999861e+00 +9.0413536177213256e+00 +0.0000000000000000e+00 +8.3999989447388170e+00 +1.1499016922696658e-02 -1.0343939988765420e+00 -5.8956315622631178e-02
8.4999999999999858e+00 +9.0412662796808707e+00 +0.0000000000000000e+00 +8.4999989065986981e+00 +1.1498919420580442e-02 -1.0343964662388572e+00 -5.8956242098162748e-02
8.5999999999999854e+00 +9.0411779079599146e+00 +0.0000000000000000e+00 +8.5999988675504397e+00 +1.1498817952647348e-02 -1.0343990239997487e+00 -5.8956170361772087e-02
8.6999999999999851e+00 +9.0410885025559100e+00 +0.0000000000000000e+00 +8.6999988275833555e+00 +1.1498712814235340e-02 -1.0344016647009429e+00 -5.8956101241303807e-02
8.7999999999999847e+00 +9.0409980634662279e+00 +0.0000000000000000e+00 +8.7999987866867571e+00 +1.1498604483401842e-02 -1.0344043780514660e+00 -5.8956035681728289e-02
8.8999999999999844e+00 +9.0409065906881683e+00 +0.0000000000000000e+00 +8.8999987448499578e+00 +1.1498493438236316e-02 -1.0344071537587058e+00 -5.8955974627913271e-02
8.9999999999999840e+00 +9.0408140842189670e+00 +0.0000000000000000e+00 +8.9999987020622694e+00 +1.1498380156861386e-02 -1.0344099815283758e+00 -5.8955919024621474e-02
9.0999999999999837e+00 +9.0407205440558105e+00 +0.0000000000000000e+00 +9.0999986583130035e+00 +1.1498265117433959e-02 -1.0344128510644699e+00 -5.8955869816508383e-02
9.1999999999999833e+00 +9.0406259701958405e+00 +0.0000000000000000e+00 +9.1999986135914735e+00 +1.1498148798146359e-02 -1.0344157520692243e+00 -5.8955827948119884e-02
9.2999999999999829e+00 +9.0405303626361704e+00 +0.0000000000000000e+00 +9.2999985678869912e+00 +1.1498031677227427e-02 -1.0344186742430765e+00 -5.8955794363889959e-02
9.3999999999999826e+00 +9.0404337213738906e+00 +0.0000000000000000e+00 +9.3999985211888664e+00 +1.1497914232943654e-02 -1.0344216072846242e+00 -5.8955770008138356e-02
9.4999999999999822e+00 +9.0403360464060807e+00 +0.0000000000000000e+00 +9.4999984734864125e+00 +1.1497796943600308e-02 -1.0344245408905843e+00 -5.8955755825068325e-02
9.5999999999999819e+00 +9.0402373377298204e+00 +0.0000000000000000e+00 +9.5999984247689412e+00 +1.1497680287542542e-02 -1.0344274647557539e+00 -5.8955752758764302e-02
9.6999999999999815e+00 +9.0401375953422001e+00 +0.0000000000000000e+00 +9.6999983750257641e+00 +1.1497564743156512e-02 -1.0344303685729672e+00 -5.8955761753189534e-02
9.7999999999999812e+00 +9.0400368192403295e+00 +0.0000000000000000e+00 +9.7999983242461930e+00 +1.1497450788870515e-02 -1.0344332420330582e+00 -5.8955783752183806e-02
9.8999999999999808e+00 +9.0399350094213489e+00 +0.0000000000000000e+00 +9.8999982724195377e+00 +1.1497338903156080e-02 -1.0344360748248163e+00 -5.8955819699461100e-02
9.9999999999999805e+00 +9.0398321658824372e+00 +0.0000000000000000e+00 +9.9999982195351116e+00 +1.1497229564529112e-02 -1.0344388566349496e+00 -5.8955870538607319e-02
1.0099999999999980e+01 +9.0397282886208288e+00 +0.0000000000000000e+00 +1.0099998165582225e+01 +1.1497123251550997e-02 -1.0344415771480413e+00 -5.8955937213077902e-02
1.0199999999999980e+01 +9.0396233776338164e+00 +0.0000000000000000e+00 +1.0199998110550188e+01 +1.1497020442829700e-02 -1.0344442260465103e+00 -5.8956020666195548e-02
1.0299999999999979e+01 +9.0395174329187640e+00 +0.0000000000000000e+00 +1.0299998054428315e+01 +1.1496921617020928e-02 -1.0344467930105732e+00 -5.8956121841147908e-02
1.0399999999999979e+01 +9.0394104544731189e+00 +0.0000000000000000e+00 +1.0399997997205913e+01 +1.1496827252829200e-02 -1.0344492677181985e+00 -5.8956241680985143e-02
1.0499999999999979e+01 +9.0393024422944208e+00 +0.0000000000000000e+00 +1.0499997938872298e+01 +1.1496737829008985e-02 -1.0344516398450712e+00 -5.8956381128617744e-02
1.0599999999999978e+01 +9.0391933963803126e+00 +0.0000000000000000e+00 +1.0599997879416778e+01 +1.1496653678516879e-02 -1.0344539009281515e+00 -5.8956540863547492e-02
1.0699999999999978e+01 +9.0390833167285454e+00 +0.0000000000000000e+00 +1.0699997818828665e+01 +1.1496574550904479e-02 -1.0344560499583948e+00 -5.8956720511921773e-02
1.0799999999999978e+01 +9.0389722033369821e+00 +0.0000000000000000e+00 +1.0799997757097271e+01 +1.1496500049839169e-02 -1.0344580877923377e+00 -5.8956919436223811e-02
1.0899999999999977e+01 +9.0388600562035997e+00 +0.0000000000000000e+00 +1.0899997694211908e+01 +1.1496429778964158e-02 -1.0344600152887002e+00 -5.8957136998544567e-02
1.0999999999999977e+01 +9.0387468753264848e+00 +0.0000000000000000e+00 +1.0999997630161888e+01 +1.1496363341897849e-02 -1.0344618333084497e+00 -5.8957372560575004e-02
1.1099999999999977e+01 +9.0386326607038310e+00 +0.0000000000000000e+00 +1.1099997564936521e+01 +1.1496300342233173e-02 -1.0344635427148643e+00 -5.8957625483598147e-02
1.1199999999999976e+01 +9.0385174123339418e+00 +0.0000000000000000e+00 +1.1199997498525120e+01 +1.1496240383536967e-02 -1.0344651443736006e+00 -5.8957895128481465e-02
1.1299999999999976e+01 +9.0384011302152309e+00 +0.0000000000000000e+00 +1.1299997430916996e+01 +1.1496183069349316e-02 -1.0344666391527564e+00 -5.8958180855668819e-02
1.1399999999999975e+01 +9.0382838143462152e+00 +0.0000000000000000e+00 +1.1399997362101461e+01 +1.1496128003182898e-02 -1.0344680279229361e+00 -5.8958482025172815e-02
1.1499999999999975e+01 +9.0381654647255196e+00 +0.0000000000000000e+00 +1.1499997292067828e+01 +1.1496074788522366e-02 -1.0344693115573160e+00 -5.8958797996566920e-02
1.1599999999999975e+01 +9.0380460813518742e+00 +0.0000000000000000e+00 +1.1599997220805408e+01 +1.1496023028823674e-02 -1.0344704909317075e+00 -5.8959128128977620e-02
1.1699999999999974e+01 +9.0379256642241135e+00 +0.0000000000000000e+00 +1.1699997148303513e+01 +1.1495972327513477e-02 -1.0344715669246249e+00 -5.8959471781076744e-02
1.1799999999999974e+01 +9.0378042133411753e+00 +0.0000000000000000e+00 +1.1799997074551456e+01 +1.1495922287988427e-02 -1.0344725404173480e+00 -5.8959828311073423e-02
