# trajectory
# s[mm] rx[mm] ry[mm] rz[mm] px[rad] py[rad] pz[rad]
0.0000000000000000e+00 +9.0449999999999999e+00 +0.0000000000000000e+00 +0.0000000000000000e+00 +0.0000000000000000e+00 +0.0000000000000000e+00 +1.0000000000000000e+00
1.0000000000000001e-01 +9.0449994832405380e+00 +0.0000000000000000e+00 +9.9999999998219735e-02 -1.0335188460639969e-05 +0.0000000000000000e+00 +9.9999999994659194e-01
2.0000000000000001e-01 +9.0449979329624473e+00 +0.0000000000000000e+00 +1.9999999998575785e-01 -2.0670372729859107e-05 +0.0000000000000000e+00 +9.9999999978636789e-01
3.0000000000000004e-01 +9.0449953491661059e+00 +0.0000000000000000e+00 +2.9999999995193277e-01 -3.1005553607739375e-05 +0.0000000000000000e+00 +9.9999999951932783e-01
4.0000000000000002e-01 +9.0449917318518107e+00 +0.0000000000000000e+00 +3.9999999988606288e-01 -4.1340731953875806e-05 +0.0000000000000000e+00 +9.9999999914547200e-01
5.0000000000000000e-01 +9.0449870810197694e+00 +0.0000000000000000e+00 +4.9999999977746667e-01 -5.1675908687367433e-05 +0.0000000000000000e+00 +9.9999999866480027e-01
5.9999999999999998e-01 +9.0449813966700940e+00 +0.0000000000000000e+00 +5.9999999961546246e-01 -6.2011084784643038e-05 +0.0000000000000000e+00 +9.9999999807731277e-01
6.9999999999999996e-01 +9.0449746788027987e+00 +0.0000000000000000e+00 +6.9999999938936863e-01 -7.2346261255639750e-05 +0.0000000000000000e+00 +9.9999999738300938e-01
7.9999999999999993e-01 +9.0449669274177964e+00 +0.0000000000000000e+00 +7.9999999908850372e-01 -8.2681439119980182e-05 +0.0000000000000000e+00 +9.9999999658188998e-01
8.9999999999999991e-01 +9.0449581425148953e+00 +0.0000000000000000e+00 +8.9999999870218605e-01 -9.3016619404794510e-05 +0.0000000000000000e+00 +9.9999999567395448e-01
9.9999999999999989e-01 +9.0449483240938005e+00 +0.0000000000000000e+00 +9.9999999821973407e-01 -1.0335180314470613e-04 +0.0000000000000000e+00 +9.9999999465920264e-01
1.0999999999999999e+00 +9.0449374721541158e+00 +0.0000000000000000e+00 +1.0999999976304660e+00 -1.1368699138181615e-04 +0.0000000000000000e+00 +9.9999999353763425e-01
1.2000000000000000e+00 +9.0449255866953386e+00 +0.0000000000000000e+00 +1.1999999969237003e+00 -1.2402218516568679e-04 +0.0000000000000000e+00 +9.9999999230924908e-01
1.3000000000000000e+00 +9.0449126677168614e+00 +0.0000000000000000e+00 +1.2999999960887552e+00 -1.3435738555332363e-04 +0.0000000000000000e+00 +9.9999999097404679e-01
1.4000000000000001e+00 +9.0448987152179718e+00 +0.0000000000000000e+00 +1.3999999951149489e+00 -1.4469259360915676e-04 +0.0000000000000000e+00 +9.9999998953202696e-01
1.5000000000000002e+00 +9.0448837291978492e+00 +0.0000000000000000e+00 +1.4999999939915998e+00 -1.5502781040502081e-04 +0.0000000000000000e+00 +9.9999998798318923e-01
1.6000000000000003e+00 +9.0448677096555645e+00 +0.0000000000000000e+00 +1.5999999927080260e+00 -1.6536303702013386e-04 +0.0000000000000000e+00 +9.9999998632753317e-01
1.7000000000000004e+00 +9.0448506565900821e+00 +0.0000000000000000e+00 +1.6999999912535457e+00 -1.7569827454107521e-04 +0.0000000000000000e+00 +9.9999998456505834e-01
1.8000000000000005e+00 +9.0448325700002563e+00 +0.0000000000000000e+00 +1.7999999896174770e+00 -1.8603352406176203e-04 +0.0000000000000000e+00 +9.9999998269576407e-01
1.9000000000000006e+00 +9.0448134498848329e+00 +0.0000000000000000e+00 +1.8999999877891378e+00 -1.9636878668342493e-04 +0.0000000000000000e+00 +9.9999998071964991e-01
2.0000000000000004e+00 +9.0447932962424460e+00 +0.0000000000000000e+00 +1.9999999857578463e+00 -2.0670406351458237e-04 +0.0000000000000000e+00 +9.9999997863671508e-01
2.1000000000000005e+00 +9.0447721090716193e+00 +0.0000000000000000e+00 +2.0999999835129204e+00 -2.1703935567101392e-04 +0.0000000000000000e+00 +9.9999997644695904e-01
2.2000000000000006e+00 +9.0447498883707631e+00 +0.0000000000000000e+00 +2.1999999810436774e+00 -2.2737466427573251e-04 +0.0000000000000000e+00 +9.9999997415038100e-01
2.3000000000000007e+00 +9.0447266341381773e+00 +0.0000000000000000e+00 +2.2999999783394358e+00 -2.3770999045895542e-04 +0.0000000000000000e+00 +9.9999997174698008e-01
2.4000000000000008e+00 +9.0447023463720466e+00 +0.0000000000000000e+00 +2.3999999753895129e+00 -2.4804533535807428e-04 +0.0000000000000000e+00 +9.9999996923675560e-01
2.5000000000000009e+00 +9.0446770250704436e+00 +0.0000000000000000e+00 +2.4999999721832262e+00 -2.5838070011762387e-04 +0.0000000000000000e+00 +9.9999996661970658e-01
2.6000000000000010e+00 +9.0446506702313236e+00 +0.0000000000000000e+00 +2.5999999687098936e+00 -2.6871608588564469e-04 +0.0000000000000000e+00 +9.9999996389583212e-01
2.7000000000000011e+00 +9.0446232818525303e+00 +0.0000000000000000e+00 +2.6999999649588320e+00 -2.7905149377400031e-04 +0.0000000000000000e+00 +9.9999996106513134e-01
2.8000000000000012e+00 +9.0445948599317969e+00 +0.0000000000000000e+00 +2.7999999609193589e+00 -2.8938692481872110e-04 +0.0000000000000000e+00 +9.9999995812760323e-01
2.9000000000000012e+00 +9.0445654044667627e+00 +0.0000000000000000e+00 +2.8999999565807917e+00 -2.9972237997641545e-04 +0.0000000000000000e+00 +9.9999995508324668e-01
3.0000000000000013e+00 +9.0445349154549692e+00 +0.0000000000000000e+00 +2.9999999519324474e+00 -3.1005786012429024e-04 +0.0000000000000000e+00 +9.9999995193206070e-01
3.1000000000000014e+00 +9.0445033928938781e+00 +0.0000000000000000e+00 +3.0999999469636430e+00 -3.2039336606017499e-04 +0.0000000000000000e+00 +9.9999994867404429e-01
3.2000000000000015e+00 +9.0444708367808744e+00 +0.0000000000000000e+00 +3.1999999416636955e+00 -3.3072889850254929e-04 +0.0000000000000000e+00 +9.9999994530919645e-01
3.3000000000000016e+00 +9.0444372471132741e+00 +0.0000000000000000e+00 +3.2999999360219214e+00 -3.4106445809057375e-04 +0.0000000000000000e+00 +9.9999994183751617e-01
3.4000000000000017e+00 +9.0444026238883328e+00 +0.0000000000000000e+00 +3.3999999300276378e+00 -3.5140004538412439e-04 +0.0000000000000000e+00 +9.9999993825900224e-01
3.5000000000000018e+00 +9.0443669671032563e+00 +0.0000000000000000e+00 +3.4999999236701607e+00 -3.6173566086383058e-04 +0.0000000000000000e+00 +9.9999993457365377e-01
3.6000000000000019e+00 +9.0443302767552058e+00 +0.0000000000000000e+00 +3.5999999169388071e+00 -3.7207130493111635e-04 +0.0000000000000000e+00 +9.9999993078146976e-01
3.7000000000000020e+00 +9.0442925528413056e+00 +0.0000000000000000e+00 +3.6999999098228935e+00 -3.8240697790824517e-04 +0.0000000000000000e+00 +9.9999992688244910e-01
3.8000000000000020e+00 +9.0442537953586513e+00 +0.0000000000000000e+00 +3.7999999023117357e+00 -3.9274268003836835e-04 +0.0000000000000000e+00 +9.9999992287659079e-01
3.9000000000000021e+00 +9.0442140043043207e+00 +0.0000000000000000e+00 +3.8999998943946501e+00 -4.0307841148557670e-04 +0.0000000000000000e+00 +9.9999991876389394e-01
4.0000000000000018e+00 +9.0441731796753739e+00 +0.0000000000000000e+00 +3.9999998860609529e+00 -4.1341417233495579e-04 +0.0000000000000000e+00 +9.9999991454435755e-01
4.1000000000000014e+00 +9.0441313214688730e+00 +0.0000000000000000e+00 +4.0999998772999602e+00 -4.2374996259264460e-04 +0.0000000000000000e+00 +9.9999991021798074e-01
4.2000000000000011e+00 +9.0440884296818780e+00 +0.0000000000000000e+00 +4.1999998681009876e+00 -4.3408578218589772e-04 +0.0000000000000000e+00 +9.9999990578476261e-01
4.3000000000000007e+00 +9.0440445043114632e+00 +0.0000000000000000e+00 +4.2999998584533508e+00 -4.4442163096315100e-04 +0.0000000000000000e+00 +9.9999990124470228e-01
4.4000000000000004e+00 +9.0439995453547208e+00 +0.0000000000000000e+00 +4.3999998483463658e+00 -4.5475750869409046e-04 +0.0000000000000000e+00 +9.9999989659779898e-01
4.5000000000000000e+00 +9.0439535528087696e+00 +0.0000000000000000e+00 +4.4999998377693489e+00 -4.6509341506972509e-04 +0.0000000000000000e+00 +9.9999989184405191e-01
4.5999999999999996e+00 +9.0439065266707637e+00 +0.0000000000000000e+00 +4.5999998267116151e+00 -4.7542934970575554e-04 +0.0000000000000000e+00 +9.9999988698346043e-01
4.6999999999999993e+00 +9.0438584669379001e+00 +0.0000000000000000e+00 +4.6999998151624798e+00 -4.8576531217886461e-04 +0.0000000000000000e+00 +9.9999988201602386e-01
4.7999999999999989e+00 +9.0438093736074148e+00 +0.0000000000000000e+00 +4.7999998031112581e+00 -4.9610130206297054e-04 +0.0000000000000000e+00 +9.9999987694174153e-01
4.8999999999999986e+00 +9.0437592466765881e+00 +0.0000000000000000e+00 +4.8999997905472661e+00 -5.0643731893253077e-04 +0.0000000000000000e+00 +9.9999987176061278e-01
4.9999999999999982e+00 +9.0437080861427432e+00 +0.0000000000000000e+00 +4.9999997774598191e+00 -5.1677336236255153e-04 +0.0000000000000000e+00 +9.9999986647263706e-01
5.0999999999999979e+00 +9.0436558920032439e+00 +0.0000000000000000e+00 +5.0999997638382322e+00 -5.2710943192859629e-04 +0.0000000000000000e+00 +9.9999986107781369e-01
5.1999999999999975e+00 +9.0436026642555003e+00 +0.0000000000000000e+00 +5.1999997496718207e+00 -5.3744552720679461e-04 +0.0000000000000000e+00 +9.9999985557614213e-01
5.2999999999999972e+00 +9.0435484028969597e+00 +0.0000000000000000e+00 +5.2999997349498988e+00 -5.4778164777384976e-04 +0.0000000000000000e+00 +9.9999984996762181e-01
5.3999999999999968e+00 +9.0434931079251157e+00 +0.0000000000000000e+00 +5.3999997196617828e+00 -5.5811779320704660e-04 +0.0000000000000000e+00 +9.9999984425225219e-01
5.4999999999999964e+00 +9.0434367793375028e+00 +0.0000000000000000e+00 +5.4999997037967878e+00 -5.6845396308425819e-04 +0.0000000000000000e+00 +9.9999983843003271e-01
5.5999999999999961e+00 +9.0433794171316979e+00 +0.0000000000000000e+00 +5.5999996873442281e+00 -5.7879015698395267e-04 +0.0000000000000000e+00 +9.9999983250096292e-01
5.6999999999999957e+00 +9.0433210213053190e+00 +0.0000000000000000e+00 +5.6999996702934190e+00 -5.8912637448519929e-04 +0.0000000000000000e+00 +9.9999982646504226e-01
5.7999999999999954e+00 +9.0432615918560284e+00 +0.0000000000000000e+00 +5.7999996526336748e+00 -5.9946261516767400e-04 +0.0000000000000000e+00 +9.9999982032227019e-01
5.8999999999999950e+00 +9.0432011287815275e+00 +0.0000000000000000e+00 +5.8999996343543106e+00 -6.0979887861166481e-04 +0.0000000000000000e+00 +9.9999981407264638e-01
5.9999999999999947e+00 +9.0431396320795621e+00 +0.0000000000000000e+00 +5.9999996154446418e+00 -6.2013516439807627e-04 +0.0000000000000000e+00 +9.9999980771617025e-01
6.0999999999999943e+00 +9.0430771017479170e+00 +0.0000000000000000e+00 +6.0999995958939826e+00 -6.3047147210843390e-04 +0.0000000000000000e+00 +9.9999980125284149e-01
6.1999999999999940e+00 +9.0430135377844234e+00 +0.0000000000000000e+00 +6.1999995756916482e+00 -6.4080780132488803e-04 +0.0000000000000000e+00 +9.9999979468265965e-01
6.2999999999999936e+00 +9.0429489401869496e+00 +0.0000000000000000e+00 +6.2999995548269530e+00 -6.5114415163021694e-04 +0.0000000000000000e+00 +9.9999978800562428e-01
6.3999999999999932e+00 +9.0428833089534084e+00 +0.0000000000000000e+00 +6.3999995332892112e+00 -6.6148052260782994e-04 +0.0000000000000000e+00 +9.9999978122173505e-01
6.4999999999999929e+00 +9.0428166440817535e+00 +0.0000000000000000e+00 +6.4999995110677382e+00 -6.7181691384176983e-04 +0.0000000000000000e+00 +9.9999977433099152e-01
6.5999999999999925e+00 +9.0427489455699792e+00 +0.0000000000000000e+00 +6.5999994881518482e+00 -6.8215332491950245e-04 +0.0000000000000000e+00 +9.9999976733339346e-01
6.6999999999999922e+00 +9.0426802134161210e+00 +0.0000000000000000e+00 +6.6999994645308556e+00 -6.9248975546258248e-04 +0.0000000000000000e+00 +9.9999976022894044e-01
6.7999999999999918e+00 +9.0426104476182481e+00 +0.0000000000000000e+00 +6.7999994401940747e+00 -7.0282620515730698e-04 +0.0000000000000000e+00 +9.9999975301763211e-01
6.8999999999999915e+00 +9.0425396481744595e+00 +0.0000000000000000e+00 +6.8999994151308197e+00 -7.1316267375748290e-04 +0.0000000000000000e+00 +9.9999974569946803e-01
6.9999999999999911e+00 +9.0424678150828726e+00 +0.0000000000000000e+00 +6.9999993893304060e+00 -7.2349916108440499e-04 +0.0000000000000000e+00 +9.9999973827444766e-01
7.0999999999999908e+00 +9.0423949483416219e+00 +0.0000000000000000e+00 +7.0999993627821478e+00 -7.3383566702683249e-04 +0.0000000000000000e+00 +9.9999973074257065e-01
7.1999999999999904e+00 +9.0423210479488478e+00 +0.0000000000000000e+00 +7.1999993354753586e+00 -7.4417219154096427e-04 +0.0000000000000000e+00 +9.9999972310383634e-01
7.2999999999999901e+00 +9.0422461139026939e+00 +0.0000000000000000e+00 +7.2999993073993528e+00 -7.5450873465041318e-04 +0.0000000000000000e+00 +9.9999971535824417e-01
7.3999999999999897e+00 +9.0421701462012951e+00 +0.0000000000000000e+00 +7.3999992785434454e+00 -7.6484529644617891e-04 +0.0000000000000000e+00 +9.9999970750579348e-01
7.4999999999999893e+00 +9.0420931448427755e+00 +0.0000000000000000e+00 +7.4999992488969500e+00 -7.7518187708661970e-04 +0.0000000000000000e+00 +9.9999969954648360e-01
7.5999999999999890e+00 +9.0420151098252415e+00 +0.0000000000000000e+00 +7.5999992184491800e+00 -7.8551847679742242e-04 +0.0000000000000000e+00 +9.9999969148031376e-01
7.6999999999999886e+00 +9.0419360411467711e+00 +0.0000000000000000e+00 +7.6999991871894506e+00 -7.9585509587157212e-04 +0.0000000000000000e+00 +9.9999968330728306e-01
7.7999999999999883e+00 +9.0418559388054103e+00 +0.0000000000000000e+00 +7.7999991551070753e+00 -8.0619173466931978e-04 +0.0000000000000000e+00 +9.9999967502739073e-01
7.8999999999999879e+00 +9.0417748027991660e+00 +0.0000000000000000e+00 +7.8999991221913675e+00 -8.1652839361814910e-04 +0.0000000000000000e+00 +9.9999966664063566e-01
7.9999999999999876e+00 +9.0416926331259990e+00 +0.0000000000000000e+00 +7.9999990884316405e+00 -8.2686507321274162e-04 +0.0000000000000000e+00 +9.9999965814701697e-01
8.0999999999999872e+00 +9.0416094297838168e+00 +0.0000000000000000e+00 +8.0999990538172089e+00 -8.3720177401494121e-04 +0.0000000000000000e+00 +9.9999964954653342e-01
8.1999999999999869e+00 +9.0415251927704681e+00 +0.0000000000000000e+00 +8.1999990183373850e+00 -8.4753849665371696e-04 +0.0000000000000000e+00 +9.9999964083918391e-01
8.2999999999999865e+00 +9.0414399220837343e+00 +0.0000000000000000e+00 +8.2999989819814832e+00 -8.5787524182512473e-04 +0.0000000000000000e+00 +9.9999963202496711e-01
8.3999999999999861e+00 +9.0413536177213256e+00 +0.0000000000000000e+00 +8.3999989447388170e+00 -8.6821201029226784e-04 +0.0000000000000000e+00 +9.9999962310388169e-01
8.4999999999999858e+00 +9.0412662796808707e+00 +0.0000000000000000e+00 +8.4999989065986981e+00 -8.7854880288525594e-04 +0.0000000000000000e+00 +9.9999961407592608e-01
8.5999999999999854e+00 +9.0411779079599146e+00 +0.0000000000000000e+00 +8.5999988675504397e+00 -8.8888562049409150e-04 +0.0000000000000000e+00 +9.9999960494109885e-01
8.6999999999999851e+00 +9.0410885025559100e+00 +0.0000000000000000e+00 +8.6999988275833555e+00 -8.9922246399083792e-04 +0.0000000000000000e+00 +9.9999959569939845e-01
8.7999999999999847e+00 +9.0409980634662279e+00 +0.0000000000000000e+00 +8.7999987866867571e+00 -9.0955933415180106e-04 +0.0000000000000000e+00 +9.9999958635082331e-01
8.8999999999999844e+00 +9.0409065906881683e+00 +0.0000000000000000e+00 +8.8999987448499578e+00 -9.1989623165044006e-04 +0.0000000000000000e+00 +9.9999957689537200e-01
8.9999999999999840e+00 +9.0408140842189670e+00 +0.0000000000000000e+00 +8.9999987020622694e+00 -9.3023315705735067e-04 +0.0000000000000000e+00 +9.9999956733304318e-01
9.0999999999999837e+00 +9.0407205440558105e+00 +0.0000000000000000e+00 +9.0999986583130035e+00 -9.4057011084024860e-04 +0.0000000000000000e+00 +9.9999955766383553e-01
9.1999999999999833e+00 +9.0406259701958405e+00 +0.0000000000000000e+00 +9.1999986135914735e+00 -9.5090709336395185e-04 +0.0000000000000000e+00 +9.9999954788774770e-01
9.2999999999999829e+00 +9.0405303626361704e+00 +0.0000000000000000e+00 +9.2999985678869912e+00 -9.6124410489036320e-04 +0.0000000000000000e+00 +9.9999953800477870e-01
9.3999999999999826e+00 +9.0404337213738906e+00 +0.0000000000000000e+00 +9.3999985211888664e+00 -9.7158114557845186e-04 +0.0000000000000000e+00 +9.9999952801492742e-01
9.4999999999999822e+00 +9.0403360464060807e+00 +0.0000000000000000e+00 +9.4999984734864125e+00 -9.8191821548423487e-04 +0.0000000000000000e+00 +9.9999951791819286e-01
9.5999999999999819e+00 +9.0402373377298204e+00 +0.0000000000000000e+00 +9.5999984247689412e+00 -9.9225531456075835e-04 +0.0000000000000000e+00 +9.9999950771457424e-01
9.6999999999999815e+00 +9.0401375953422001e+00 +0.0000000000000000e+00 +9.6999983750257641e+00 -1.0025924426580778e-03 +0.0000000000000000e+00 +9.9999949740407068e-01
9.7999999999999812e+00 +9.0400368192403295e+00 +0.0000000000000000e+00 +9.7999983242461930e+00 -1.0129295995232386e-03 +0.0000000000000000e+00 +9.9999948698668162e-01
9.8999999999999808e+00 +9.0399350094213489e+00 +0.0000000000000000e+00 +9.8999982724195377e+00 -1.0232667848002555e-03 +0.0000000000000000e+00 +9.9999947646240650e-01
9.9999999999999805e+00 +9.0398321658824372e+00 +0.0000000000000000e+00 +9.9999982195351116e+00 -1.0336039980300921e-03 +0.0000000000000000e+00 +9.9999946583124499e-01
1.0099999999999980e+01 +9.0397282886208288e+00 +0.0000000000000000e+00 +1.0099998165582225e+01 -1.0439412386506401e-03 +0.0000000000000000e+00 +9.9999945509319665e-01
1.0199999999999980e+01 +9.0396233776338164e+00 +0.0000000000000000e+00 +1.0199998110550188e+01 -1.0542785059966977e-03 +0.0000000000000000e+00 +9.9999944424826148e-01
1.0299999999999979e+01 +9.0395174329187640e+00 +0.0000000000000000e+00 +1.0299998054428315e+01 -1.0646157992999475e-03 +0.0000000000000000e+00 +9.9999943329643937e-01
1.0399999999999979e+01 +9.0394104544731189e+00 +0.0000000000000000e+00 +1.0399997997205913e+01 -1.0749531176889348e-03 +0.0000000000000000e+00 +9.9999942223773053e-01
1.0499999999999979e+01 +9.0393024422944208e+00 +0.0000000000000000e+00 +1.0499997938872298e+01 -1.0852904601890445e-03 +0.0000000000000000e+00 +9.9999941107213519e-01
1.0599999999999978e+01 +9.0391933963803126e+00 +0.0000000000000000e+00 +1.0599997879416778e+01 -1.0956278257271339e-03 +0.0000000000000000e+00 +9.9999939979965369e-01
1.0699999999999978e+01 +9.0390833167285454e+00 +0.0000000000000000e+00 +1.0699997818828665e+01 -1.1059652131827297e-03 +0.0000000000000000e+00 +9.9999938842028668e-01
1.0799999999999978e+01 +9.0389722033369821e+00 +0.0000000000000000e+00 +1.0799997757097271e+01 -1.1163026214392521e-03 +0.0000000000000000e+00 +9.9999937693403462e-01
1.0899999999999977e+01 +9.0388600562035997e+00 +0.0000000000000000e+00 +1.0899997694211908e+01 -1.1266400493886912e-03 +0.0000000000000000e+00 +9.9999936534089817e-01
1.0999999999999977e+01 +9.0387468753264848e+00 +0.0000000000000000e+00 +1.0999997630161888e+01 -1.1369774959316299e-03 +0.0000000000000000e+00 +9.9999935364087800e-01
1.1099999999999977e+01 +9.0386326607038310e+00 +0.0000000000000000e+00 +1.1099997564936521e+01 -1.1473149599772663e-03 +0.0000000000000000e+00 +9.9999934183397476e-01
1.1199999999999976e+01 +9.0385174123339418e+00 +0.0000000000000000e+00 +1.1199997498525120e+01 -1.1576524404434368e-03 +0.0000000000000000e+00 +9.9999932992018914e-01
1.1299999999999976e+01 +9.0384011302152309e+00 +0.0000000000000000e+00 +1.1299997430916996e+01 -1.1679899362566411e-03 +0.0000000000000000e+00 +9.9999931789952190e-01
1.1399999999999975e+01 +9.0382838143462152e+00 +0.0000000000000000e+00 +1.1399997362101461e+01 -1.1783274463520663e-03 +0.0000000000000000e+00 +9.9999930577197371e-01
1.1499999999999975e+01 +9.0381654647255196e+00 +0.0000000000000000e+00 +1.1499997292067828e+01 -1.1886649696736119e-03 +0.0000000000000000e+00 +9.9999929353754546e-01
1.1599999999999975e+01 +9.0380460813518742e+00 +0.0000000000000000e+00 +1.1599997220805408e+01 -1.1990025051739166e-03 +0.0000000000000000e+00 +9.9999928119623804e-01
1.1699999999999974e+01 +9.0379256642241135e+00 +0.0000000000000000e+00 +1.1699997148303513e+01 -1.2093400518143848e-03 +0.0000000000000000e+00 +9.9999926874805223e-01
1.1799999999999974e+01 +9.0378042133411753e+00 +0.0000000000000000e+00 +1.1799997074551456e+01 -1.2196776085652132e-03 +0.0000000000000000e+00 +9.9999925619298902e-01
