# multipoles
# s[mm] polynom_b[n=0][T/m^n] polynom_b[n=1][T/m^n] polynom_b[n=2][T/m^n] polynom_b[n=3][T/m^n] polynom_b[n=4][T/m^n] polynom_b[n=5][T/m^n] polynom_b[n=6][T/m^n] 
+0.0000000000000000e+00 -1.0313841946488276e+00 +2.2814395033511370e+00 +2.1509183959586828e+01 +1.8012508106920822e+02 -3.2947784767094563e+04 -4.4438670307713264e+05 +2.0457259851184410e+08 
-1.0000000000000001e-01 -1.0313875843986013e+00 +2.2815408837643911e+00 +2.1647792833494758e+01 +1.7816337577006860e+02 -3.4724286375490949e+04 -4.3176646737600246e+05 +2.1052111719034001e+08 
-2.0000000000000001e-01 -1.0313910128992347e+00 +2.2816425381073451e+00 +2.1785588789436208e+01 +1.7615897039655542e+02 -3.6469553320916195e+04 -4.1885629898664460e+05 +2.1626845641380316e+08 
-3.0000000000000004e-01 -1.0313944707431475e+00 +2.2817437189601031e+00 +2.1921969964888163e+01 +1.7412115428376859e+02 -3.8174354789252524e+04 -4.0569603014564200e+05 +2.2177639830336547e+08 
-4.0000000000000002e-01 -1.0313979485228704e+00 +2.2818436788961725e+00 +2.2056334515653347e+01 +1.7205921685146120e+02 -3.9829460375747789e+04 -3.9232549270566751e+05 +2.2700672720093867e+08 
-5.0000000000000000e-01 -1.0314014368309163e+00 +2.2819416704945823e+00 +2.2188080600984581e+01 +1.6998244724227550e+02 -4.1425639807806372e+04 -3.7878451593548420e+05 +2.3192122836764672e+08 
-5.9999999999999998e-01 -1.0314049262598712e+00 +2.2820369463476631e+00 +2.2316606397088059e+01 +1.6790013409531363e+02 -4.2953663222907795e+04 -3.6511292515801173e+05 +2.3648168937582377e+08 
-6.9999999999999996e-01 -1.0314084074023646e+00 +2.2821287590734562e+00 +2.2441310092640467e+01 +1.6582156517359314e+02 -4.4404301073620736e+04 -3.5135053948092583e+05 +2.4064989963267618e+08 
-7.9999999999999993e-01 -1.0314118708510596e+00 +2.2822163613269604e+00 +2.2561589888912870e+01 +1.6375602703220761e+02 -4.5768324142287616e+04 -3.3753716981535708e+05 +2.4438765049162653e+08 
-8.9999999999999991e-01 -1.0314153071986147e+00 +2.2822990058133743e+00 +2.2676843996218288e+01 +1.6171280462178777e+02 -4.7036503480248401e+04 -3.2371261646232230e+05 +2.4765673498725903e+08 
-9.9999999999999989e-01 -1.0314187070377732e+00 +2.2823759452983152e+00 +2.2786470645361323e+01 +1.5970118099556461e+02 -4.8199610632143682e+04 -3.0991666737693280e+05 +2.5041894892788887e+08 
-1.0999999999999999e+00 -1.0314220609612452e+00 +2.2824464326177356e+00 +2.2889868074165026e+01 +1.5773043699751798e+02 -4.9248417384807632e+04 -2.9618909622511308e+05 +2.5263608972049499e+08 
-1.2000000000000000e+00 -1.0314253595618104e+00 +2.2825097206905247e+00 +2.2986434541248155e+01 +1.5580985090442468e+02 -5.0173696039118309e+04 -2.8256966027771682e+05 +2.5426995769663456e+08 
-1.3000000000000000e+00 -1.0314285934321934e+00 +2.2825650625323202e+00 +2.3075568310379332e+01 +1.5394869800819640e+02 -5.0966219111590748e+04 -2.6909809787047777e+05 +2.5528235469877699e+08 
-1.4000000000000001e+00 -1.0314317531651864e+00 +2.2826117112597766e+00 +2.3156667667854755e+01 +1.5215625048910940e+02 -5.1616759678257848e+04 -2.5581412760865589e+05 +2.5563508575537056e+08 
-1.5000000000000002e+00 -1.0314348293535391e+00 +2.2826489201098394e+00 +2.3229130909048724e+01 +1.5044177684281709e+02 -5.2116091124491883e+04 -2.4275744493857588e+05 +2.5528995791740990e+08 
-1.6000000000000003e+00 -1.0314378153255805e+00 +2.2826762749223151e+00 +2.3292530870579288e+01 +1.4880927031035165e+02 -5.2457941914894320e+04 -2.2994148702143307e+05 +2.5422215074821448e+08 
-1.7000000000000004e+00 -1.0314407153508711e+00 +2.2826946770285823e+00 +2.3347132220970824e+01 +1.4724238335618242e+02 -5.2647760421338542e+04 -2.1727918841414197e+05 +2.5245983454367435e+08 
-1.8000000000000005e+00 -1.0314435364345562e+00 +2.2827053531777324e+00 +2.3393371108236735e+01 +1.4571986770868946e+02 -5.2693902626328258e+04 -2.0465944639159946e+05 +2.5004431718753979e+08 
-1.9000000000000006e+00 -1.0314462855818785e+00 +2.2827095301615916e+00 +2.3431683694305452e+01 +1.4422047384635576e+02 -5.2604724787525040e+04 -1.9197115096894905e+05 +2.4701690788147560e+08 
-2.0000000000000004e+00 -1.0314489697981697e+00 +2.2827084348162656e+00 +2.3462506150789093e+01 +1.4272295096334531e+02 -5.2388583333858813e+04 -1.7910318488017697e+05 +2.4341891656898984e+08 
-2.1000000000000005e+00 -1.0314515960887969e+00 +2.2827032940163519e+00 +2.3486274653208550e+01 +1.4120604716478519e+02 -5.2053834754639378e+04 -1.6594442492858536e+05 +2.3929165338403061e+08 
-2.2000000000000006e+00 -1.0314541714592906e+00 +2.2826953346664443e+00 +2.3503425393635830e+01 +1.3964850971994724e+02 -5.1608835815840626e+04 -1.5238374359399159e+05 +2.3467642959307495e+08 
-2.3000000000000007e+00 -1.0314567029152257e+00 +2.2826857837097525e+00 +2.3514394566390671e+01 +1.3802908484114272e+02 -5.1061943285615336e+04 -1.3831000796357781e+05 +2.2961455626164550e+08 
-2.4000000000000008e+00 -1.0314591974623128e+00 +2.2826758681135124e+00 +2.3519618376680011e+01 +1.3632651811678139e+02 -5.0421514073787992e+04 -1.2361208240101286e+05 +2.2414734482826623e+08 
-2.5000000000000009e+00 -1.0314616621063892e+00 +2.2826668148675693e+00 +2.3519533039239811e+01 +1.3451955458205703e+02 -4.9695905205536452e+04 -1.0817882917382609e+05 +2.1831610696039551e+08 
-2.6000000000000010e+00 -1.0314641038533641e+00 +2.2826598509897784e+00 +2.3514574770144634e+01 +1.3258693855926944e+02 -4.8893473646676939e+04 -9.1899107637365785e+04 +2.1216215364660165e+08 
-2.7000000000000011e+00 -1.0314665297093468e+00 +2.2826562035103852e+00 +2.3505179800552085e+01 +1.3050741415908280e+02 -4.8022576548021832e+04 -7.4661777417681849e+04 +2.0572679629501081e+08 
-2.8000000000000012e+00 -1.0314689466805120e+00 +2.2826570994796294e+00 +2.3491784359748099e+01 +1.2825972504659680e+02 -4.7091570917179648e+04 -5.6355697145501435e+04 +1.9905134513284177e+08 
-2.9000000000000012e+00 -1.0314713617732099e+00 +2.2826637659567424e+00 +2.3474824687366819e+01 +1.2582261480549238e+02 -4.6108813834821318e+04 -3.6869726813830042e+04 +1.9217711017110568e+08 
-3.0000000000000013e+00 -1.0314737819939432e+00 +2.2826774300068937e+00 +2.3454737028908657e+01 +1.2317482702410570e+02 -4.5082662358411180e+04 -1.6092728411853581e+04 +1.8514540069854251e+08 
-3.1000000000000014e+00 -1.0314762143493639e+00 +2.2826993187053048e+00 +2.3431957634069935e+01 +1.2029510521432057e+02 -4.4021473471124627e+04 +6.0864343125412552e+03 +1.7799752495967406e+08 
-3.2000000000000015e+00 -1.0314786658462818e+00 +2.2827306591254422e+00 +2.3406922757268063e+01 +1.1716219315003462e+02 -4.2933604090336717e+04 +2.9778893770996274e+04 +1.7077479017512098e+08 
-3.3000000000000016e+00 -1.0314811434916793e+00 +2.2827726783392177e+00 +2.3380068657592115e+01 +1.1375483489123084e+02 -4.1827411044227563e+04 +5.5095778194056038e+04 +1.6351850234530774e+08 
-3.4000000000000017e+00 -1.0314836542926995e+00 +2.2828266034156437e+00 +2.3351831595349147e+01 +1.1005177485135076e+02 -4.0711250991677087e+04 +8.2148211005093253e+04 +1.5626996580997378e+08 
-3.5000000000000018e+00 -1.0314862052567040e+00 +2.2828936614073903e+00 +2.3322647839478314e+01 +1.0603175825138568e+02 -3.9593480549859443e+04 +1.1104730792634239e+05 +1.4907048379341522e+08 
-3.6000000000000019e+00 -1.0314888015882728e+00 +2.2829747229777180e+00 +2.3292871856887164e+01 +1.0168089001648980e+02 -3.8480833632860900e+04 +1.4186653626200784e+05 +1.4195309596608192e+08 
-3.7000000000000020e+00 -1.0314914413773504e+00 +2.2830692459235924e+00 +2.3262560016378615e+01 +9.7012604416635710e+01 -3.7374139298713715e+04 +1.7454341342611003e+05 +1.3492071982807830e+08 
-3.8000000000000020e+00 -1.0314941209598751e+00 +2.2831763362628474e+00 +2.3231701480575683e+01 +9.2046685102616266e+01 -3.6272892763018310e+04 +2.0898484511217408e+05 +1.2796944371230668e+08 
-3.9000000000000021e+00 -1.0314968366718174e+00 +2.2832951000243189e+00 +2.3200285422942798e+01 +8.6802915393730316e+01 -3.5176589542455804e+04 +2.4509773888593132e+05 +1.2109535769082250e+08 
-4.0000000000000018e+00 -1.0314995848490724e+00 +2.2834246432574710e+00 +2.3168301013991510e+01 +8.1301078059209217e+01 -3.4084725197519540e+04 +2.8278900553149148e+05 +1.1429455235713384e+08 
-4.1000000000000014e+00 -1.0315023618275718e+00 +2.2835640720230370e+00 +2.3135737437366071e+01 +7.5560955575572734e+01 -3.2996795663140925e+04 +3.2196555764180789e+05 +1.0756312047708859e+08 
-4.2000000000000011e+00 -1.0315051639431487e+00 +2.2837124923965035e+00 +2.3102583872028642e+01 +6.9602330041260615e+01 -3.1912296903727074e+04 +3.6253431012051052e+05 +1.0089715533849575e+08 
-4.3000000000000007e+00 -1.0315079875316364e+00 +2.2838690104717898e+00 +2.3068829506382105e+01 +6.3444983048555450e+01 -3.0830725199564484e+04 +4.0440218101670645e+05 +9.4292752169978693e+07 
-4.4000000000000004e+00 -1.0315108289288228e+00 +2.2840327323388867e+00 +2.3034463532812154e+01 +5.7108696359073519e+01 -2.9751577050615331e+04 +4.4747608757332090e+05 +8.7746007713983506e+07 
-4.5000000000000000e+00 -1.0315136844704067e+00 +2.2842027641208169e+00 +2.2999475142838797e+01 +5.0613250799345742e+01 -2.8674349088681527e+04 +4.9166295278056170e+05 +8.1253019826119527e+07 
-4.5999999999999996e+00 -1.0315165504920278e+00 +2.2843782119315774e+00 +2.2963853531649480e+01 +4.3978427508451858e+01 -2.7598538181088737e+04 +5.3686969808342063e+05 +7.4809888030151933e+07 
-4.6999999999999993e+00 -1.0315194233292859e+00 +2.2845581819055152e+00 +2.2927587901174256e+01 +3.7224007065314325e+01 -2.6523641489606431e+04 +5.8300324855940940e+05 +6.8412713800566778e+07 
-4.7999999999999989e+00 -1.0315222993176920e+00 +2.2847417801782317e+00 +2.2890667454298754e+01 +3.0369770050380009e+01 -2.5449156373260517e+04 +6.2997052967392222e+05 +6.2057600149207115e+07 
-4.8999999999999986e+00 -1.0315251747926570e+00 +2.2849281128999475e+00 +2.2853081395135330e+01 +2.3435496656030960e+01 -2.4374580404772114e+04 +6.7767846958885877e+05 +5.5740651738844581e+07 
-4.9999999999999982e+00 -1.0315280460894980e+00 +2.2851162862224865e+00 +2.2814818928827631e+01 +1.6440967062441896e+01 -2.3299411370601287e+04 +7.2603399703242118e+05 +4.9457974906363681e+07 
-5.0999999999999979e+00 -1.0315309095434506e+00 +2.2853054063012750e+00 +2.2775869265289071e+01 +9.4059613838253675e+00 -2.2223147355483499e+04 +7.7494404163463414e+05 +4.3205678105167486e+07 
-5.1999999999999975e+00 -1.0315337614896369e+00 +2.2854945793006021e+00 +2.2736221615086780e+01 +2.3502595029428610e+00 -2.1145286670496054e+04 +8.2431553497106337e+05 +3.6979871590691112e+07 
-5.2999999999999972e+00 -1.0315365982630744e+00 +2.2856829113862429e+00 +2.2695865190984900e+01 -4.7063586997041158e+00 -2.0065327891719942e+04 +8.7405540922795108e+05 +3.0776667640421174e+07 
-5.3999999999999968e+00 -1.0315394161986118e+00 +2.2858695087268299e+00 +2.2654789201700115e+01 -1.1744113405793875e+01 -1.8982769752899039e+04 +9.2407059765765048e+05 +2.4592180077303879e+07 
-5.4999999999999964e+00 -1.0315422116310695e+00 +2.2860534774970547e+00 +2.2612982869312106e+01 -1.8743224939378376e+01 -1.7897111490964700e+04 +9.7426803420340456e+05 +1.8422525895146720e+07 
-5.5999999999999961e+00 -1.0315449821308333e+00 +2.2862338659638772e+00 +2.2570491027275533e+01 -2.5682204839583086e+01 -1.6808751191675441e+04 +1.0245396650149395e+06 +1.2267751819515496e+07 
-5.6999999999999957e+00 -1.0315477299575473e+00 +2.2864095078965017e+00 +2.2527548805494586e+01 -3.2532294990863690e+01 -1.5721073690334804e+04 +1.0747147527561123e+06 +6.1410563713849448e+06 
-5.7999999999999954e+00 -1.0315504584796482e+00 +2.2865791893416647e+00 +2.2484430768200330e+01 -3.9262843021718631e+01 -1.4638059719805769e+04 +1.1246061956098790e+06 +5.8295507382922187e+04 
-5.8999999999999950e+00 -1.0315531710649377e+00 +2.2867416962060245e+00 +2.2441411401031829e+01 -4.5843192104974804e+01 -1.3563688472811100e+04 +1.1740268630716319e+06 -5.9646823120267028e+06 
-5.9999999999999947e+00 -1.0315558710805672e+00 +2.2868958142581657e+00 +2.2398765108438404e+01 -5.2242681078258173e+01 -1.2501937530112184e+04 +1.2227895970397571e+06 -1.1912036567576535e+07 
-6.0999999999999943e+00 -1.0315585618931280e+00 +2.2870403291102637e+00 +2.2356766226256251e+01 -5.8430643929322400e+01 -1.1456783105549004e+04 +1.2707072088187039e+06 -1.7767933497531474e+07 
-6.1999999999999940e+00 -1.0315612468684541e+00 +2.2871740262204421e+00 +2.2315688995893179e+01 -6.4376409832858727e+01 -1.0432199544052133e+04 +1.3175924791846797e+06 -2.3516548522922784e+07 
-6.2999999999999936e+00 -1.0315639293717846e+00 +2.2872956908772335e+00 +2.2275807585716890e+01 -7.0049302698720368e+01 -9.4321597298741945e+03 +1.3632581556994682e+06 -2.9142064303747829e+07 
-6.3999999999999932e+00 -1.0315666127675589e+00 +2.2874041082011152e+00 +2.2237396063315394e+01 -7.5418641207330680e+01 -8.4606345414345469e+03 +1.4075169528416411e+06 -3.4628673384084664e+07 
-6.4999999999999929e+00 -1.0315693004195130e+00 +2.2874980631297621e+00 +2.2200728409964892e+01 -8.0453738367342197e+01 -7.5215931392087869e+03 +1.4501815493318210e+06 -3.9960576789881513e+07 
-6.5999999999999925e+00 -1.0315719956906257e+00 +2.2875763404239366e+00 +2.2166078511551692e+01 -8.5123901684361982e+01 -6.6190027717120238e+03 +1.4910645890560725e+06 -4.5121985015234768e+07 
-6.6999999999999922e+00 -1.0315747019430679e+00 +2.2876377246462307e+00 +2.2133720153638297e+01 -8.9398432511920603e+01 -5.7568286871702248e+03 +1.5299786771392350e+06 -5.0097118430265628e+07 
-6.7999999999999918e+00 -1.0315774225381871e+00 +2.2876810001640582e+00 +2.2103927018562011e+01 -9.3246626162529665e+01 -4.9390340703943839e+03 +1.5667363806133915e+06 -5.4870207605513699e+07 
-6.8999999999999915e+00 -1.0315801608364876e+00 +2.2877049511399923e+00 +2.2076972683193389e+01 -9.6637771586500492e+01 -4.1695799918746379e+03 +1.6011502263755887e+06 -5.9425493582260698e+07 
-6.9999999999999911e+00 -1.0315829201976532e+00 +2.2877083615273239e+00 +2.2053130621679404e+01 -9.9541151246639600e+01 -3.4524254630575956e+03 +1.6330327004049546e+06 -6.3747227600264765e+07 
-7.0999999999999908e+00 -1.0315857039803871e+00 +2.2876900150572324e+00 +2.2032674184799451e+01 -1.0192604073127198e+02 -2.7915270270386427e+03 +1.6621962454335145e+06 -6.7819673100639418e+07 
-7.1999999999999904e+00 -1.0315885155425821e+00 +2.2876486952431074e+00 +2.2015876622506916e+01 -1.0376170888211291e+02 -2.1908391989671800e+03 +1.6884532616274606e+06 -7.1627103593186185e+07 
-7.2999999999999901e+00 -1.0315913582410821e+00 +2.2875831853607851e+00 +2.2003011051992431e+01 -1.0501741718393218e+02 -1.6543138343389514e+03 +1.7116161028847401e+06 -7.5153805739924788e+07 
-7.3999999999999897e+00 -1.0315942354318206e+00 +2.2874922684537360e+00 +2.1994350476400200e+01 -1.0566241993672450e+02 -1.1859004938102596e+03 +1.7314970778393410e+06 -7.8384077593014255e+07 
-7.4999999999999893e+00 -1.0315971504696979e+00 +2.2873747273220486e+00 +2.1990167769135759e+01 -1.0566596413629823e+02 -7.8954616268096675e+02 +1.7479084498978548e+06 -8.1302229844058797e+07 
-7.5999999999999890e+00 -1.0316001053981301e+00 +2.2872298833228166e+00 +2.1990616454799753e+01 -1.0500952176657871e+02 -4.6742351792640540e+02 +1.7607264756270009e+06 -8.3899696119965911e+07 
-7.6999999999999886e+00 -1.0316030972337686e+00 +2.2870592770389737e+00 +2.1995352975335933e+01 -1.0372334247966482e+02 -2.1410437454443166e+02 +1.7700788515694907e+06 -8.6199169609032199e+07 
-7.7999999999999883e+00 -1.0316061217804811e+00 +2.2868650257437446e+00 +2.2003902595951612e+01 -1.0184998076585217e+02 -2.2101846220571012e+01 +1.7761558843472884e+06 -8.8231991870226488e+07 
-7.8999999999999879e+00 -1.0316091748427119e+00 +2.2866492468896591e+00 +2.2015790616894265e+01 -9.9431995637413237e+01 +1.1607059121803725e+02 +1.7791479045366116e+06 -9.0029503491050839e+07 
-7.9999999999999876e+00 -1.0316122522255542e+00 +2.2864140581058225e+00 +2.2030542385088836e+01 -9.6511950780880085e+01 +2.0789888770898895e+02 +1.7792452671406120e+06 -9.1623043022481784e+07 
-8.0999999999999872e+00 -1.0316153497346883e+00 +2.2861615771903074e+00 +2.2047683286512378e+01 -9.3132414277180644e+01 +2.6086857024596452e+02 +1.7766383497615729e+06 -9.3043947715475723e+07 
-8.1999999999999869e+00 -1.0316184631764798e+00 +2.2858939221215491e+00 +2.2066738756280209e+01 -8.9335958964961307e+01 +2.8246456629356084e+02 +1.7715175547955369e+06 -9.4323552714267388e+07 
-8.2999999999999865e+00 -1.0316215883579765e+00 +2.2856132110664489e+00 +2.2087234277745100e+01 -8.5165162629938067e+01 +2.8017122591140077e+02 +1.7640733103647449e+06 -9.5493191168515593e+07 
-8.3999999999999861e+00 -1.0316247210869329e+00 +2.2853215623873382e+00 +2.2108695383473776e+01 -8.0662608237031904e+01 +2.6147232014707635e+02 +1.7544960717425412e+06 -9.6584194268117279e+07 
-8.4999999999999858e+00 -1.0316278571718864e+00 +2.2850210946447520e+00 +2.2130647665653822e+01 -7.5870883965679042e+01 +2.3385083964658671e+02 +1.7429763214086415e+06 -9.7627890267507836e+07 
-8.5999999999999854e+00 -1.0316309924220866e+00 +2.2847139266156047e+00 +2.2152616763819950e+01 -7.0832583754724752e+01 +2.0478925139968121e+02 +1.7297045722286936e+06 -9.8655605765301347e+07 
-8.6999999999999851e+00 -1.0316341226476244e+00 +2.2844021772835394e+00 +2.2174128381812839e+01 -6.5590306999902495e+01 +1.8176917709148455e+02 +1.7148713656289361e+06 -9.9698664172254041e+07 
-8.7999999999999847e+00 -1.0316372436594237e+00 +2.2840879658557722e+00 +2.2194708284147548e+01 -6.0186659032293377e+01 +1.7227147527312286e+02 +1.6986672743081979e+06 -1.0078838612833197e+08 
-8.8999999999999844e+00 -1.0316403512692101e+00 +2.2837734117719983e+00 +2.2213882292170585e+01 -5.4664251377135649e+01 +1.8377632403789954e+02 +1.6812829037362363e+06 -1.0195608992082293e+08 
-8.9999999999999840e+00 -1.0316434412896398e+00 +2.2834606347038719e+00 +2.2231176298329981e+01 -4.9065701728189836e+01 +2.2376295770722822e+02 +1.6629088919400205e+06 -1.0323309024365759e+08 
-9.0999999999999837e+00 -1.0316465095342764e+00 +2.2831517545706048e+00 +2.2246116262763721e+01 -4.3433634386181581e+01 +2.9970974056448665e+02 +1.6437359119929888e+06 -1.0465069856888285e+08 
-9.1999999999999833e+00 -1.0316495518175581e+00 +2.2828488915308607e+00 +2.2258228207138888e+01 -3.7810680007441512e+01 +4.1909429862613024e+02 +1.6239546704909434e+06 -1.0624022380584274e+08 
-9.2999999999999829e+00 -1.0316525639549670e+00 +2.2825541660073818e+00 +2.2267038235928542e+01 -3.2239476333091297e+01 +5.8939311772544704e+02 +1.6037559118048351e+06 -1.0803297039141537e+08 
-9.3999999999999826e+00 -1.0316555417629010e+00 +2.2822696986878466e+00 +2.2272072518328944e+01 -2.6762668183965911e+01 +8.1808190363025517e+02 +1.5833304179436110e+06 -1.1006024004226683e+08 
-9.4999999999999822e+00 -1.0316584810588689e+00 +2.2819976105235162e+00 +2.2272857311746662e+01 -2.1422907383002492e+01 +1.1126351602668544e+03 +1.5628690113467199e+06 -1.1235332951758495e+08 
-9.5999999999999819e+00 -1.0316613784806345e+00 +2.2817396407524799e+00 +2.2269044913312172e+01 -1.6255333532420501e+01 +1.4784703558329804e+03 +1.5425307215032780e+06 -1.1493457255376466e+08 
-9.6999999999999815e+00 -1.0316642340370286e+00 +2.2814957996641452e+00 +2.2260852608611920e+01 -1.1262537412524154e+01 +1.9115927107852742e+03 +1.5223362498592294e+06 -1.1778523229195780e+08 
-9.7999999999999812e+00 -1.0316670486111039e+00 +2.2812656050650615e+00 +2.2248656936643719e+01 -6.4381782408762440e+00 +2.4053137632015305e+03 +1.5022684108263459e+06 -1.2087479387326774e+08 
-9.8999999999999808e+00 -1.0316698230857853e+00 +2.2810485746423956e+00 +2.2232834437901207e+01 -1.7759128512335689e+00 +2.9529450388189148e+03 +1.4823100074478821e+06 -1.2417274248892140e+08 
-9.9999999999999805e+00 -1.0316725583438948e+00 +2.2808442260174120e+00 +2.2213761648136003e+01 +2.7306035948601988e+00 +3.5477981304829136e+03 +1.4624438343584766e+06 -1.2764856366500904e+08 
-1.0099999999999980e+01 -1.0316752552680448e+00 +2.2806520767376797e+00 +2.2191815084319483e+01 +7.0877178104419398e+00 +4.1831849647458421e+03 +1.4426526767002780e+06 -1.3127174452822974e+08 
