# field on trajectory
# s[mm] rx[mm] ry[mm] rz[mm] bx[T] by[T] bz[T]
0.0000000000000000e+00 +9.1404999999999994e+00 +0.0000000000000000e+00 +0.0000000000000000e+00 +1.1255118742848604e-02 -1.0311945862620431e+00 -5.8817337765817213e-02
-1.0000000000000001e-01 +9.1404994847585481e+00 +0.0000000000000000e+00 -9.9999999998230185e-02 +1.1255228088767440e-02 -1.0311996188442405e+00 -5.8818003952146911e-02
-2.0000000000000001e-01 +9.1404979390308370e+00 +0.0000000000000000e+00 -1.9999999998584134e-01 +1.1255335162236153e-02 -1.0312046679502953e+00 -5.8818676197053103e-02
-3.0000000000000004e-01 +9.1404953628118211e+00 +0.0000000000000000e+00 -2.9999999995221432e-01 +1.1255439639168880e-02 -1.0312097267826190e+00 -5.8819354611876998e-02
-4.0000000000000002e-01 +9.1404917560964467e+00 +0.0000000000000000e+00 -3.9999999988672985e-01 +1.1255541195488482e-02 -1.0312147885444587e+00 -5.8820039307967441e-02
-5.0000000000000000e-01 +9.1404871188796566e+00 +0.0000000000000000e+00 -4.9999999977876847e-01 +1.1255639507125983e-02 -1.0312198464396289e+00 -5.8820730396676138e-02
-5.9999999999999998e-01 +9.1404814511563970e+00 +0.0000000000000000e+00 -5.9999999961771056e-01 +1.1255734250019909e-02 -1.0312248936722404e+00 -5.8821427989352706e-02
-6.9999999999999996e-01 +9.1404747529216266e+00 +0.0000000000000000e+00 -6.9999999939293633e-01 +1.1255825100115725e-02 -1.0312299234464350e+00 -5.8822132197340053e-02
-7.9999999999999993e-01 +9.1404670241703183e+00 +0.0000000000000000e+00 -7.9999999909382580e-01 +1.1255911733365221e-02 -1.0312349289661162e+00 -5.8822843131969352e-02
-8.9999999999999991e-01 +9.1404582648974735e+00 +0.0000000000000000e+00 -8.9999999870975900e-01 +1.1255993825725903e-02 -1.0312399034346789e+00 -5.8823560904555296e-02
-9.9999999999999989e-01 +9.1404484750981201e+00 +0.0000000000000000e+00 -9.9999999823011565e-01 +1.1256071053160371e-02 -1.0312448400547429e+00 -5.8824285626391255e-02
-1.0999999999999999e+00 +9.1404376547673287e+00 +0.0000000000000000e+00 -1.0999999976442754e+00 +1.1256143091635754e-02 -1.0312497320278842e+00 -5.8825017408744427e-02
-1.2000000000000000e+00 +9.1404258039002126e+00 +0.0000000000000000e+00 -1.1999999969416175e+00 +1.1256209617123066e-02 -1.0312545725543640e+00 -5.8825756362851082e-02
-1.3000000000000000e+00 +9.1404129224919348e+00 +0.0000000000000000e+00 -1.2999999961115216e+00 +1.1256270305596635e-02 -1.0312593548328639e+00 -5.8826502599911637e-02
-1.4000000000000001e+00 +9.1403990105377186e+00 +0.0000000000000000e+00 -1.3999999951433668e+00 +1.1256324833033465e-02 -1.0312640720602160e+00 -5.8827256231085874e-02
-1.5000000000000002e+00 +9.1403840680328532e+00 +0.0000000000000000e+00 -1.4999999940265321e+00 +1.1256372875412649e-02 -1.0312687174311326e+00 -5.8828017367488133e-02
-1.6000000000000003e+00 +9.1403680949726969e+00 +0.0000000000000000e+00 -1.5999999927503963e+00 +1.1256414258291336e-02 -1.0312732859854441e+00 -5.8828786014361006e-02
-1.7000000000000004e+00 +9.1403510913526880e+00 +0.0000000000000000e+00 -1.6999999913043382e+00 +1.1256449405529910e-02 -1.0312777801511626e+00 -5.8829561753613771e-02
-1.8000000000000005e+00 +9.1403330571683341e+00 +0.0000000000000000e+00 -1.7999999896777366e+00 +1.1256478890553525e-02 -1.0312822042032850e+00 -5.8830344061295524e-02
-1.9000000000000006e+00 +9.1403139924152175e+00 +0.0000000000000000e+00 -1.8999999878599700e+00 +1.1256503286772083e-02 -1.0312865624165728e+00 -5.8831132413416566e-02
-2.0000000000000004e+00 +9.1402938970889842e+00 +0.0000000000000000e+00 -1.9999999858404167e+00 +1.1256523167577782e-02 -1.0312908590656549e+00 -5.8831926285946960e-02
-2.1000000000000005e+00 +9.1402727711853426e+00 +0.0000000000000000e+00 -2.0999999836084551e+00 +1.1256539106342620e-02 -1.0312950984251270e+00 -5.8832725154814837e-02
-2.2000000000000006e+00 +9.1402506147000580e+00 +0.0000000000000000e+00 -2.1999999811534634e+00 +1.1256551676415941e-02 -1.0312992847696558e+00 -5.8833528495904924e-02
-2.3000000000000007e+00 +9.1402274276289504e+00 +0.0000000000000000e+00 -2.2999999784648195e+00 +1.1256561451121971e-02 -1.0313034223740767e+00 -5.8834335785056861e-02
-2.4000000000000008e+00 +9.1402032099678845e+00 +0.0000000000000000e+00 -2.3999999755319013e+00 +1.1256569003757339e-02 -1.0313075155134972e+00 -5.8835146498063776e-02
-2.5000000000000009e+00 +9.1401779617127747e+00 +0.0000000000000000e+00 -2.4999999723440869e+00 +1.1256574907588612e-02 -1.0313115684633980e+00 -5.8835960110670618e-02
-2.6000000000000010e+00 +9.1401516828595710e+00 +0.0000000000000000e+00 -2.5999999688907538e+00 +1.1256579735849835e-02 -1.0313155854997333e+00 -5.8836776098572525e-02
-2.7000000000000011e+00 +9.1401243734042623e+00 +0.0000000000000000e+00 -2.6999999651612794e+00 +1.1256584061740059e-02 -1.0313195708990346e+00 -5.8837593937413488e-02
-2.8000000000000012e+00 +9.1400960333428696e+00 +0.0000000000000000e+00 -2.7999999611450415e+00 +1.1256588458420876e-02 -1.0313235289385074e+00 -5.8838413102784523e-02
-2.9000000000000012e+00 +9.1400666626714386e+00 +0.0000000000000000e+00 -2.8999999568314170e+00 +1.1256593499013945e-02 -1.0313274638961385e+00 -5.8839233070222298e-02
-3.0000000000000013e+00 +9.1400362613860402e+00 +0.0000000000000000e+00 -2.9999999522097838e+00 +1.1256599756598543e-02 -1.0313313800507915e+00 -5.8840053315207433e-02
-3.1000000000000014e+00 +9.1400048294827645e+00 +0.0000000000000000e+00 -3.0999999472695183e+00 +1.1256607804209083e-02 -1.0313352816823120e+00 -5.8840873313163046e-02
-3.2000000000000015e+00 +9.1399723669577160e+00 +0.0000000000000000e+00 -3.1999999419999980e+00 +1.1256618214832656e-02 -1.0313391730716284e+00 -5.8841692539453136e-02
-3.3000000000000016e+00 +9.1399388738070080e+00 +0.0000000000000000e+00 -3.2999999363905994e+00 +1.1256631561406570e-02 -1.0313430585008507e+00 -5.8842510469380993e-02
-3.4000000000000017e+00 +9.1399043500267609e+00 +0.0000000000000000e+00 -3.3999999304306998e+00 +1.1256648416815887e-02 -1.0313469422533756e+00 -5.8843326578187742e-02
-3.5000000000000018e+00 +9.1398687956130988e+00 +0.0000000000000000e+00 -3.4999999241096753e+00 +1.1256669353890933e-02 -1.0313508286139843e+00 -5.8844140341050649e-02
-3.6000000000000019e+00 +9.1398322105621386e+00 +0.0000000000000000e+00 -3.5999999174169028e+00 +1.1256694761095094e-02 -1.0313547206371643e+00 -5.8844951334934212e-02
-3.7000000000000020e+00 +9.1397945948699970e+00 +0.0000000000000000e+00 -3.6999999103417585e+00 +1.1256724289619564e-02 -1.0313586164512480e+00 -5.8845759544175862e-02
-3.8000000000000020e+00 +9.1397559485327857e+00 +0.0000000000000000e+00 -3.7999999028736187e+00 +1.1256757406363281e-02 -1.0313625129527666e+00 -5.8846565054979490e-02
-3.9000000000000021e+00 +9.1397162715466145e+00 +0.0000000000000000e+00 -3.8999998950018595e+00 +1.1256793578253682e-02 -1.0313664070380701e+00 -5.8847367953573725e-02
-4.0000000000000018e+00 +9.1396755639075948e+00 +0.0000000000000000e+00 -3.9999998867158570e+00 +1.1256832272250036e-02 -1.0313702956033075e+00 -5.8848168326216310e-02
-4.1000000000000014e+00 +9.1396338256118472e+00 +0.0000000000000000e+00 -4.0999998780049873e+00 +1.1256872955346829e-02 -1.0313741755444055e+00 -5.8848966259198436e-02
-4.2000000000000011e+00 +9.1395910566554992e+00 +0.0000000000000000e+00 -4.1999998688586260e+00 +1.1256915094577078e-02 -1.0313780437570423e+00 -5.8849761838849164e-02
-4.3000000000000007e+00 +9.1395472570346890e+00 +0.0000000000000000e+00 -4.2999998592661486e+00 +1.1256958157015674e-02 -1.0313818971366315e+00 -5.8850555151539606e-02
-4.4000000000000004e+00 +9.1395024267455707e+00 +0.0000000000000000e+00 -4.3999998492169317e+00 +1.1257001609782762e-02 -1.0313857325782960e+00 -5.8851346283687496e-02
-4.5000000000000000e+00 +9.1394565657843181e+00 +0.0000000000000000e+00 -4.4999998387003499e+00 +1.1257044920047039e-02 -1.0313895469768466e+00 -5.8852135321761423e-02
-4.5999999999999996e+00 +9.1394096741471227e+00 +0.0000000000000000e+00 -4.5999998277057781e+00 +1.1257087555029138e-02 -1.0313933372267619e+00 -5.8852922352285147e-02
-4.6999999999999993e+00 +9.1393617518302044e+00 +0.0000000000000000e+00 -4.6999998162225927e+00 +1.1257128982004950e-02 -1.0313971002221645e+00 -5.8853707461842077e-02
-4.7999999999999989e+00 +9.1393127988298062e+00 +0.0000000000000000e+00 -4.7999998042401684e+00 +1.1257168668308958e-02 -1.0314008328568003e+00 -5.8854490737079511e-02
-4.8999999999999986e+00 +9.1392628151422048e+00 +0.0000000000000000e+00 -4.8999997917478799e+00 +1.1257206081337619e-02 -1.0314045320240157e+00 -5.8855272264713016e-02
-4.9999999999999982e+00 +9.1392118007637073e+00 +0.0000000000000000e+00 -4.9999997787351020e+00 +1.1257240688552644e-02 -1.0314081946167357e+00 -5.8856052131530785e-02
-5.0999999999999979e+00 +9.1391597556906614e+00 +0.0000000000000000e+00 -5.0999997651912103e+00 +1.1257271957484395e-02 -1.0314118175274423e+00 -5.8856830424398043e-02
-5.1999999999999975e+00 +9.1391066799194505e+00 +0.0000000000000000e+00 -5.1999997511055795e+00 +1.1257299355735202e-02 -1.0314153976481522e+00 -5.8857607230261261e-02
-5.2999999999999972e+00 +9.1390525734465040e+00 +0.0000000000000000e+00 -5.2999997364675835e+00 +1.1257322350982672e-02 -1.0314189318703948e+00 -5.8858382636152590e-02
-5.3999999999999968e+00 +9.1389974362682960e+00 +0.0000000000000000e+00 -5.3999997212665978e+00 +1.1257340410983079e-02 -1.0314224170851900e+00 -5.8859156729194201e-02
-5.4999999999999964e+00 +9.1389412683813500e+00 +0.0000000000000000e+00 -5.4999997054919962e+00 +1.1257353003574666e-02 -1.0314258501830273e+00 -5.8859929596602661e-02
-5.5999999999999961e+00 +9.1388840697822413e+00 +0.0000000000000000e+00 -5.5999996891331536e+00 +1.1257359804807930e-02 -1.0314292291780034e+00 -5.8860701335487181e-02
-5.6999999999999957e+00 +9.1388258404676002e+00 +0.0000000000000000e+00 -5.6999996721794437e+00 +1.1257361323287474e-02 -1.0314325565799787e+00 -5.8861472082188483e-02
-5.7999999999999954e+00 +9.1387665804341065e+00 +0.0000000000000000e+00 -5.7999996546202413e+00 +1.1257358275701040e-02 -1.0314358360214277e+00 -5.8862241982813333e-02
-5.8999999999999950e+00 +9.1387062896784883e+00 +0.0000000000000000e+00 -5.8999996364449210e+00 +1.1257351378673560e-02 -1.0314390711331070e+00 -5.8863011183426607e-02
-5.9999999999999947e+00 +9.1386449681975197e+00 +0.0000000000000000e+00 -5.9999996176428567e+00 +1.1257341348763912e-02 -1.0314422655439874e+00 -5.8863779830049340e-02
-6.0999999999999943e+00 +9.1385826159880139e+00 +0.0000000000000000e+00 -6.0999995982034223e+00 +1.1257328902461694e-02 -1.0314454228811849e+00 -5.8864548068656465e-02
-6.1999999999999940e+00 +9.1385192330468232e+00 +0.0000000000000000e+00 -6.1999995781159916e+00 +1.1257314756183977e-02 -1.0314485467698964e+00 -5.8865316045175038e-02
-6.2999999999999936e+00 +9.1384548193708319e+00 +0.0000000000000000e+00 -6.2999995573699383e+00 +1.1257299626272073e-02 -1.0314516408333265e+00 -5.8866083905481870e-02
-6.3999999999999932e+00 +9.1383893749569545e+00 +0.0000000000000000e+00 -6.3999995359546364e+00 +1.1257284228988284e-02 -1.0314547086926247e+00 -5.8866851795401777e-02
-6.4999999999999929e+00 +9.1383228998021320e+00 +0.0000000000000000e+00 -6.4999995138594606e+00 +1.1257269280512685e-02 -1.0314577539668144e+00 -5.8867619860705364e-02
-6.5999999999999925e+00 +9.1382553939033269e+00 +0.0000000000000000e+00 -6.5999994910737838e+00 +1.1257255496939874e-02 -1.0314607802727271e+00 -5.8868388247106974e-02
-6.6999999999999922e+00 +9.1381868572575229e+00 +0.0000000000000000e+00 -6.6999994675869790e+00 +1.1257243594275749e-02 -1.0314637912249338e+00 -5.8869157100262734e-02
-6.7999999999999918e+00 +9.1381172898617180e+00 +0.0000000000000000e+00 -6.7999994433884208e+00 +1.1257234288434262e-02 -1.0314667904356760e+00 -5.8869926565768428e-02
-6.8999999999999915e+00 +9.1380466917129226e+00 +0.0000000000000000e+00 -6.8999994184674822e+00 +1.1257228295234194e-02 -1.0314697815148002e+00 -5.8870696789157462e-02
-6.9999999999999911e+00 +9.1379750628081542e+00 +0.0000000000000000e+00 -6.9999993928135362e+00 +1.1257226330395912e-02 -1.0314727680696885e+00 -5.8871467915898847e-02
-7.0999999999999908e+00 +9.1379024031444356e+00 +0.0000000000000000e+00 -7.0999993664159566e+00 +1.1257229109538155e-02 -1.0314757537051904e+00 -5.8872240091395120e-02
-7.1999999999999904e+00 +9.1378287127187914e+00 +0.0000000000000000e+00 -7.1999993392641164e+00 +1.1257237348174780e-02 -1.0314787420235567e+00 -5.8873013460980304e-02
-7.2999999999999901e+00 +9.1377539915282426e+00 +0.0000000000000000e+00 -7.2999993113473884e+00 +1.1257251761711560e-02 -1.0314817366243705e+00 -5.8873788169917854e-02
-7.3999999999999897e+00 +9.1376782395698033e+00 +0.0000000000000000e+00 -7.3999992826551457e+00 +1.1257273065442931e-02 -1.0314847411044796e+00 -5.8874564363398635e-02
-7.4999999999999893e+00 +9.1376014568404802e+00 +0.0000000000000000e+00 -7.4999992531767612e+00 +1.1257301974548762e-02 -1.0314877590579270e+00 -5.8875342186538837e-02
-7.5999999999999890e+00 +9.1375236433372642e+00 +0.0000000000000000e+00 -7.5999992229016078e+00 +1.1257338989418343e-02 -1.0314907929870087e+00 -5.8876121656256060e-02
-7.6999999999999886e+00 +9.1374447990571337e+00 +0.0000000000000000e+00 -7.6999991918190576e+00 +1.1257383751716298e-02 -1.0314938410371717e+00 -5.8876902276946835e-02
-7.7999999999999883e+00 +9.1373649239970494e+00 +0.0000000000000000e+00 -7.7999991599184835e+00 +1.1257435688599254e-02 -1.0314969002666758e+00 -5.8877683424957666e-02
-7.8999999999999879e+00 +9.1372840181539647e+00 +0.0000000000000000e+00 -7.8999991271892585e+00 +1.1257494227431683e-02 -1.0314999677360412e+00 -5.8878464476730182e-02
-7.9999999999999876e+00 +9.1372020815248209e+00 +0.0000000000000000e+00 -7.9999990936207546e+00 +1.1257558795793135e-02 -1.0315030405081429e+00 -5.8879244808804534e-02
-8.0999999999999872e+00 +9.1371191141065591e+00 +0.0000000000000000e+00 -8.0999990592023430e+00 +1.1257628821485495e-02 -1.0315061156483101e+00 -5.8880023797822943e-02
-8.1999999999999869e+00 +9.1370351158961132e+00 +0.0000000000000000e+00 -8.1999990239233966e+00 +1.1257703732540205e-02 -1.0315091902244271e+00 -5.8880800820533319e-02
-8.2999999999999865e+00 +9.1369500868904208e+00 +0.0000000000000000e+00 -8.2999989877732876e+00 +1.1257782957225489e-02 -1.0315122613070291e+00 -5.8881575253792680e-02
-8.3999999999999861e+00 +9.1368640270864212e+00 +0.0000000000000000e+00 -8.3999989507413879e+00 +1.1257865924053609e-02 -1.0315153259694063e+00 -5.8882346474570843e-02
-8.4999999999999858e+00 +9.1367769364810627e+00 +0.0000000000000000e+00 -8.4999989128170697e+00 +1.1257952061788069e-02 -1.0315183812876951e+00 -5.8883113859953692e-02
-8.5999999999999854e+00 +9.1366888150713006e+00 +0.0000000000000000e+00 -8.5999988739897049e+00 +1.1258040799450874e-02 -1.0315214243409843e+00 -5.8883876787146995e-02
-8.6999999999999851e+00 +9.1365996628541044e+00 +0.0000000000000000e+00 -8.6999988342486656e+00 +1.1258131566329745e-02 -1.0315244522114106e+00 -5.8884634633479802e-02
-8.7999999999999847e+00 +9.1365094798264561e+00 +0.0000000000000000e+00 -8.7999987935833222e+00 +1.1258223791985360e-02 -1.0315274619842572e+00 -5.8885386776407950e-02
-8.8999999999999844e+00 +9.1364182659853608e+00 +0.0000000000000000e+00 -8.8999987519830466e+00 +1.1258316906258579e-02 -1.0315304507480536e+00 -5.8886132593517708e-02
-8.9999999999999840e+00 +9.1363260213278394e+00 +0.0000000000000000e+00 -8.9999987094372109e+00 +1.1258410339277670e-02 -1.0315334155946738e+00 -5.8886871462529210e-02
-9.0999999999999837e+00 +9.1362327458509398e+00 +0.0000000000000000e+00 -9.0999986659351855e+00 +1.1258503521465546e-02 -1.0315363536194375e+00 -5.8887602761300090e-02
-9.1999999999999833e+00 +9.1361384395517362e+00 +0.0000000000000000e+00 -9.1999986214663423e+00 +1.1258595883546997e-02 -1.0315392619212054e+00 -5.8888325867828967e-02
-9.2999999999999829e+00 +9.1360431024273332e+00 +0.0000000000000000e+00 -9.2999985760200534e+00 +1.1258686856555908e-02 -1.0315421376024811e+00 -5.8889040160258976e-02
-9.3999999999999826e+00 +9.1359467344748673e+00 +0.0000000000000000e+00 -9.3999985295856892e+00 +1.1258775871842493e-02 -1.0315449777695083e+00 -5.8889745016881392e-02
-9.4999999999999822e+00 +9.1358493356915087e+00 +0.0000000000000000e+00 -9.4999984821526198e+00 +1.1258862361080523e-02 -1.0315477795323709e+00 -5.8890439816139159e-02
-9.5999999999999819e+00 +9.1357509060744704e+00 +0.0000000000000000e+00 -9.5999984337102173e+00 +1.1258945913511344e-02 -1.0315505409225871e+00 -5.8891124102932048e-02
-9.6999999999999815e+00 +9.1356514456210025e+00 +0.0000000000000000e+00 -9.6999983842478539e+00 +1.1259026747472596e-02 -1.0315532636437557e+00 -5.8891798087531227e-02
-9.7999999999999812e+00 +9.1355509543283944e+00 +0.0000000000000000e+00 -9.7999983337548997e+00 +1.1259105238292303e-02 -1.0315559503152993e+00 -5.8892462146618259e-02
-9.8999999999999808e+00 +9.1354494321939725e+00 +0.0000000000000000e+00 -9.8999982822207251e+00 +1.1259181760974516e-02 -1.0315586035543027e+00 -5.8893116656963736e-02
-9.9999999999999805e+00 +9.1353468792150956e+00 +0.0000000000000000e+00 -9.9999982296347003e+00 +1.1259256690189661e-02 -1.0315612259754434e+00 -5.8893761995428798e-02
-1.0099999999999980e+01 +9.1352432953891540e+00 +0.0000000000000000e+00 -1.0099998175986197e+01 +1.1259330400264870e-02 -1.0315638201909263e+00 -5.8894398538966844e-02
-1.0199999999999980e+01 +9.1351386807135651e+00 +0.0000000000000000e+00 -1.0199998121264588e+01 +1.1259403265174306e-02 -1.0315663888104205e+00 -5.8895026664625046e-02
-1.0299999999999979e+01 +9.1350330351857743e+00 +0.0000000000000000e+00 -1.0299998065459242e+01 +1.1259475658529488e-02 -1.0315689344409891e+00 -5.8895646749545810e-02
-1.0399999999999979e+01 +9.1349263588032468e+00 +0.0000000000000000e+00 -1.0399998008559530e+01 +1.1259547953569655e-02 -1.0315714596870271e+00 -5.8896259170968600e-02
-1.0499999999999979e+01 +9.1348186515634726e+00 +0.0000000000000000e+00 -1.0499997950554823e+01 +1.1259620523152079e-02 -1.0315739671501942e+00 -5.8896864306231290e-02
-1.0599999999999978e+01 +9.1347099134639560e+00 +0.0000000000000000e+00 -1.0599997891434491e+01 +1.1259693739742390e-02 -1.0315764594293471e+00 -5.8897462532771831e-02
-1.0699999999999978e+01 +9.1346001445022171e+00 +0.0000000000000000e+00 -1.0699997831187906e+01 +1.1259767975404936e-02 -1.0315789391204753e+00 -5.8898054228129791e-02
-1.0799999999999978e+01 +9.1344893446757904e+00 +0.0000000000000000e+00 -1.0799997769804436e+01 +1.1259843601793114e-02 -1.0315814088166360e+00 -5.8898639769947983e-02
-1.0899999999999977e+01 +9.1343775139822192e+00 +0.0000000000000000e+00 -1.0899997707273455e+01 +1.1259920990139687e-02 -1.0315838711078855e+00 -5.8899219535973900e-02
-1.0999999999999977e+01 +9.1342646524190538e+00 +0.0000000000000000e+00 -1.0999997643584329e+01 +1.1260000511247141e-02 -1.0315863285812150e+00 -5.8899793904061463e-02
-1.1099999999999977e+01 +9.1341507599838518e+00 +0.0000000000000000e+00 -1.1099997578726432e+01 +1.1260082535478022e-02 -1.0315887838204831e+00 -5.8900363252172405e-02
-1.1199999999999976e+01 +9.1340358366741707e+00 +0.0000000000000000e+00 -1.1199997512689132e+01 +1.1260167432745277e-02 -1.0315912394063524e+00 -5.8900927958377973e-02
-1.1299999999999976e+01 +9.1339198824875680e+00 +0.0000000000000000e+00 -1.1299997445461800e+01 +1.1260255572502558e-02 -1.0315936979162195e+00 -5.8901488400860340e-02
-1.1399999999999975e+01 +9.1338028974215995e+00 +0.0000000000000000e+00 -1.1399997377033806e+01 +1.1260347323734633e-02 -1.0315961619241520e+00 -5.8902044957914367e-02
-1.1499999999999975e+01 +9.1336848814738154e+00 +0.0000000000000000e+00 -1.1499997307394519e+01 +1.1260443054947656e-02 -1.0315986340008212e+00 -5.8902598007948899e-02
-1.1599999999999975e+01 +9.1335658346417574e+00 +0.0000000000000000e+00 -1.1599997236533310e+01 +1.1260542993375429e-02 -1.0316011153825704e+00 -5.8903147837968101e-02
-1.1699999999999974e+01 +9.1334457569229599e+00 +0.0000000000000000e+00 -1.1699997164439550e+01 +1.1260646802864439e-02 -1.0316036019791524e+00 -5.8903694368991746e-02
