# multipoles
# s[mm] polynom_b[n=0][T/m^n] polynom_b[n=1][T/m^n] polynom_b[n=2][T/m^n] polynom_b[n=3][T/m^n] polynom_b[n=4][T/m^n] polynom_b[n=5][T/m^n] polynom_b[n=6][T/m^n] 
+0.0000000000000000e+00 -1.0311665126130942e+00 +2.2854181607655799e+00 +2.1629912197246149e+01 +1.7288331132858741e+02 -3.4877887558846436e+04 -3.6676809952365246e+05 +2.1473034348360431e+08 
-1.0000000000000001e-01 -1.0311698838369134e+00 +2.2855433237203719e+00 +2.1766472092231147e+01 +1.7035212468354723e+02 -3.6613087547325013e+04 -3.5155095687828702e+05 +2.2047702712230065e+08 
-2.0000000000000001e-01 -1.0311732928902420e+00 +2.2856691141098984e+00 +2.1902045612600350e+01 +1.6776968840641047e+02 -3.8312944217683675e+04 -3.3600781910774758e+05 +2.2599935001803654e+08 
-3.0000000000000004e-01 -1.0311767304193211e+00 +2.2857946803657345e+00 +2.2036029883265318e+01 +1.6514838626297191e+02 -3.9968148442918333e+04 -3.2019724044564937e+05 +2.3125849994515735e+08 
-4.0000000000000002e-01 -1.0311801870704242e+00 +2.2859191709124693e+00 +2.2167822037073375e+01 +1.6250060208626309e+02 -4.1569391299907453e+04 -3.0417777440981450e+05 +2.3621566589193290e+08 
-5.0000000000000000e-01 -1.0311836534898757e+00 +2.2860417341795665e+00 +2.2296819219010466e+01 +1.5983871942621917e+02 -4.3107364162894046e+04 -2.8800797169138322e+05 +2.4083203854579139e+08 
-5.9999999999999998e-01 -1.0311871203240517e+00 +2.2861615186126154e+00 +2.2422418587151206e+01 +1.5717512120498753e+02 -4.4572758725447849e+04 -2.7174637804121745e+05 +2.4506881041511089e+08 
-6.9999999999999996e-01 -1.0311905782193080e+00 +2.2862776726842298e+00 +2.2544017303992696e+01 +1.5452218940362874e+02 -4.5956266841013166e+04 -2.5545153239569702e+05 +2.4888717509376177e+08 
-7.9999999999999993e-01 -1.0311940178220900e+00 +2.2863893449043351e+00 +2.2661012551441686e+01 +1.5189230475250682e+02 -4.7248580817995462e+04 -2.3918196499087455e+05 +2.5224832869890788e+08 
-8.9999999999999991e-01 -1.0311974297788080e+00 +2.2864956838331016e+00 +2.2772801515953539e+01 +1.4929784634260326e+02 -4.8440393138730229e+04 -2.2299619499338820e+05 +2.5511346854322162e+08 
-9.9999999999999989e-01 -1.0312008047358963e+00 +2.2865958380888460e+00 +2.2878781396383836e+01 +1.4675119139576219e+02 -4.9522396617954626e+04 -2.0695272912800807e+05 +2.5744379392331916e+08 
-1.0999999999999999e+00 -1.0312041333397854e+00 +2.2866889563682165e+00 +2.2978349402236422e+01 +1.4426471466933987e+02 -5.0485284377106407e+04 -1.9111005810537143e+05 +2.5920050602284697e+08 
-1.2000000000000000e+00 -1.0312074062369263e+00 +2.2867741874414103e+00 +2.3070902756247200e+01 +1.4185078858309865e+02 -5.1319749895047658e+04 -1.7552665728314657e+05 +2.6034480816692734e+08 
-1.3000000000000000e+00 -1.0312106140736954e+00 +2.2868506801801853e+00 +2.3155838684494878e+01 +1.3952178240833149e+02 -5.2016486830210313e+04 -1.6026098189467969e+05 +2.6083790500782990e+08 
-1.4000000000000001e+00 -1.0312137474965133e+00 +2.2869175835565998e+00 +2.3232554431841784e+01 +1.3729006227450435e+02 -5.2566189321461323e+04 -1.4537146694337999e+05 +2.6064100398456120e+08 
-1.5000000000000002e+00 -1.0312167971517643e+00 +2.2869740466588180e+00 +2.3300447252466533e+01 +1.3516799073403664e+02 -5.2959551814157734e+04 -1.3091652466694612e+05 +2.5971531452134371e+08 
-1.6000000000000003e+00 -1.0312197563999059e+00 +2.2870195739125974e+00 +2.3359089548018751e+01 +1.3316194767483086e+02 -5.3190265688575746e+04 -1.1692374441144458e+05 +2.5803574433009416e+08 
-1.7000000000000004e+00 -1.0312226294617359e+00 +2.2870550741900928e+00 +2.3408748287122911e+01 +1.3125522765909807e+02 -5.3263911448253675e+04 -1.0330261542508120e+05 +2.5563148466091731e+08 
-1.8000000000000005e+00 -1.0312254232746521e+00 +2.2870818035366751e+00 +2.3449862675639004e+01 +1.2942555893160269e+02 -5.3189019944217041e+04 -8.9934349356452411e+04 +2.5254518518936506e+08 
-1.9000000000000006e+00 -1.0312281447761649e+00 +2.2871010180390812e+00 +2.3482871934193266e+01 +1.2765066850501495e+02 -5.2974122309857812e+04 -7.6700150574001731e+04 +2.4881949691524184e+08 
-2.0000000000000004e+00 -1.0312308009038020e+00 +2.2871139738381152e+00 +2.3508215285370810e+01 +1.2590828180211297e+02 -5.2627749707995725e+04 -6.3481214285393879e+04 +2.4449707091628802e+08 
-2.1000000000000005e+00 -1.0312333985952113e+00 +2.2871219271066723e+00 +2.3526331964856261e+01 +1.2417612331593989e+02 -5.2158433534065916e+04 -5.0158730578589326e+04 +2.3962055927550459e+08 
-2.2000000000000006e+00 -1.0312359447881374e+00 +2.2871261340637776e+00 +2.3537661218147964e+01 +1.2243191622571391e+02 -5.1574705335089049e+04 -3.6613882403098207e+04 +2.3423261461514029e+08 
-2.3000000000000007e+00 -1.0312384464203874e+00 +2.2871278509593087e+00 +2.3542642293658727e+01 +1.2065338285237873e+02 -5.0885096667921091e+04 -2.2727848389244769e+04 +2.2837588938252008e+08 
-2.4000000000000008e+00 -1.0312409104298768e+00 +2.2871283340759141e+00 +2.3541714448472934e+01 +1.1881824462598549e+02 -5.0098139199100682e+04 -8.3818028570455008e+03 +2.2209303627318108e+08 
-2.5000000000000009e+00 -1.0312433437546247e+00 +2.2871288397245482e+00 +2.3535316945953195e+01 +1.1690422223518837e+02 -4.9222364643574954e+04 +6.5430831016714073e+03 +2.1542670787614736e+08 
-2.6000000000000010e+00 -1.0312457533328419e+00 +2.2871306242484999e+00 +2.3523889065388438e+01 +1.1488903552586336e+02 -4.8266304936904337e+04 +2.2165642040071256e+04 +2.0841955744402930e+08 
-2.7000000000000011e+00 -1.0312481461027689e+00 +2.2871349440042934e+00 +2.3507870081620386e+01 +1.1275040408102075e+02 -4.7238491841392737e+04 +3.8604706559886305e+04 +2.0111423697898102e+08 
-2.8000000000000012e+00 -1.0312505290028435e+00 +2.2871430553772929e+00 +2.3487699282613168e+01 +1.1046604678755482e+02 -4.6147457254911918e+04 +5.5979111644947574e+04 +1.9355339861434370e+08 
-2.9000000000000012e+00 -1.0312529089716185e+00 +2.2871562147664668e+00 +2.3463815960049367e+01 +1.0801368228252782e+02 -4.5001733032602788e+04 +7.4407691906502558e+04 +1.8577969374613917e+08 
-3.0000000000000013e+00 -1.0312552929478136e+00 +2.2871756785859914e+00 +2.3436659414018120e+01 +1.0537102894749840e+02 -4.3809851059995803e+04 +9.4009281360605368e+04 +1.7783577331708607e+08 
-3.1000000000000014e+00 -1.0312576878703252e+00 +2.2872027032612960e+00 +2.3406668951999578e+01 +1.0251580503017284e+02 -4.2580343214997760e+04 +1.1490271256332620e+05 +1.6976428756371239e+08 
-3.2000000000000015e+00 -1.0312601006781543e+00 +2.2872385452254651e+00 +2.3374283880009891e+01 +9.9425728766291144e+01 -4.1321741197397685e+04 +1.3720681570467202e+05 +1.6160788518083429e+08 
-3.3000000000000016e+00 -1.0312625383105394e+00 +2.2872844609150849e+00 +2.3339943516954079e+01 +9.6078518537655256e+01 -4.0042576781575539e+04 +1.6104041745044908e+05 +1.5340921444626161e+08 
-3.4000000000000017e+00 -1.0312650077068910e+00 +2.2873417067724193e+00 +2.3304087186202946e+01 +9.2451892798497894e+01 -3.8751381649002637e+04 +1.8652234125208904e+05 +1.4521092238267657e+08 
-3.5000000000000018e+00 -1.0312675158067754e+00 +2.2874115392306753e+00 +2.3267154210546245e+01 +8.8523570609707349e+01 -3.7456687263388972e+04 +2.1377140380875143e+05 +1.3705565406016919e+08 
-3.6000000000000019e+00 -1.0312700677720370e+00 +2.2874948540156872e+00 +2.3229502302256250e+01 +8.4278806128446874e+01 -3.6165372259275311e+04 +2.4286728489762923e+05 +1.2897750676580071e+08 
-3.7000000000000020e+00 -1.0312726617379724e+00 +2.2875911211262845e+00 +2.3191190279323809e+01 +7.9730677739055110e+01 -3.4878261442927993e+04 +2.7374938799735863e+05 +1.2097920130172834e+08 
-3.8000000000000020e+00 -1.0312752941049450e+00 +2.2876994567328643e+00 +2.3152209164044759e+01 +7.4898683898136184e+01 -3.3594801104675367e+04 +3.0632583269178722e+05 +1.1305628324259494e+08 
-3.9000000000000021e+00 -1.0312779612733425e+00 +2.2878189770162773e+00 +2.3112549988324105e+01 +6.9802322721733560e+01 -3.2314437811156018e+04 +3.4050474064229568e+05 +1.0520429978647171e+08 
-4.0000000000000018e+00 -1.0312806596435167e+00 +2.2879487981739657e+00 +2.3072203786888640e+01 +6.4461091850128369e+01 -3.1036618294154050e+04 +3.7619423651390919e+05 +9.7418799272116914e+07 
-4.1000000000000014e+00 -1.0312833856158177e+00 +2.2880880364181513e+00 +2.3031161602523181e+01 +5.8894488507884297e+01 -2.9760789561292208e+04 +4.1330244764993474e+05 +8.9695331745730862e+07 
-4.2000000000000011e+00 -1.0312861355905496e+00 +2.2882358079683884e+00 +2.2989414480518466e+01 +5.3122009727631628e+01 -2.8486398795614365e+04 +4.5173750280076766e+05 +8.2029448504784748e+07 
-4.3000000000000007e+00 -1.0312889059679495e+00 +2.2883912290585862e+00 +2.2946953467616527e+01 +4.7163152133565866e+01 -2.7212893347317713e+04 +4.9140753345894179e+05 +7.4416702098650098e+07 
-4.4000000000000004e+00 -1.0312916931482601e+00 +2.2885534159324132e+00 +2.2903769620505198e+01 +4.1037412077513224e+01 -2.5939720901949517e+04 +5.3222067311965663e+05 +6.6852647160664745e+07 
-4.5000000000000000e+00 -1.0312944935316202e+00 +2.2887214848375463e+00 +2.2859853994339975e+01 +3.4764285789839384e+01 -2.4666329276462697e+04 +5.7408505648260179e+05 +5.9332839481204174e+07 
-4.5999999999999996e+00 -1.0312973035181283e+00 +2.2888945520339310e+00 +2.2815197650000297e+01 +2.8363269171275022e+01 -2.3392166559293975e+04 +6.1690882063278253e+05 +5.1852836689516909e+07 
-4.6999999999999993e+00 -1.0313001195078668e+00 +2.2890717337858923e+00 +2.2769791658681505e+01 +2.1853857988905936e+01 -2.2116681214304383e+04 +6.6060010403375514e+05 +4.4408198805966876e+07 
-4.7999999999999989e+00 -1.0313029379007650e+00 +2.2892521463608575e+00 +2.2723627085009298e+01 +1.5255547922315110e+01 -2.0839321761442876e+04 +7.0506704628399503e+05 +3.6994486729889907e+07 
-4.8999999999999986e+00 -1.0313057550967049e+00 +2.2894349060303689e+00 +2.2676695001283004e+01 +8.5878345496324453e+00 -1.9559537064080996e+04 +7.5021778819918202e+05 +2.9607263667632654e+07 
-4.9999999999999982e+00 -1.0313085674954854e+00 +2.2896191290678010e+00 +2.2628986483314730e+01 +1.8702133762840107e+00 -1.8276776254915902e+04 +7.9596047180403559e+05 +2.2242094798647340e+07 
-5.0999999999999979e+00 -1.0313113714968110e+00 +2.2898039317450913e+00 +2.2580492609183707e+01 -4.8778200330843147e+00 -1.6990488715677144e+04 +8.4220323950740765e+05 +1.4894547196407830e+07 
-5.1999999999999975e+00 -1.0313141635002971e+00 +2.2899884303397693e+00 +2.2531204462511191e+01 -1.1636770287658376e+01 -1.5700124165558238e+04 +8.8885423557697725e+05 +7.5601903328931984e+06 
-5.2999999999999972e+00 -1.0313169399054258e+00 +2.2901717411243432e+00 +2.2481113125219576e+01 -1.8387141848000052e+01 -1.4405132513430692e+04 +9.3582160428468895e+05 +2.3459535313429529e+05 
-5.3999999999999968e+00 -1.0313196971115866e+00 +2.2903529803653937e+00 +2.2430209684806268e+01 -2.5109439011516482e+01 -1.3104964017427341e+04 +9.8301348989351245e+05 -7.0866640962427482e+06 
-5.4999999999999964e+00 -1.0313224315180427e+00 +2.2905312643386195e+00 +2.2378485231488671e+01 -3.1784166372177808e+01 -1.1799069252125100e+04 +1.0303380386560869e+06 -1.4408012020233339e+07 
-5.5999999999999961e+00 -1.0313251407867821e+00 +2.2907056624733695e+00 +2.2325991221651819e+01 -3.8390483233868054e+01 -1.0487911784150221e+04 +1.0776908316719832e+06 -2.1729311884614054e+07 
-5.6999999999999957e+00 -1.0313278273783573e+00 +2.2908750648261620e+00 +2.2272987859036430e+01 -4.4901382527497567e+01 -9.1753790586206323e+03 +1.1249120831328216e+06 -2.9034884930770215e+07 
-5.7999999999999954e+00 -1.0313304948897632e+00 +2.2910383203431071e+00 +2.2219779310531539e+01 -5.1288156078585963e+01 -7.8660606704478087e+03 +1.1718269189100161e+06 -3.6305819026902929e+07 
-5.8999999999999950e+00 -1.0313331469174551e+00 +2.2911942778235899e+00 +2.2166669676122424e+01 -5.7522090971433322e+01 -6.5645448916038749e+03 +1.2182604340084952e+06 -4.3523208531954244e+07 
-5.9999999999999947e+00 -1.0313357870572375e+00 +2.2913417859138323e+00 +2.2113962975485109e+01 -6.3574469441990864e+01 -5.2754184105358490e+03 +1.2640376923560200e+06 -5.0668155584590070e+07 
-6.0999999999999943e+00 -1.0313384189043839e+00 +2.2914796931009698e+00 +2.2061963163519355e+01 -6.9416568692699030e+01 -4.0032666176402117e+03 +1.3089837256346343e+06 -5.7721768783291876e+07 
-6.1999999999999940e+00 -1.0313410460534687e+00 +2.2916068477013680e+00 +2.2010974108080966e+01 -7.5019660546343587e+01 -2.7526731774066034e+03 +1.3529235311613008e+06 -6.4665165231894858e+07 
-6.2999999999999936e+00 -1.0313436720984348e+00 +2.2917220978590436e+00 +2.1961299599436146e+01 -8.0355011386573068e+01 -1.5282202068496831e+03 +1.3956820714514067e+06 -7.1479469701375097e+07 
-6.3999999999999932e+00 -1.0313463006325110e+00 +2.2918242915377314e+00 +2.1913243339216795e+01 -8.5393881895098303e+01 -3.3448805593366012e+02 +1.4370842725158439e+06 -7.8145815703647912e+07 
-6.4999999999999929e+00 -1.0313489352482348e+00 +2.2919122765076883e+00 +2.1867108943144899e+01 -9.0107526682815504e+01 +8.2394464323022191e+02 +1.4769550216947787e+06 -8.4645345269028082e+07 
-6.5999999999999925e+00 -1.0313515795374317e+00 +2.2919849003498656e+00 +2.1823199938630172e+01 -9.4467194358972932e+01 +1.9425010272561703e+03 +1.5151191678372256e+06 -9.0959209206269592e+07 
-6.6999999999999922e+00 -1.0313542370911231e+00 +2.2920410104398501e+00 +2.1781819753010538e+01 -9.8444127095901848e+01 +3.0166062299160326e+03 +1.5514015187959617e+06 -9.7068568206231609e+07 
-6.7999999999999918e+00 -1.0313569114995920e+00 +2.2920794539435971e+00 +2.1743271721874397e+01 -1.0200956045156148e+02 +4.0416872280535649e+03 +1.5856268401694889e+06 -1.0295459212514327e+08 
-6.8999999999999915e+00 -1.0313596063522648e+00 +2.2920990778116113e+00 +2.1707859073440670e+01 -1.0513472320262993e+02 +5.0131731486089766e+03 +1.6176198542628060e+06 -1.0859846147526419e+08 
-6.9999999999999911e+00 -1.0313623252377941e+00 +2.2920987287703976e+00 +2.1675884939792663e+01 -1.0779083707993877e+02 +5.9264950516882718e+03 +1.6472052384516415e+06 -1.1398136638884564e+08 
-7.0999999999999908e+00 -1.0313650717439355e+00 +2.2920772533176170e+00 +2.1647652340392391e+01 -1.0994911661497132e+02 +6.7770862570260970e+03 +1.6742076241618281e+06 -1.1908450820967570e+08 
-7.1999999999999904e+00 -1.0313678494575587e+00 +2.2920334977120840e+00 +2.1623464184116031e+01 -1.1158076883558272e+02 +7.5603823065756178e+03 +1.6984515950075963e+06 -1.2388909932402612e+08 
-7.2999999999999901e+00 -1.0313706619646787e+00 +2.2919663079721024e+00 +2.1603623273097448e+01 -1.1265699319169609e+02 +8.2718208926304524e+03 +1.7197616862087138e+06 -1.2837636282472935e+08 
-7.3999999999999897e+00 -1.0313735128503498e+00 +2.2918745298607965e+00 +2.1588432288686089e+01 -1.1314898112978483e+02 +8.9068421369226744e+03 +1.7379623820551978e+06 -1.3252753387650058e+08 
-7.4999999999999893e+00 -1.0313764056985959e+00 +2.2917570088836623e+00 +2.1578193782360874e+01 -1.1302791619819514e+02 +9.4608887489735480e+03 +1.7528781170787450e+06 -1.3632386040342170e+08 
-7.5999999999999890e+00 -1.0313793427043219e+00 +2.2916131051138056e+00 +2.1573082294440354e+01 -1.1227650493212001e+02 +9.9313402880291014e+03 +1.7643931253923397e+06 -1.3975449881300238e+08 
-7.6999999999999886e+00 -1.0313823207195223e+00 +2.2914443129389972e+00 +2.1572741940173106e+01 -1.1092375171623755e+02 +1.0323782122972911e+04 +1.7726283734143928e+06 -1.4284272231042504e+08 
-7.7999999999999883e+00 -1.0313853353019542e+00 +2.2912526845855794e+00 +2.1576677446585304e+01 -1.0901041181049273e+02 +1.0646002855385232e+04 +1.7777641641056738e+06 -1.4562112040590924e+08 
-7.8999999999999879e+00 -1.0313883820098837e+00 +2.2910402724687655e+00 +2.1584393567113693e+01 -1.0657724523222518e+02 +1.0905790887404410e+04 +1.7799808255761529e+06 -1.4812228241158053e+08 
-7.9999999999999876e+00 -1.0313914564021862e+00 +2.2908091291810213e+00 +2.1595395097678388e+01 -1.0366501660358405e+02 +1.1110934122615759e+04 +1.7794587096424801e+06 -1.5037879595891741e+08 
-8.0999999999999872e+00 -1.0313945540383260e+00 +2.2905613074901927e+00 +2.1609186872847982e+01 -1.0031449509149994e+02 +1.1269220051609058e+04 +1.7763781914354565e+06 -1.5242324743656871e+08 
-8.1999999999999869e+00 -1.0313976704784238e+00 +2.2902988603570047e+00 +2.1625273773106240e+01 -9.6566454902669278e+01 +1.1388435621603776e+04 +1.7709196722193449e+06 -1.5428822138356215e+08 
-8.2999999999999865e+00 -1.0314008012832541e+00 +2.2900238409364899e+00 +2.1643160723948775e+01 -9.2461675319170809e+01 +1.1476367260908157e+04 +1.7632635795607588e+06 -1.5600630062018153e+08 
-8.3999999999999861e+00 -1.0314039420142809e+00 +2.2897383025834066e+00 +2.1662352698652811e+01 -8.8040940844602062e+01 +1.1540800840996400e+04 +1.7535903681336299e+06 -1.5761006610305640e+08 
-8.4999999999999858e+00 -1.0314070882336723e+00 +2.2894442988697428e+00 +2.1682354719306485e+01 -8.3345041699344392e+01 +1.1589521661349787e+04 +1.7420805225285685e+06 -1.5913209685738292e+08 
-8.5999999999999854e+00 -1.0314102355043533e+00 +2.2891438835747926e+00 +2.1702671861903912e+01 -7.8414773528343090e+01 +1.1630314366990169e+04 +1.7289145555276489e+06 -1.6060496961892071e+08 
-8.6999999999999851e+00 -1.0314133793899927e+00 +2.2888391107096320e+00 +2.1722809254336127e+01 -7.3290938100152303e+01 +1.1670962993152851e+04 +1.7142730121130820e+06 -1.6206125905892840e+08 
-8.7999999999999847e+00 -1.0314165154550912e+00 +2.2885320345114857e+00 +2.1742272085623593e+01 -6.8014343117826655e+01 +1.1719250798561698e+04 +1.6983364682761717e+06 -1.6353353700769749e+08 
-8.8999999999999844e+00 -1.0314196392649089e+00 +2.2882247094577606e+00 +2.1760565596127496e+01 -6.2625802645226585e+01 +1.1782960464905223e+04 +1.6812855335253368e+06 -1.6505437343589261e+08 
-8.9999999999999840e+00 -1.0314227463856267e+00 +2.2879191902729166e+00 +2.1777195096169244e+01 -5.7166137271405425e+01 +1.1869873749024850e+04 +1.6633008517168302e+06 -1.6665633480825719e+08 
-9.0999999999999837e+00 -1.0314258323842176e+00 +2.2876175319320380e+00 +2.1791665949647136e+01 -5.1676174224006317e+01 +1.1987771804772223e+04 +1.6445631017340983e+06 -1.6837198564051071e+08 
-9.1999999999999833e+00 -1.0314288928286268e+00 +2.2873217896695914e+00 +2.1803483594859010e+01 -4.6196747590169359e+01 +1.2144434795755118e+04 +1.6252529986351791e+06 -1.7023388667151007e+08 
-9.2999999999999829e+00 -1.0314319232876574e+00 +2.2870340189870375e+00 +2.1812153528716301e+01 -4.0768698549990070e+01 +1.2347642211537794e+04 +1.6055512950473689e+06 -1.7227459640891582e+08 
-9.3999999999999826e+00 -1.0314349193311050e+00 +2.2867562756641515e+00 +2.1817181323558092e+01 -3.5432875686169176e+01 +1.2605172546399726e+04 +1.5856387828752021e+06 -1.7452666958734134e+08 
-9.4999999999999822e+00 -1.0314378765297552e+00 +2.2864906157560436e+00 +2.1818072624715395e+01 -3.0230134830594533e+01 +1.2924803386580343e+04 +1.5656962955949954e+06 -1.7702265740116781e+08 
-9.5999999999999819e+00 -1.0314407913133024e+00 +2.2862387278235561e+00 +2.1814461805865168e+01 -2.5194178988814688e+01 +1.3312222926274540e+04 +1.5458747613533272e+06 -1.7978603592517033e+08 
-9.6999999999999815e+00 -1.0314436636713971e+00 +2.2860006289230537e+00 +2.1806562159986754e+01 -2.0327689204251950e+01 +1.3763522897697228e+04 +1.5261948808220259e+06 -1.8279850537070432e+08 
-9.7999999999999812e+00 -1.0314464945254018e+00 +2.2857758578637437e+00 +2.1794750745442627e+01 -1.5624811612759981e+01 +1.4272037385670150e+04 +1.5066415785868128e+06 -1.8602972718701148e+08 
-9.8999999999999808e+00 -1.0314492847965731e+00 +2.2855639533297603e+00 +2.1779404626346174e+01 -1.1079689782369305e+01 +1.4831100365070273e+04 +1.4871997665367043e+06 -1.8944936231963259e+08 
-9.9999999999999805e+00 -1.0314520354060306e+00 +2.2853644539376408e+00 +2.1760900858916173e+01 -6.6864655673209787e+00 +1.5434045916628613e+04 +1.4678543478722204e+06 -1.9302707213589111e+08 
-1.0099999999999980e+01 -1.0314547472748028e+00 +2.2851768982265170e+00 +2.1739616496757979e+01 -2.4392788151176164e+00 +1.6074208126619227e+04 +1.4485902154146773e+06 -1.9673251794758618e+08 
