# field on trajectory
# s[mm] rx[mm] ry[mm] rz[mm] bx[T] by[T] bz[T]
0.0000000000000000e+00 +9.1264000000000003e+00 +0.0000000000000000e+00 +0.0000000000000000e+00 +1.0817311625266402e-02 -1.0325220642920589e+00 -5.9207190784439465e-02
-1.0000000000000001e-01 +9.1263994840968170e+00 +0.0000000000000000e+00 -9.9999999998225619e-02 +1.0817482004474027e-02 -1.0325178107632302e+00 -5.9208124170023739e-02
-2.0000000000000001e-01 +9.1263979363900916e+00 +0.0000000000000000e+00 -1.9999999998580503e-01 +1.0817660215896358e-02 -1.0325136132846782e+00 -5.9209056325937398e-02
-3.0000000000000004e-01 +9.1263953568840179e+00 +0.0000000000000000e+00 -2.9999999995209214e-01 +1.0817843499098033e-02 -1.0325094748119059e+00 -5.9209986288009983e-02
-4.0000000000000002e-01 +9.1263917455827315e+00 +0.0000000000000000e+00 -3.9999999988644108e-01 +1.0818029093655784e-02 -1.0325053983004080e+00 -5.9210913092085746e-02
-5.0000000000000000e-01 +9.1263871024903054e+00 +0.0000000000000000e+00 -4.9999999977820597e-01 +1.0818214239150284e-02 -1.0325013867057953e+00 -5.9211835774017667e-02
-5.9999999999999998e-01 +9.1263814276107507e+00 +0.0000000000000000e+00 -5.9999999961674111e-01 +1.0818396175158064e-02 -1.0324974429839286e+00 -5.9212753369661912e-02
-6.9999999999999996e-01 +9.1263747209480073e+00 +0.0000000000000000e+00 -6.9999999939140090e-01 +1.0818572141243385e-02 -1.0324935700910491e+00 -5.9213664914871879e-02
-7.9999999999999993e-01 +9.1263669825059459e+00 +0.0000000000000000e+00 -7.9999999909153985e-01 +1.0818739376950125e-02 -1.0324897709839049e+00 -5.9214569445492492e-02
-8.9999999999999991e-01 +9.1263582122883644e+00 +0.0000000000000000e+00 -8.9999999870651270e-01 +1.0818895121793659e-02 -1.0324860486198835e+00 -5.9215465997354361e-02
-9.9999999999999989e-01 +9.1263484102989825e+00 +0.0000000000000000e+00 -9.9999999822567420e-01 +1.0819036615252773e-02 -1.0324824059571416e+00 -5.9216353606268042e-02
-1.0999999999999999e+00 +9.1263375765414416e+00 +0.0000000000000000e+00 -1.0999999976383792e+00 +1.0819161096761518e-02 -1.0324788459547354e+00 -5.9217231308018245e-02
-1.2000000000000000e+00 +9.1263257110192999e+00 +0.0000000000000000e+00 -1.1999999969339825e+00 +1.0819265805701113e-02 -1.0324753715727475e+00 -5.9218098138358065e-02
-1.3000000000000000e+00 +9.1263128137360319e+00 +0.0000000000000000e+00 -1.2999999961018394e+00 +1.0819347981391853e-02 -1.0324719857724216e+00 -5.9218953133003190e-02
-1.4000000000000001e+00 +9.1262988846950197e+00 +0.0000000000000000e+00 -1.3999999951313049e+00 +1.0819404863084966e-02 -1.0324686915162888e+00 -5.9219795327626029e-02
-1.5000000000000002e+00 +9.1262839238995586e+00 +0.0000000000000000e+00 -1.4999999940117343e+00 +1.0819433689954526e-02 -1.0324654917682996e+00 -5.9220623757850137e-02
-1.6000000000000003e+00 +9.1262679313528459e+00 +0.0000000000000000e+00 -1.5999999927324831e+00 +1.0819432632498030e-02 -1.0324623879920038e+00 -5.9221437765777520e-02
-1.7000000000000004e+00 +9.1262509070579867e+00 +0.0000000000000000e+00 -1.6999999912829065e+00 +1.0819403586786597e-02 -1.0324593756444664e+00 -5.9222237919583920e-02
-1.8000000000000005e+00 +9.1262328510179920e+00 +0.0000000000000000e+00 -1.7999999896523600e+00 +1.0819349380292262e-02 -1.0324564486815131e+00 -5.9223025093914708e-02
-1.9000000000000006e+00 +9.1262137632357909e+00 +0.0000000000000000e+00 -1.8999999878301992e+00 +1.0819272840492408e-02 -1.0324536010595571e+00 -5.9223800163346232e-02
-2.0000000000000004e+00 +9.1261936437142310e+00 +0.0000000000000000e+00 -1.9999999858057800e+00 +1.0819176794875996e-02 -1.0324508267355597e+00 -5.9224564002380437e-02
-2.1000000000000005e+00 +9.1261724924560870e+00 +0.0000000000000000e+00 -2.0999999835684577e+00 +1.0819064070949864e-02 -1.0324481196669908e+00 -5.9225317485439535e-02
-2.2000000000000006e+00 +9.1261503094640677e+00 +0.0000000000000000e+00 -2.1999999811075885e+00 +1.0818937496244931e-02 -1.0324454738117899e+00 -5.9226061486860541e-02
-2.3000000000000007e+00 +9.1261270947408182e+00 +0.0000000000000000e+00 -2.2999999784125280e+00 +1.0818799898322502e-02 -1.0324428831283283e+00 -5.9226796880889811e-02
-2.4000000000000008e+00 +9.1261028482889319e+00 +0.0000000000000000e+00 -2.3999999754726322e+00 +1.0818654104780492e-02 -1.0324403415753693e+00 -5.9227524541677880e-02
-2.5000000000000009e+00 +9.1260775701109509e+00 +0.0000000000000000e+00 -2.4999999722772572e+00 +1.0818502943259679e-02 -1.0324378431120276e+00 -5.9228245343273749e-02
-2.6000000000000010e+00 +9.1260512602093762e+00 +0.0000000000000000e+00 -2.5999999688157591e+00 +1.0818349241449971e-02 -1.0324353816977339e+00 -5.9228960159619752e-02
-2.7000000000000011e+00 +9.1260239185866698e+00 +0.0000000000000000e+00 -2.6999999650774940e+00 +1.0818195827096646e-02 -1.0324329512921928e+00 -5.9229669864545996e-02
-2.8000000000000012e+00 +9.1259955452452637e+00 +0.0000000000000000e+00 -2.7999999610518178e+00 +1.0818045528006599e-02 -1.0324305458553449e+00 -5.9230375331764999e-02
-2.9000000000000012e+00 +9.1259661401875665e+00 +0.0000000000000000e+00 -2.8999999567280872e+00 +1.0817901172054584e-02 -1.0324281593473277e+00 -5.9231077434866324e-02
-3.0000000000000013e+00 +9.1259357034159656e+00 +0.0000000000000000e+00 -2.9999999520956582e+00 +1.0817765587189481e-02 -1.0324257857284382e+00 -5.9231777047311078e-02
-3.1000000000000014e+00 +9.1259042349328361e+00 +0.0000000000000000e+00 -3.0999999471438873e+00 +1.0817641601440515e-02 -1.0324234189590902e+00 -5.9232475042426659e-02
-3.2000000000000015e+00 +9.1258717347405476e+00 +0.0000000000000000e+00 -3.1999999418621310e+00 +1.0817532042923515e-02 -1.0324210529997784e+00 -5.9233172293401137e-02
-3.3000000000000016e+00 +9.1258382028414697e+00 +0.0000000000000000e+00 -3.2999999362397459e+00 +1.0817439739847140e-02 -1.0324186818110397e+00 -5.9233869673278067e-02
-3.4000000000000017e+00 +9.1258036392379740e+00 +0.0000000000000000e+00 -3.3999999302660888e+00 +1.0817367520519136e-02 -1.0324162993534116e+00 -5.9234568054950899e-02
-3.5000000000000018e+00 +9.1257680439324478e+00 +0.0000000000000000e+00 -3.4999999239305164e+00 +1.0817318213352547e-02 -1.0324138995873948e+00 -5.9235268311157621e-02
-3.6000000000000019e+00 +9.1257314169272910e+00 +0.0000000000000000e+00 -3.5999999172223851e+00 +1.0817293765390359e-02 -1.0324114785283431e+00 -5.9235970834914324e-02
-3.7000000000000020e+00 +9.1256937582249282e+00 +0.0000000000000000e+00 -3.6999999101310519e+00 +1.0817292597813407e-02 -1.0324090404114628e+00 -5.9236674100889210e-02
-3.8000000000000020e+00 +9.1256550678277986e+00 +0.0000000000000000e+00 -3.7999999026458742e+00 +1.0817312250311692e-02 -1.0324065915274272e+00 -5.9237376104206506e-02
-3.9000000000000021e+00 +9.1256153457383533e+00 +0.0000000000000000e+00 -3.8999998947562085e+00 +1.0817350262556032e-02 -1.0324041381675053e+00 -5.9238074840034356e-02
-4.0000000000000018e+00 +9.1255745919590474e+00 +0.0000000000000000e+00 -3.9999998864514121e+00 +1.0817404174194941e-02 -1.0324016866235726e+00 -5.9238768303593078e-02
-4.1000000000000014e+00 +9.1255328064923340e+00 +0.0000000000000000e+00 -4.0999998777208422e+00 +1.0817471524851581e-02 -1.0323992431881202e+00 -5.9239454490163684e-02
-4.2000000000000011e+00 +9.1254899893406591e+00 +0.0000000000000000e+00 -4.1999998685538555e+00 +1.0817549854120648e-02 -1.0323968141542674e+00 -5.9240131395096263e-02
-4.3000000000000007e+00 +9.1254461405064546e+00 +0.0000000000000000e+00 -4.2999998589398105e+00 +1.0817636701565291e-02 -1.0323944058157715e+00 -5.9240797013818403e-02
-4.4000000000000004e+00 +9.1254012599921310e+00 +0.0000000000000000e+00 -4.3999998488680641e+00 +1.0817729606714033e-02 -1.0323920244670366e+00 -5.9241449341843562e-02
-4.5000000000000000e+00 +9.1253553478000722e+00 +0.0000000000000000e+00 -4.4999998383279731e+00 +1.0817826109057675e-02 -1.0323896764031240e+00 -5.9242086374779603e-02
-4.5999999999999996e+00 +9.1253084039326282e+00 +0.0000000000000000e+00 -4.5999998273088956e+00 +1.0817923748046236e-02 -1.0323873679197655e+00 -5.9242706108337095e-02
-4.6999999999999993e+00 +9.1252604283921119e+00 +0.0000000000000000e+00 -4.6999998158001892e+00 +1.0818020063085848e-02 -1.0323851053133690e+00 -5.9243306538337738e-02
-4.7999999999999989e+00 +9.1252114211807882e+00 +0.0000000000000000e+00 -4.7999998037912111e+00 +1.0818112593535703e-02 -1.0323828948810330e+00 -5.9243885660722959e-02
-4.8999999999999986e+00 +9.1251613823008704e+00 +0.0000000000000000e+00 -4.8999997912713189e+00 +1.0818198878704947e-02 -1.0323807429205540e+00 -5.9244441471562034e-02
-4.9999999999999982e+00 +9.1251103117545149e+00 +0.0000000000000000e+00 -4.9999997782298706e+00 +1.0818276457849647e-02 -1.0323786557304389e+00 -5.9244971967060876e-02
-5.0999999999999979e+00 +9.1250582095438109e+00 +0.0000000000000000e+00 -5.0999997646562241e+00 +1.0818342870169674e-02 -1.0323766396099130e+00 -5.9245475143570168e-02
-5.1999999999999975e+00 +9.1250050756707779e+00 +0.0000000000000000e+00 -5.1999997505397371e+00 +1.0818395654805671e-02 -1.0323747008589330e+00 -5.9245948997593979e-02
-5.2999999999999972e+00 +9.1249509101373594e+00 +0.0000000000000000e+00 -5.2999997358697675e+00 +1.0818432350835962e-02 -1.0323728457781938e+00 -5.9246391525798109e-02
-5.3999999999999968e+00 +9.1248957129454151e+00 +0.0000000000000000e+00 -5.3999997206356731e+00 +1.0818450497273492e-02 -1.0323710806691426e+00 -5.9246800725018582e-02
-5.4999999999999964e+00 +9.1248394840967126e+00 +0.0000000000000000e+00 -5.4999997048268110e+00 +1.0818447633062769e-02 -1.0323694118339855e+00 -5.9247174592270045e-02
-5.5999999999999961e+00 +9.1247822235929270e+00 +0.0000000000000000e+00 -5.5999996884325398e+00 +1.0818422028644704e-02 -1.0323678442507616e+00 -5.9247511695882042e-02
-5.6999999999999957e+00 +9.1247239314356303e+00 +0.0000000000000000e+00 -5.6999996714422165e+00 +1.0818374880689291e-02 -1.0323663775986343e+00 -5.9247812888831290e-02
-5.7999999999999954e+00 +9.1246646076262934e+00 +0.0000000000000000e+00 -5.7999996538451999e+00 +1.0818308117386889e-02 -1.0323650102330237e+00 -5.9248079595212590e-02
-5.8999999999999950e+00 +9.1246042521662893e+00 +0.0000000000000000e+00 -5.8999996356308468e+00 +1.0818223666866605e-02 -1.0323637405106354e+00 -5.9248313239079552e-02
-5.9999999999999947e+00 +9.1245428650568954e+00 +0.0000000000000000e+00 -5.9999996167885152e+00 +1.0818123457193983e-02 -1.0323625667894893e+00 -5.9248515244442287e-02
-6.0999999999999943e+00 +9.1244804462992892e+00 +0.0000000000000000e+00 -6.0999995973075629e+00 +1.0818009416368733e-02 -1.0323614874289524e+00 -5.9248687035265313e-02
-6.1999999999999940e+00 +9.1244169958945562e+00 +0.0000000000000000e+00 -6.1999995771773477e+00 +1.0817883472322452e-02 -1.0323605007897689e+00 -5.9248830035465327e-02
-6.2999999999999936e+00 +9.1243525138436912e+00 +0.0000000000000000e+00 -6.2999995563872275e+00 +1.0817747552916337e-02 -1.0323596052340871e+00 -5.9248945668909002e-02
-6.3999999999999932e+00 +9.1242870001475946e+00 +0.0000000000000000e+00 -6.3999995349265602e+00 +1.0817603585938881e-02 -1.0323587991254966e+00 -5.9249035359410882e-02
-6.4999999999999929e+00 +9.1242204548070784e+00 +0.0000000000000000e+00 -6.4999995127847026e+00 +1.0817453499103619e-02 -1.0323580808290511e+00 -5.9249100530731083e-02
-6.5999999999999925e+00 +9.1241528778228691e+00 +0.0000000000000000e+00 -6.5999994899510126e+00 +1.0817299220046813e-02 -1.0323574487113056e+00 -5.9249142606573213e-02
-6.6999999999999922e+00 +9.1240842691956043e+00 +0.0000000000000000e+00 -6.6999994664148472e+00 +1.0817142676325168e-02 -1.0323569011403415e+00 -5.9249163010582043e-02
-6.7999999999999918e+00 +9.1240146289258401e+00 +0.0000000000000000e+00 -6.7999994421655652e+00 +1.0816985795413533e-02 -1.0323564364858004e+00 -5.9249163166341434e-02
-6.8999999999999915e+00 +9.1239439570140473e+00 +0.0000000000000000e+00 -6.8999994171925234e+00 +1.0816830504702630e-02 -1.0323560531189129e+00 -5.9249144497372043e-02
-6.9999999999999911e+00 +9.1238722534606165e+00 +0.0000000000000000e+00 -6.9999993914850789e+00 +1.0816678731496727e-02 -1.0323557494125295e+00 -5.9249108427129132e-02
-7.0999999999999908e+00 +9.1237995182658604e+00 +0.0000000000000000e+00 -7.0999993650325894e+00 +1.0816532403011362e-02 -1.0323555237411519e+00 -5.9249056379000374e-02
-7.1999999999999904e+00 +9.1237257514300119e+00 +0.0000000000000000e+00 -7.1999993378244120e+00 +1.0816393446371040e-02 -1.0323553744809608e+00 -5.9248989776303655e-02
-7.2999999999999901e+00 +9.1236509529532270e+00 +0.0000000000000000e+00 -7.2999993098499036e+00 +1.0816263788606912e-02 -1.0323553000098500e+00 -5.9248910042284747e-02
-7.3999999999999897e+00 +9.1235751228355895e+00 +0.0000000000000000e+00 -7.3999992810984221e+00 +1.0816145356654509e-02 -1.0323552987074529e+00 -5.9248818600115202e-02
-7.4999999999999893e+00 +9.1234982610771080e+00 +0.0000000000000000e+00 -7.4999992515593243e+00 +1.0816040077351406e-02 -1.0323553689551768e+00 -5.9248716872890059e-02
-7.5999999999999890e+00 +9.1234203676777206e+00 +0.0000000000000000e+00 -7.5999992212219682e+00 +1.0815949349248300e-02 -1.0323555085515010e+00 -5.9248605876558572e-02
-7.6999999999999886e+00 +9.1233414426372974e+00 +0.0000000000000000e+00 -7.6999991900757099e+00 +1.0815872458079466e-02 -1.0323557129573948e+00 -5.9248484998765234e-02
-7.7999999999999883e+00 +9.1232614859556413e+00 +0.0000000000000000e+00 -7.7999991581099062e+00 +1.0815808161487778e-02 -1.0323559770498854e+00 -5.9248353220212616e-02
-7.8999999999999879e+00 +9.1231804976325002e+00 +0.0000000000000000e+00 -7.8999991253139150e+00 +1.0815755217260281e-02 -1.0323562957067209e+00 -5.9248209521772489e-02
-7.9999999999999876e+00 +9.1230984776675612e+00 +0.0000000000000000e+00 -7.9999990916770924e+00 +1.0815712383333752e-02 -1.0323566638063586e+00 -5.9248052884491517e-02
-8.0999999999999872e+00 +9.1230154260604674e+00 +0.0000000000000000e+00 -8.0999990571887963e+00 +1.0815678417800279e-02 -1.0323570762279646e+00 -5.9247882289597133e-02
-8.1999999999999869e+00 +9.1229313428108174e+00 +0.0000000000000000e+00 -8.1999990218383818e+00 +1.0815652078912838e-02 -1.0323575278514006e+00 -5.9247696718503343e-02
-8.2999999999999865e+00 +9.1228462279181670e+00 +0.0000000000000000e+00 -8.2999989856152077e+00 +1.0815632125090867e-02 -1.0323580135572241e+00 -5.9247495152816625e-02
-8.3999999999999861e+00 +9.1227600813820420e+00 +0.0000000000000000e+00 -8.3999989485086282e+00 +1.0815617314925840e-02 -1.0323585282266774e+00 -5.9247276574341604e-02
-8.4999999999999858e+00 +9.1226729032019360e+00 +0.0000000000000000e+00 -8.4999989105080012e+00 +1.0815606407186856e-02 -1.0323590667416838e+00 -5.9247039965087046e-02
-8.5999999999999854e+00 +9.1225846933773216e+00 +0.0000000000000000e+00 -8.5999988716026845e+00 +1.0815598160826213e-02 -1.0323596239848418e+00 -5.9246784307271615e-02
-8.6999999999999851e+00 +9.1224954519076515e+00 +0.0000000000000000e+00 -8.6999988317820343e+00 +1.0815591334984980e-02 -1.0323601948394174e+00 -5.9246508583329728e-02
-8.7999999999999847e+00 +9.1224051787923646e+00 +0.0000000000000000e+00 -8.7999987910354065e+00 +1.0815584688998580e-02 -1.0323607741893375e+00 -5.9246211775917386e-02
-8.8999999999999844e+00 +9.1223138740308922e+00 +0.0000000000000000e+00 -8.8999987493521573e+00 +1.0815576982402387e-02 -1.0323613569191852e+00 -5.9245892867918058e-02
-8.9999999999999840e+00 +9.1222215376226625e+00 +0.0000000000000000e+00 -8.9999987067216427e+00 +1.0815566974937281e-02 -1.0323619379141935e+00 -5.9245550842448487e-02
-9.0999999999999837e+00 +9.1221281695671053e+00 +0.0000000000000000e+00 -9.0999986631332206e+00 +1.0815553426555248e-02 -1.0323625120602371e+00 -5.9245184682864653e-02
-9.1999999999999833e+00 +9.1220337698636573e+00 +0.0000000000000000e+00 -9.1999986185762470e+00 +1.0815535097424963e-02 -1.0323630742438297e+00 -5.9244793372767487e-02
-9.2999999999999829e+00 +9.1219383385117681e+00 +0.0000000000000000e+00 -9.2999985730400780e+00 +1.0815510747937358e-02 -1.0323636193521135e+00 -5.9244375896008838e-02
-9.3999999999999826e+00 +9.1218418755109010e+00 +0.0000000000000000e+00 -9.3999985265140715e+00 +1.0815479138711236e-02 -1.0323641422728567e+00 -5.9243931236697391e-02
-9.4999999999999822e+00 +9.1217443808605463e+00 +0.0000000000000000e+00 -9.4999984789875818e+00 +1.0815439030598822e-02 -1.0323646378944451e+00 -5.9243458379204375e-02
-9.5999999999999819e+00 +9.1216458545602190e+00 +0.0000000000000000e+00 -9.5999984304499666e+00 +1.0815389501642368e-02 -1.0323651021071476e+00 -5.9242956605000764e-02
-9.6999999999999815e+00 +9.1215462966094645e+00 +0.0000000000000000e+00 -9.6999983808905839e+00 +1.0815330897854259e-02 -1.0323655348057590e+00 -5.9242426382995976e-02
-9.7999999999999812e+00 +9.1214457070078616e+00 +0.0000000000000000e+00 -9.7999983302987879e+00 +1.0815263882097519e-02 -1.0323659368832896e+00 -5.9241868478640013e-02
-9.8999999999999808e+00 +9.1213440857550196e+00 +0.0000000000000000e+00 -9.8999982786639364e+00 +1.0815189117067331e-02 -1.0323663092291597e+00 -5.9241283657001563e-02
-9.9999999999999805e+00 +9.1212414328505762e+00 +0.0000000000000000e+00 -9.9999982259753857e+00 +1.0815107265286046e-02 -1.0323666527290907e+00 -5.9240672682757088e-02
-1.0099999999999980e+01 +9.1211377482942009e+00 +0.0000000000000000e+00 -1.0099998172222492e+01 +1.0815018989098200e-02 -1.0323669682649936e+00 -5.9240036320180031e-02
-1.0199999999999980e+01 +9.1210330320855881e+00 +0.0000000000000000e+00 -1.0199998117394612e+01 +1.0814924950665501e-02 -1.0323672567148581e+00 -5.9239375333129986e-02
-1.0299999999999979e+01 +9.1209272842244609e+00 +0.0000000000000000e+00 -1.0299998061481102e+01 +1.0814825811961836e-02 -1.0323675189526420e+00 -5.9238690485041767e-02
-1.0399999999999979e+01 +9.1208205047105668e+00 +0.0000000000000000e+00 -1.0399998004471319e+01 +1.0814722234768282e-02 -1.0323677558481610e+00 -5.9237982538914644e-02
-1.0499999999999979e+01 +9.1207126935436822e+00 +0.0000000000000000e+00 -1.0499997946354620e+01 +1.0814614880668122e-02 -1.0323679682669771e+00 -5.9237252257301518e-02
-1.0599999999999978e+01 +9.1206038507236062e+00 +0.0000000000000000e+00 -1.0599997887120361e+01 +1.0814504411041823e-02 -1.0323681570702896e+00 -5.9236500402297984e-02
-1.0699999999999978e+01 +9.1204939762501613e+00 +0.0000000000000000e+00 -1.0699997826757899e+01 +1.0814391487062079e-02 -1.0323683231148215e+00 -5.9235727735531575e-02
-1.0799999999999978e+01 +9.1203830701231929e+00 +0.0000000000000000e+00 -1.0799997765256592e+01 +1.0814276769688805e-02 -1.0323684672527123e+00 -5.9234935018150914e-02
-1.0899999999999977e+01 +9.1202711323425678e+00 +0.0000000000000000e+00 -1.0899997702605795e+01 +1.0814160919664133e-02 -1.0323685903314039e+00 -5.9234123010814828e-02
-1.0999999999999977e+01 +9.1201581629081758e+00 +0.0000000000000000e+00 -1.0999997638794865e+01 +1.0814044597507462e-02 -1.0323686931935341e+00 -5.9233292473681580e-02
-1.1099999999999977e+01 +9.1200441618199264e+00 +0.0000000000000000e+00 -1.1099997573813159e+01 +1.0813928463510437e-02 -1.0323687766768208e+00 -5.9232444166397974e-02
-1.1199999999999976e+01 +9.1199291290777484e+00 +0.0000000000000000e+00 -1.1199997507650034e+01 +1.0813813177731987e-02 -1.0323688416139565e+00 -5.9231578848088634e-02
-1.1299999999999976e+01 +9.1198130646815887e+00 +0.0000000000000000e+00 -1.1299997440294847e+01 +1.0813699399993319e-02 -1.0323688888324938e+00 -5.9230697277345028e-02
-1.1399999999999975e+01 +9.1196959686314116e+00 +0.0000000000000000e+00 -1.1399997371736955e+01 +1.0813587789872960e-02 -1.0323689191547369e+00 -5.9229800212214752e-02
-1.1499999999999975e+01 +9.1195778409272013e+00 +0.0000000000000000e+00 -1.1499997301965715e+01 +1.0813479006701758e-02 -1.0323689333976307e+00 -5.9228888410190653e-02
-1.1599999999999975e+01 +9.1194586815689540e+00 +0.0000000000000000e+00 -1.1599997230970484e+01 +1.0813373588656120e-02 -1.0323689329264012e+00 -5.9227962417153238e-02
-1.1699999999999974e+01 +9.1193384905566841e+00 +0.0000000000000000e+00 -1.1699997158740617e+01 +1.0813271590169584e-02 -1.0323689213166651e+00 -5.9227021934408680e-02
