# trajectory
# s[mm] rx[mm] ry[mm] rz[mm] px[rad] py[rad] pz[rad]
0.0000000000000000e+00 +9.0667000000000009e+00 +0.0000000000000000e+00 +0.0000000000000000e+00 +0.0000000000000000e+00 +0.0000000000000000e+00 +1.0000000000000000e+00
1.0000000000000001e-01 +9.0666994834012353e+00 +0.0000000000000000e+00 +9.9999999998220832e-02 -1.0331970713793831e-05 +0.0000000000000000e+00 +9.9999999994662514e-01
2.0000000000000001e-01 +9.0666979336067790e+00 +0.0000000000000000e+00 +1.9999999998576673e-01 -2.0663913799466612e-05 +0.0000000000000000e+00 +9.9999999978650134e-01
3.0000000000000004e-01 +9.0666953506193941e+00 +0.0000000000000000e+00 +2.9999999995196280e-01 -3.0995829300574552e-05 +0.0000000000000000e+00 +9.9999999951962926e-01
4.0000000000000002e-01 +9.0666917344418358e+00 +0.0000000000000000e+00 +3.9999999988613433e-01 -4.1327717295572256e-05 +0.0000000000000000e+00 +9.9999999914600990e-01
5.0000000000000000e-01 +9.0666870850768486e+00 +0.0000000000000000e+00 +4.9999999977760656e-01 -5.1659577897808899e-05 +0.0000000000000000e+00 +9.9999999866564404e-01
5.9999999999999998e-01 +9.0666814025271645e+00 +0.0000000000000000e+00 +5.9999999961570494e-01 -6.1991411254414376e-05 +0.0000000000000000e+00 +9.9999999807853246e-01
6.9999999999999996e-01 +9.0666746867954995e+00 +0.0000000000000000e+00 +6.9999999938975488e-01 -7.2323217534087184e-05 +0.0000000000000000e+00 +9.9999999738467604e-01
7.9999999999999993e-01 +9.0666669378845537e+00 +0.0000000000000000e+00 +7.9999999908908204e-01 -8.2654996914882702e-05 +0.0000000000000000e+00 +9.9999999658407568e-01
8.9999999999999991e-01 +9.0666581557970076e+00 +0.0000000000000000e+00 +8.9999999870301195e-01 -9.2986749583099957e-05 +0.0000000000000000e+00 +9.9999999567673215e-01
9.9999999999999989e-01 +9.0666483405355223e+00 +0.0000000000000000e+00 +9.9999999822087038e-01 -1.0331847573327838e-04 +0.0000000000000000e+00 +9.9999999466264622e-01
1.0999999999999999e+00 +9.0666374921027391e+00 +0.0000000000000000e+00 +1.0999999976319832e+00 -1.1365017556819466e-04 +0.0000000000000000e+00 +9.9999999354181868e-01
1.2000000000000000e+00 +9.0666256105012799e+00 +0.0000000000000000e+00 +1.1999999969256760e+00 -1.2398184929885987e-04 +0.0000000000000000e+00 +9.9999999231425041e-01
1.3000000000000000e+00 +9.0666126957337436e+00 +0.0000000000000000e+00 +1.2999999960912751e+00 -1.3431349714451655e-04 +0.0000000000000000e+00 +9.9999999097994208e-01
1.4000000000000001e+00 +9.0665987478027077e+00 +0.0000000000000000e+00 +1.3999999951181064e+00 -1.4464511933263616e-04 +0.0000000000000000e+00 +9.9999998953889457e-01
1.5000000000000002e+00 +9.0665837667107247e+00 +0.0000000000000000e+00 +1.4999999939954960e+00 -1.5497671609891649e-04 +0.0000000000000000e+00 +9.9999998799110856e-01
1.6000000000000003e+00 +9.0665677524603261e+00 +0.0000000000000000e+00 +1.5999999927127702e+00 -1.6530828768727935e-04 +0.0000000000000000e+00 +9.9999998633658482e-01
1.7000000000000004e+00 +9.0665507050540182e+00 +0.0000000000000000e+00 +1.6999999912592552e+00 -1.7563983434986836e-04 +0.0000000000000000e+00 +9.9999998457532413e-01
1.8000000000000005e+00 +9.0665326244942790e+00 +0.0000000000000000e+00 +1.7999999896242771e+00 -1.8597135634704687e-04 +0.0000000000000000e+00 +9.9999998270732715e-01
1.9000000000000006e+00 +9.0665135107835617e+00 +0.0000000000000000e+00 +1.8999999877971627e+00 -1.9630285394739604e-04 +0.0000000000000000e+00 +9.9999998073259455e-01
2.0000000000000004e+00 +9.0664933639242928e+00 +0.0000000000000000e+00 +1.9999999857672384e+00 -2.0663432742771314e-04 +0.0000000000000000e+00 +9.9999997865112711e-01
2.1000000000000005e+00 +9.0664721839188704e+00 +0.0000000000000000e+00 +2.0999999835238303e+00 -2.1696577707300992e-04 +0.0000000000000000e+00 +9.9999997646292549e-01
2.2000000000000006e+00 +9.0664499707696624e+00 +0.0000000000000000e+00 +2.1999999810562656e+00 -2.2729720317651113e-04 +0.0000000000000000e+00 +9.9999997416799036e-01
2.3000000000000007e+00 +9.0664267244790100e+00 +0.0000000000000000e+00 +2.2999999783538705e+00 -2.3762860603965318e-04 +0.0000000000000000e+00 +9.9999997176632238e-01
2.4000000000000008e+00 +9.0664024450492189e+00 +0.0000000000000000e+00 +2.3999999754059722e+00 -2.4795998597208313e-04 +0.0000000000000000e+00 +9.9999996925792223e-01
2.5000000000000009e+00 +9.0663771324825682e+00 +0.0000000000000000e+00 +2.4999999722018971e+00 -2.5829134329165748e-04 +0.0000000000000000e+00 +9.9999996664279045e-01
2.6000000000000010e+00 +9.0663507867813031e+00 +0.0000000000000000e+00 +2.5999999687309723e+00 -2.6862267832346363e-04 +0.0000000000000000e+00 +9.9999996392092771e-01
2.7000000000000011e+00 +9.0663234079476354e+00 +0.0000000000000000e+00 +2.6999999649825250e+00 -2.7895399138906277e-04 +0.0000000000000000e+00 +9.9999996109233458e-01
2.8000000000000012e+00 +9.0662949959837462e+00 +0.0000000000000000e+00 +2.7999999609458817e+00 -2.8928528279573048e-04 +0.0000000000000000e+00 +9.9999995815701170e-01
2.9000000000000012e+00 +9.0662655508917886e+00 +0.0000000000000000e+00 +2.8999999566103698e+00 -2.9961655283547423e-04 +0.0000000000000000e+00 +9.9999995511495965e-01
3.0000000000000013e+00 +9.0662350726738836e+00 +0.0000000000000000e+00 +2.9999999519653162e+00 -3.0994780178502821e-04 +0.0000000000000000e+00 +9.9999995196617897e-01
3.1000000000000014e+00 +9.0662035613321272e+00 +0.0000000000000000e+00 +3.0999999470000481e+00 -3.2027902990584801e-04 +0.0000000000000000e+00 +9.9999994871067022e-01
3.2000000000000015e+00 +9.0661710168685889e+00 +0.0000000000000000e+00 +3.1999999417038927e+00 -3.3061023744410508e-04 +0.0000000000000000e+00 +9.9999994534843395e-01
3.3000000000000016e+00 +9.0661374392853169e+00 +0.0000000000000000e+00 +3.2999999360661771e+00 -3.4094142463068081e-04 +0.0000000000000000e+00 +9.9999994187947083e-01
3.4000000000000017e+00 +9.0661028285843344e+00 +0.0000000000000000e+00 +3.3999999300762291e+00 -3.5127259168116068e-04 +0.0000000000000000e+00 +9.9999993830378131e-01
3.5000000000000018e+00 +9.0660671847676451e+00 +0.0000000000000000e+00 +3.4999999237233759e+00 -3.6160373879582785e-04 +0.0000000000000000e+00 +9.9999993462136594e-01
3.6000000000000019e+00 +9.0660305078372332e+00 +0.0000000000000000e+00 +3.5999999169969450e+00 -3.7193486615965651e-04 +0.0000000000000000e+00 +9.9999993083222527e-01
3.7000000000000020e+00 +9.0659927977950652e+00 +0.0000000000000000e+00 +3.6999999098862637e+00 -3.8226597394230540e-04 +0.0000000000000000e+00 +9.9999992693635986e-01
3.8000000000000020e+00 +9.0659540546430915e+00 +0.0000000000000000e+00 +3.7999999023806597e+00 -3.9259706229811064e-04 +0.0000000000000000e+00 +9.9999992293377027e-01
3.9000000000000021e+00 +9.0659142783832483e+00 +0.0000000000000000e+00 +3.8999998944694605e+00 -4.0292813136607854e-04 +0.0000000000000000e+00 +9.9999991882445705e-01
4.0000000000000018e+00 +9.0658734690174576e+00 +0.0000000000000000e+00 +3.9999998861419939e+00 -4.1325918126987809e-04 +0.0000000000000000e+00 +9.9999991460842075e-01
4.1000000000000014e+00 +9.0658316265476291e+00 +0.0000000000000000e+00 +4.0999998773875870e+00 -4.2359021211783328e-04 +0.0000000000000000e+00 +9.9999991028566193e-01
4.2000000000000011e+00 +9.0657887509756652e+00 +0.0000000000000000e+00 +4.1999998681955688e+00 -4.3392122400291516e-04 +0.0000000000000000e+00 +9.9999990585618115e-01
4.3000000000000007e+00 +9.0657448423034577e+00 +0.0000000000000000e+00 +4.2999998585552666e+00 -4.4425221700273372e-04 +0.0000000000000000e+00 +9.9999990131997885e-01
4.4000000000000004e+00 +9.0656999005328913e+00 +0.0000000000000000e+00 +4.3999998484560079e+00 -4.5458319117952929e-04 +0.0000000000000000e+00 +9.9999989667705569e-01
4.5000000000000000e+00 +9.0656539256658473e+00 +0.0000000000000000e+00 +4.4999998378871204e+00 -4.6491414658016410e-04 +0.0000000000000000e+00 +9.9999989192741223e-01
4.5999999999999996e+00 +9.0656069177041996e+00 +0.0000000000000000e+00 +4.5999998268379327e+00 -4.7524508323895794e-04 +0.0000000000000000e+00 +9.9999988707104892e-01
4.6999999999999993e+00 +9.0655588766498223e+00 +0.0000000000000000e+00 +4.6999998152977724e+00 -4.8557600120897323e-04 +0.0000000000000000e+00 +9.9999988210796642e-01
4.7999999999999989e+00 +9.0655098025045771e+00 +0.0000000000000000e+00 +4.7999998032559681e+00 -4.9590690059330962e-04 +0.0000000000000000e+00 +9.9999987703816529e-01
4.8999999999999986e+00 +9.0654596952703166e+00 +0.0000000000000000e+00 +4.8999997907018482e+00 -5.0623778154795698e-04 +0.0000000000000000e+00 +9.9999987186164596e-01
4.9999999999999982e+00 +9.0654085549488741e+00 +0.0000000000000000e+00 +4.9999997776247405e+00 -5.1656864428180468e-04 +0.0000000000000000e+00 +9.9999986657840889e-01
5.0999999999999979e+00 +9.0653563815420579e+00 +0.0000000000000000e+00 +5.0999997640139734e+00 -5.2689948905665146e-04 +0.0000000000000000e+00 +9.9999986118845452e-01
5.1999999999999975e+00 +9.0653031750516497e+00 +0.0000000000000000e+00 +5.1999997498588746e+00 -5.3723031618721614e-04 +0.0000000000000000e+00 +9.9999985569178318e-01
5.2999999999999972e+00 +9.0652489354793957e+00 +0.0000000000000000e+00 +5.2999997351487727e+00 -5.4756112604114910e-04 +0.0000000000000000e+00 +9.9999985008839531e-01
5.3999999999999968e+00 +9.0651936628270029e+00 +0.0000000000000000e+00 +5.3999997198729961e+00 -5.5789191903904390e-04 +0.0000000000000000e+00 +9.9999984437829115e-01
5.4999999999999964e+00 +9.0651373570961340e+00 +0.0000000000000000e+00 +5.4999997040208735e+00 -5.6822269565445045e-04 +0.0000000000000000e+00 +9.9999983856147101e-01
5.5999999999999961e+00 +9.0650800182884002e+00 +0.0000000000000000e+00 +5.5999996875817333e+00 -5.7855345641388801e-04 +0.0000000000000000e+00 +9.9999983263793502e-01
5.6999999999999957e+00 +9.0650216464053592e+00 +0.0000000000000000e+00 +5.6999996705449032e+00 -5.8888420189685971e-04 +0.0000000000000000e+00 +9.9999982660768338e-01
5.7999999999999954e+00 +9.0649622414485087e+00 +0.0000000000000000e+00 +5.7999996528997126e+00 -5.9921493273586688e-04 +0.0000000000000000e+00 +9.9999982047071612e-01
5.8999999999999950e+00 +9.0649018034192785e+00 +0.0000000000000000e+00 +5.8999996346354893e+00 -6.0954564961642507e-04 +0.0000000000000000e+00 +9.9999981422703332e-01
5.9999999999999947e+00 +9.0648403323190276e+00 +0.0000000000000000e+00 +5.9999996157415616e+00 -6.1987635327707968e-04 +0.0000000000000000e+00 +9.9999980787663489e-01
6.0999999999999943e+00 +9.0647778281490385e+00 +0.0000000000000000e+00 +6.0999995962072591e+00 -6.3020704450942341e-04 +0.0000000000000000e+00 +9.9999980141952083e-01
6.1999999999999940e+00 +9.0647142909105121e+00 +0.0000000000000000e+00 +6.1999995760219093e+00 -6.4053772415811330e-04 +0.0000000000000000e+00 +9.9999979485569090e-01
6.2999999999999936e+00 +9.0646497206045638e+00 +0.0000000000000000e+00 +6.2999995551748400e+00 -6.5086839312088922e-04 +0.0000000000000000e+00 +9.9999978818514501e-01
6.3999999999999932e+00 +9.0645841172322132e+00 +0.0000000000000000e+00 +6.3999995336553805e+00 -6.6119905234859292e-04 +0.0000000000000000e+00 +9.9999978140788270e-01
6.4999999999999929e+00 +9.0645174807943842e+00 +0.0000000000000000e+00 +6.4999995114528595e+00 -6.7152970284518746e-04 +0.0000000000000000e+00 +9.9999977452390365e-01
6.5999999999999925e+00 +9.0644498112918992e+00 +0.0000000000000000e+00 +6.5999994885566045e+00 -6.8186034566451584e-04 +0.0000000000000000e+00 +9.9999976753320741e-01
6.6999999999999922e+00 +9.0643811087254722e+00 +0.0000000000000000e+00 +6.6999994649559440e+00 -6.9219098187443850e-04 +0.0000000000000000e+00 +9.9999976043579353e-01
6.7999999999999918e+00 +9.0643113730957108e+00 +0.0000000000000000e+00 +6.7999994406402058e+00 -7.0252161252096483e-04 +0.0000000000000000e+00 +9.9999975323166146e-01
6.8999999999999915e+00 +9.0642406044031194e+00 +0.0000000000000000e+00 +6.8999994155987183e+00 -7.1285223862500109e-04 +0.0000000000000000e+00 +9.9999974592081065e-01
6.9999999999999911e+00 +9.0641688026481031e+00 +0.0000000000000000e+00 +6.9999993898208102e+00 -7.2318286118236116e-04 +0.0000000000000000e+00 +9.9999973850324042e-01
7.0999999999999908e+00 +9.0640959678309692e+00 +0.0000000000000000e+00 +7.0999993632958089e+00 -7.3351348116377666e-04 +0.0000000000000000e+00 +9.9999973097895023e-01
7.1999999999999904e+00 +9.0640220999519254e+00 +0.0000000000000000e+00 +7.1999993360130432e+00 -7.4384409951490794e-04 +0.0000000000000000e+00 +9.9999972334793952e-01
7.2999999999999901e+00 +9.0639471990110891e+00 +0.0000000000000000e+00 +7.2999993079618397e+00 -7.5417471715635528e-04 +0.0000000000000000e+00 +9.9999971561020751e-01
7.3999999999999897e+00 +9.0638712650084869e+00 +0.0000000000000000e+00 +7.3999992791315270e+00 -7.6450533498366978e-04 +0.0000000000000000e+00 +9.9999970776575364e-01
7.4999999999999893e+00 +9.0637942979440567e+00 +0.0000000000000000e+00 +7.4999992495114327e+00 -7.7483595386736528e-04 +0.0000000000000000e+00 +9.9999969981457715e-01
7.5999999999999890e+00 +9.0637162978176491e+00 +0.0000000000000000e+00 +7.5999992190908845e+00 -7.8516657465292996e-04 +0.0000000000000000e+00 +9.9999969175667747e-01
7.6999999999999886e+00 +9.0636372646290351e+00 +0.0000000000000000e+00 +7.6999991878592100e+00 -7.9549719816083837e-04 +0.0000000000000000e+00 +9.9999968359205371e-01
7.7999999999999883e+00 +9.0635571983779002e+00 +0.0000000000000000e+00 +7.7999991558057378e+00 -8.0582782518656367e-04 +0.0000000000000000e+00 +9.9999967532070533e-01
7.8999999999999879e+00 +9.0634760990638554e+00 +0.0000000000000000e+00 +7.8999991229197937e+00 -8.1615845650059035e-04 +0.0000000000000000e+00 +9.9999966694263143e-01
7.9999999999999876e+00 +9.0633939666864336e+00 +0.0000000000000000e+00 +7.9999990891907062e+00 -8.2648909284842667e-04 +0.0000000000000000e+00 +9.9999965845783134e-01
8.0999999999999872e+00 +9.0633108012450947e+00 +0.0000000000000000e+00 +8.0999990546078031e+00 -8.3681973495061809e-04 +0.0000000000000000e+00 +9.9999964986630430e-01
8.1999999999999869e+00 +9.0632266027392294e+00 +0.0000000000000000e+00 +8.1999990191604102e+00 -8.4715038350276000e-04 +0.0000000000000000e+00 +9.9999964116804951e-01
8.2999999999999865e+00 +9.0631413711681574e+00 +0.0000000000000000e+00 +8.2999989828378560e+00 -8.5748103917551168e-04 +0.0000000000000000e+00 +9.9999963236306622e-01
8.3999999999999861e+00 +9.0630551065311344e+00 +0.0000000000000000e+00 +8.3999989456294664e+00 -8.6781170261460996e-04 +0.0000000000000000e+00 +9.9999962345135363e-01
8.4999999999999858e+00 +9.0629678088273540e+00 +0.0000000000000000e+00 +8.4999989075245690e+00 -8.7814237444088286e-04 +0.0000000000000000e+00 +9.9999961443291085e-01
8.5999999999999854e+00 +9.0628794780559474e+00 +0.0000000000000000e+00 +8.5999988685124915e+00 -8.8847305524946665e-04 +0.0000000000000000e+00 +9.9999960530773724e-01
8.6999999999999851e+00 +9.0627901142159875e+00 +0.0000000000000000e+00 +8.6999988285825598e+00 -8.9880374560104010e-04 +0.0000000000000000e+00 +9.9999959607583200e-01
8.7999999999999847e+00 +9.0626997173064918e+00 +0.0000000000000000e+00 +8.7999987877240997e+00 -9.0913444601304098e-04 +0.0000000000000000e+00 +9.9999958673719425e-01
8.8999999999999844e+00 +9.0626082873264320e+00 +0.0000000000000000e+00 +8.8999987459264407e+00 -9.1946515695884941e-04 +0.0000000000000000e+00 +9.9999957729182332e-01
8.9999999999999840e+00 +9.0625158242747332e+00 +0.0000000000000000e+00 +8.9999987031789068e+00 -9.2979587886776814e-04 +0.0000000000000000e+00 +9.9999956773971843e-01
9.0999999999999837e+00 +9.0624223281502800e+00 +0.0000000000000000e+00 +9.0999986594708258e+00 -9.4012661212500173e-04 +0.0000000000000000e+00 +9.9999955808087893e-01
9.1999999999999833e+00 +9.0623277989519195e+00 +0.0000000000000000e+00 +9.1999986147915251e+00 -9.5045735707163521e-04 +0.0000000000000000e+00 +9.9999954831530413e-01
9.2999999999999829e+00 +9.0622322366784669e+00 +0.0000000000000000e+00 +9.2999985691303291e+00 -9.6078811400461235e-04 +0.0000000000000000e+00 +9.9999953844299339e-01
9.3999999999999826e+00 +9.0621356413287106e+00 +0.0000000000000000e+00 +9.3999985224765652e+00 -9.7111888317671241e-04 +0.0000000000000000e+00 +9.9999952846394613e-01
9.4999999999999822e+00 +9.0620380129014162e+00 +0.0000000000000000e+00 +9.4999984748195594e+00 -9.8144966479652698e-04 +0.0000000000000000e+00 +9.9999951837816170e-01
9.5999999999999819e+00 +9.0619393513953312e+00 +0.0000000000000000e+00 +9.5999984261486393e+00 -9.9178045902843554e-04 +0.0000000000000000e+00 +9.9999950818563954e-01
9.6999999999999815e+00 +9.0618396568091875e+00 +0.0000000000000000e+00 +9.6999983764531290e+00 -1.0021112659925808e-03 +0.0000000000000000e+00 +9.9999949788637921e-01
9.7999999999999812e+00 +9.0617389291417059e+00 +0.0000000000000000e+00 +9.7999983257223562e+00 -1.0124420857648428e-03 +0.0000000000000000e+00 +9.9999948748038014e-01
9.8999999999999808e+00 +9.0616371683916057e+00 +0.0000000000000000e+00 +9.8999982739456467e+00 -1.0227729183768124e-03 +0.0000000000000000e+00 +9.9999947696764191e-01
9.9999999999999805e+00 +9.0615343745576027e+00 +0.0000000000000000e+00 +9.9999982211123264e+00 -1.0331037638157646e-03 +0.0000000000000000e+00 +9.9999946634816417e-01
1.0099999999999980e+01 +9.0614305476384160e+00 +0.0000000000000000e+00 +1.0099998167211721e+01 -1.0434346220246304e-03 +0.0000000000000000e+00 +9.9999945562194659e-01
1.0199999999999980e+01 +9.0613256876327739e+00 +0.0000000000000000e+00 +1.0199998112233157e+01 -1.0537654929019681e-03 +0.0000000000000000e+00 +9.9999944478898883e-01
1.0299999999999979e+01 +9.0612197945394168e+00 +0.0000000000000000e+00 +1.0299998056165961e+01 -1.0640963763019348e-03 +0.0000000000000000e+00 +9.9999943384929069e-01
1.0399999999999979e+01 +9.0611128683571014e+00 +0.0000000000000000e+00 +1.0399997998999458e+01 -1.0744272720342558e-03 +0.0000000000000000e+00 +9.9999942280285192e-01
1.0499999999999979e+01 +9.0610049090846054e+00 +0.0000000000000000e+00 +1.0499997940722974e+01 -1.0847581798641938e-03 +0.0000000000000000e+00 +9.9999941164967243e-01
1.0599999999999978e+01 +9.0608959167207335e+00 +0.0000000000000000e+00 +1.0599997881325834e+01 -1.0950890995159691e-03 +0.0000000000000000e+00 +9.9999940038975221e-01
1.0699999999999978e+01 +9.0607858912643167e+00 +0.0000000000000000e+00 +1.0699997820797366e+01 -1.1054200307106998e-03 +0.0000000000000000e+00 +9.9999938902309116e-01
1.0799999999999978e+01 +9.0606748327142146e+00 +0.0000000000000000e+00 +1.0799997759126894e+01 -1.1157509732043719e-03 +0.0000000000000000e+00 +9.9999937754968915e-01
1.0899999999999977e+01 +9.0605627410693064e+00 +0.0000000000000000e+00 +1.0899997696303746e+01 -1.1260819267913098e-03 +0.0000000000000000e+00 +9.9999936596954608e-01
1.0999999999999977e+01 +9.0604496163284924e+00 +0.0000000000000000e+00 +1.0999997632317246e+01 -1.1364128913041961e-03 +0.0000000000000000e+00 +9.9999935428266173e-01
1.1099999999999977e+01 +9.0603354584906857e+00 +0.0000000000000000e+00 +1.1099997567156720e+01 -1.1467438666140915e-03 +0.0000000000000000e+00 +9.9999934248903599e-01
1.1199999999999976e+01 +9.0602202675548131e+00 +0.0000000000000000e+00 +1.1199997500811495e+01 -1.1570748526304559e-03 +0.0000000000000000e+00 +9.9999933058866863e-01
1.1299999999999976e+01 +9.0601040435198055e+00 +0.0000000000000000e+00 +1.1299997433270896e+01 -1.1674058493011702e-03 +0.0000000000000000e+00 +9.9999931858155933e-01
1.1399999999999975e+01 +9.0599867863845986e+00 +0.0000000000000000e+00 +1.1399997364524248e+01 -1.1777368566125576e-03 +0.0000000000000000e+00 +9.9999930646770774e-01
1.1499999999999975e+01 +9.0598684961481268e+00 +0.0000000000000000e+00 +1.1499997294560879e+01 -1.1880678745894056e-03 +0.0000000000000000e+00 +9.9999929424711353e-01
1.1599999999999975e+01 +9.0597491728093225e+00 +0.0000000000000000e+00 +1.1599997223370114e+01 -1.1983989032949896e-03 +0.0000000000000000e+00 +9.9999928191977638e-01
1.1699999999999974e+01 +9.0596288163671073e+00 +0.0000000000000000e+00 +1.1699997150941277e+01 -1.2087299428310959e-03 +0.0000000000000000e+00 +9.9999926948569573e-01
1.1799999999999974e+01 +9.0595074268203906e+00 +0.0000000000000000e+00 +1.1799997077263695e+01 -1.2190609933380454e-03 +0.0000000000000000e+00 +9.9999925694487113e-01
