# field on trajectory
# s[mm] rx[mm] ry[mm] rz[mm] bx[T] by[T] bz[T]
0.0000000000000000e+00 +9.1013000000000002e+00 +0.0000000000000000e+00 +0.0000000000000000e+00 +1.1372613846435150e-02 -1.0320321217775319e+00 -5.9016085359588896e-02
-1.0000000000000001e-01 +9.1012994842951258e+00 +0.0000000000000000e+00 -9.9999999998226993e-02 +1.1372664236474877e-02 -1.0320347980750018e+00 -5.9015984470984183e-02
-2.0000000000000001e-01 +9.1012979371786873e+00 +0.0000000000000000e+00 -1.9999999998581591e-01 +1.1372708294387843e-02 -1.0320376541872758e+00 -5.9015882404405799e-02
-3.0000000000000004e-01 +9.1012953586478336e+00 +0.0000000000000000e+00 -2.9999999995212856e-01 +1.1372746233451808e-02 -1.0320406840949374e+00 -5.9015779208129462e-02
-4.0000000000000002e-01 +9.1012917486995359e+00 +0.0000000000000000e+00 -3.9999999988652668e-01 +1.1372778266954124e-02 -1.0320438817795135e+00 -5.9015674930456841e-02
-5.0000000000000000e-01 +9.1012871073305988e+00 +0.0000000000000000e+00 -4.9999999977837190e-01 +1.1372804608188330e-02 -1.0320472412235895e+00 -5.9015569619715380e-02
-5.9999999999999998e-01 +9.1012814345376665e+00 +0.0000000000000000e+00 -5.9999999961702577e-01 +1.1372825470450782e-02 -1.0320507564109251e+00 -5.9015463324258437e-02
-6.9999999999999996e-01 +9.1012747303172272e+00 +0.0000000000000000e+00 -6.9999999939184965e-01 +1.1372841067037296e-02 -1.0320544213265674e+00 -5.9015356092465207e-02
-7.9999999999999993e-01 +9.1012669946656182e+00 +0.0000000000000000e+00 -7.9999999909220487e-01 +1.1372851611239751e-02 -1.0320582299569661e+00 -5.9015247972740791e-02
-8.9999999999999991e-01 +9.1012582275790361e+00 +0.0000000000000000e+00 -8.9999999870745251e-01 +1.1372857316342739e-02 -1.0320621762900875e+00 -5.9015139013516141e-02
-9.9999999999999989e-01 +9.1012484290535376e+00 +0.0000000000000000e+00 -9.9999999822695373e-01 +1.1372858395620166e-02 -1.0320662543155301e+00 -5.9015029263248080e-02
-1.0999999999999999e+00 +9.1012375990850494e+00 +0.0000000000000000e+00 -1.0999999976400694e+00 +1.1372855062331899e-02 -1.0320704580246391e+00 -5.9014918770419325e-02
-1.2000000000000000e+00 +9.1012257376693704e+00 +0.0000000000000000e+00 -1.1999999969361601e+00 +1.1372847529720393e-02 -1.0320747814106201e+00 -5.9014807583538484e-02
-1.3000000000000000e+00 +9.1012128448021841e+00 +0.0000000000000000e+00 -1.2999999961045867e+00 +1.1372836011007279e-02 -1.0320792184686545e+00 -5.9014695751139955e-02
-1.4000000000000001e+00 +9.1011989204790549e+00 +0.0000000000000000e+00 -1.3999999951347095e+00 +1.1372820719390051e-02 -1.0320837631960129e+00 -5.9014583321784150e-02
-1.5000000000000002e+00 +9.1011839646954460e+00 +0.0000000000000000e+00 -1.4999999940158888e+00 +1.1372801868038641e-02 -1.0320884095921730e+00 -5.9014470344057282e-02
-1.6000000000000003e+00 +9.1011679774467140e+00 +0.0000000000000000e+00 -1.5999999927374848e+00 +1.1372779641554800e-02 -1.0320931510819329e+00 -5.9014356935646967e-02
-1.7000000000000004e+00 +9.1011509587281232e+00 +0.0000000000000000e+00 -1.6999999912888575e+00 +1.1372754110365755e-02 -1.0320979787838249e+00 -5.9014243490571473e-02
-1.8000000000000005e+00 +9.1011329085348507e+00 +0.0000000000000000e+00 -1.7999999896593668e+00 +1.1372725316349901e-02 -1.0321028832398225e+00 -5.9014130471959490e-02
-1.9000000000000006e+00 +9.1011138268619991e+00 +0.0000000000000000e+00 -1.8999999878383722e+00 +1.1372693301376717e-02 -1.0321078549919636e+00 -5.9014018342976649e-02
-2.0000000000000004e+00 +9.1010937137046017e+00 +0.0000000000000000e+00 -1.9999999858152333e+00 +1.1372658107307412e-02 -1.0321128845821426e+00 -5.9013907566826965e-02
-2.1000000000000005e+00 +9.1010725690576333e+00 +0.0000000000000000e+00 -2.0999999835793095e+00 +1.1372619775995572e-02 -1.0321179625518986e+00 -5.9013798606754202e-02
-2.2000000000000006e+00 +9.1010503929160240e+00 +0.0000000000000000e+00 -2.1999999811199600e+00 +1.1372578349287787e-02 -1.0321230794422038e+00 -5.9013691926043214e-02
-2.3000000000000007e+00 +9.1010271852746634e+00 +0.0000000000000000e+00 -2.2999999784265435e+00 +1.1372533869024320e-02 -1.0321282257932587e+00 -5.9013587988021449e-02
-2.4000000000000008e+00 +9.1010029461284105e+00 +0.0000000000000000e+00 -2.3999999754884191e+00 +1.1372486377039732e-02 -1.0321333921442737e+00 -5.9013487256060232e-02
-2.5000000000000009e+00 +9.1009776754721052e+00 +0.0000000000000000e+00 -2.4999999722949453e+00 +1.1372435915163534e-02 -1.0321385690332674e+00 -5.9013390193576147e-02
-2.6000000000000010e+00 +9.1009513733005782e+00 +0.0000000000000000e+00 -2.5999999688354807e+00 +1.1372382525220829e-02 -1.0321437469968509e+00 -5.9013297264032594e-02
-2.7000000000000011e+00 +9.1009240396086586e+00 +0.0000000000000000e+00 -2.6999999650993836e+00 +1.1372326249032949e-02 -1.0321489165700202e+00 -5.9013208930940857e-02
-2.8000000000000012e+00 +9.1008956743911824e+00 +0.0000000000000000e+00 -2.7999999610760122e+00 +1.1372267128418141e-02 -1.0321540682859442e+00 -5.9013125657861869e-02
-2.9000000000000012e+00 +9.1008662776430054e+00 +0.0000000000000000e+00 -2.8999999567547246e+00 +1.1372205205192155e-02 -1.0321591926757565e+00 -5.9013047908407293e-02
-3.0000000000000013e+00 +9.1008358493590098e+00 +0.0000000000000000e+00 -2.9999999521248788e+00 +1.1372140521168929e-02 -1.0321642802683448e+00 -5.9012976146241083e-02
-3.1000000000000014e+00 +9.1008043895341153e+00 +0.0000000000000000e+00 -3.0999999471758324e+00 +1.1372073118161238e-02 -1.0321693215901377e+00 -5.9012910835080826e-02
-3.2000000000000015e+00 +9.1007718981632877e+00 +0.0000000000000000e+00 -3.1999999418969431e+00 +1.1372003037981325e-02 -1.0321743071649012e+00 -5.9012852438699075e-02
-3.3000000000000016e+00 +9.1007383752415496e+00 +0.0000000000000000e+00 -3.2999999362775680e+00 +1.1371930322441567e-02 -1.0321792275135209e+00 -5.9012801420924840e-02
-3.4000000000000017e+00 +9.1007038207639877e+00 +0.0000000000000000e+00 -3.3999999303070649e+00 +1.1371855013355105e-02 -1.0321840731537968e+00 -5.9012758245644878e-02
-3.5000000000000018e+00 +9.1006682347257630e+00 +0.0000000000000000e+00 -3.4999999239747908e+00 +1.1371777152536525e-02 -1.0321888346002328e+00 -5.9012723376805153e-02
-3.6000000000000019e+00 +9.1006316171221222e+00 +0.0000000000000000e+00 -3.5999999172701025e+00 +1.1371696796479812e-02 -1.0321935041666075e+00 -5.9012697144765737e-02
-3.7000000000000020e+00 +9.1005939679484005e+00 +0.0000000000000000e+00 -3.6999999101823575e+00 +1.1371614060391749e-02 -1.0321980813752765e+00 -5.9012679345321992e-02
-3.8000000000000020e+00 +9.1005552872000290e+00 +0.0000000000000000e+00 -3.7999999027009124e+00 +1.1371529074161656e-02 -1.0322025675507056e+00 -5.9012669640572578e-02
-3.9000000000000021e+00 +9.1005155748725279e+00 +0.0000000000000000e+00 -3.8999998948151240e+00 +1.1371441967684843e-02 -1.0322069640169695e+00 -5.9012667692550161e-02
-4.0000000000000018e+00 +9.1004748309615078e+00 +0.0000000000000000e+00 -3.9999998865143489e+00 +1.1371352870863461e-02 -1.0322112720977823e+00 -5.9012673163214673e-02
-4.1000000000000014e+00 +9.1004330554626680e+00 +0.0000000000000000e+00 -4.0999998777879432e+00 +1.1371261913607196e-02 -1.0322154931165199e+00 -5.9012685714446518e-02
-4.2000000000000011e+00 +9.1003902483717933e+00 +0.0000000000000000e+00 -4.1999998686252642e+00 +1.1371169225834062e-02 -1.0322196283962439e+00 -5.9012705008039706e-02
-4.3000000000000007e+00 +9.1003464096847555e+00 +0.0000000000000000e+00 -4.2999998590156681e+00 +1.1371074937471196e-02 -1.0322236792597264e+00 -5.9012730705695265e-02
-4.4000000000000004e+00 +9.1003015393975115e+00 +0.0000000000000000e+00 -4.3999998489485108e+00 +1.1370979178455556e-02 -1.0322276470294731e+00 -5.9012762469014192e-02
-4.5000000000000000e+00 +9.1002556375061001e+00 +0.0000000000000000e+00 -4.4999998384131485e+00 +1.1370882078734742e-02 -1.0322315330277496e+00 -5.9012799959490943e-02
-4.5999999999999996e+00 +9.1002087040066417e+00 +0.0000000000000000e+00 -4.5999998273989373e+00 +1.1370783768267717e-02 -1.0322353385766043e+00 -5.9012842838506399e-02
-4.6999999999999993e+00 +9.1001607388953385e+00 +0.0000000000000000e+00 -4.6999998158952341e+00 +1.1370684377025594e-02 -1.0322390649978941e+00 -5.9012890767321233e-02
-4.7999999999999989e+00 +9.1001117421684725e+00 +0.0000000000000000e+00 -4.7999998038913940e+00 +1.1370584034992373e-02 -1.0322427136133066e+00 -5.9012943407069120e-02
-4.8999999999999986e+00 +9.1000617138224005e+00 +0.0000000000000000e+00 -4.8999997913767723e+00 +1.1370482872165718e-02 -1.0322462857443859e+00 -5.9013000418749843e-02
-4.9999999999999982e+00 +9.1000106538535590e+00 +0.0000000000000000e+00 -4.9999997783407260e+00 +1.1370381018557701e-02 -1.0322497827125576e+00 -5.9013061463222688e-02
-5.0999999999999979e+00 +9.0999585622584576e+00 +0.0000000000000000e+00 -5.0999997647726101e+00 +1.1370278604195545e-02 -1.0322532058391527e+00 -5.9013126201199480e-02
-5.1999999999999975e+00 +9.0999054390336820e+00 +0.0000000000000000e+00 -5.1999997506617808e+00 +1.1370175759122393e-02 -1.0322565564454280e+00 -5.9013194293237800e-02
-5.2999999999999972e+00 +9.0998512841758874e+00 +0.0000000000000000e+00 -5.2999997359975932e+00 +1.1370072613398056e-02 -1.0322598358525987e+00 -5.9013265399734366e-02
-5.3999999999999968e+00 +9.0997960976818035e+00 +0.0000000000000000e+00 -5.3999997207694026e+00 +1.1369969297099774e-02 -1.0322630453818555e+00 -5.9013339180918112e-02
-5.4999999999999964e+00 +9.0997398795482276e+00 +0.0000000000000000e+00 -5.4999997049665650e+00 +1.1369865940322913e-02 -1.0322661863543912e+00 -5.9013415296843362e-02
-5.5999999999999961e+00 +9.0996826297720261e+00 +0.0000000000000000e+00 -5.5999996885784356e+00 +1.1369762672373817e-02 -1.0322692620175546e+00 -5.9013493464104054e-02
-5.6999999999999957e+00 +9.0996243483501313e+00 +0.0000000000000000e+00 -5.6999996715943704e+00 +1.1369659619346202e-02 -1.0322722833230333e+00 -5.9013573626073311e-02
-5.7999999999999954e+00 +9.0995650352795288e+00 +0.0000000000000000e+00 -5.7999996540037237e+00 +1.1369556906545272e-02 -1.0322752631479311e+00 -5.9013655782881272e-02
-5.8999999999999950e+00 +9.0995046905572448e+00 +0.0000000000000000e+00 -5.8999996357958508e+00 +1.1369454659296356e-02 -1.0322782143685212e+00 -5.9013739934717278e-02
-5.9999999999999947e+00 +9.0994433141803359e+00 +0.0000000000000000e+00 -5.9999996169601078e+00 +1.1369353002945589e-02 -1.0322811498602291e+00 -5.9013826081833837e-02
-6.0999999999999943e+00 +9.0993809061458748e+00 +0.0000000000000000e+00 -6.0999995974858487e+00 +1.1369252062860697e-02 -1.0322840824976205e+00 -5.9013914224550809e-02
-6.1999999999999940e+00 +9.0993174664509340e+00 +0.0000000000000000e+00 -6.1999995773624290e+00 +1.1369151964431678e-02 -1.0322870251543859e+00 -5.9014004363259494e-02
-6.2999999999999936e+00 +9.0992529950925807e+00 +0.0000000000000000e+00 -6.2999995565792029e+00 +1.1369052833071576e-02 -1.0322899907033254e+00 -5.9014096498426663e-02
-6.3999999999999932e+00 +9.0991874920678555e+00 +0.0000000000000000e+00 -6.3999995351255254e+00 +1.1368954794217193e-02 -1.0322929920163344e+00 -5.9014190630598692e-02
-6.4999999999999929e+00 +9.0991209573737653e+00 +0.0000000000000000e+00 -6.4999995129907520e+00 +1.1368857973329823e-02 -1.0322960419643881e+00 -5.9014286760405633e-02
-6.5999999999999925e+00 +9.0990533910072671e+00 +0.0000000000000000e+00 -6.5999994901642367e+00 +1.1368762495895997e-02 -1.0322991534175283e+00 -5.9014384888565384e-02
-6.6999999999999922e+00 +9.0989847929652576e+00 +0.0000000000000000e+00 -6.6999994666353340e+00 +1.1368668487428219e-02 -1.0323023392448478e+00 -5.9014485015887644e-02
-6.7999999999999918e+00 +9.0989151632445608e+00 +0.0000000000000000e+00 -6.7999994423933972e+00 +1.1368576073465714e-02 -1.0323056123144743e+00 -5.9014587143278070e-02
-6.8999999999999915e+00 +9.0988445018419100e+00 +0.0000000000000000e+00 -6.8999994174277814e+00 +1.1368485379575133e-02 -1.0323089854935577e+00 -5.9014691271742421e-02
-6.9999999999999911e+00 +9.0987728087539406e+00 +0.0000000000000000e+00 -6.9999993917278402e+00 +1.1368396531351351e-02 -1.0323124716482541e+00 -5.9014797402390580e-02
-7.0999999999999908e+00 +9.0987000839771763e+00 +0.0000000000000000e+00 -7.0999993652829279e+00 +1.1368309654418176e-02 -1.0323160836437115e+00 -5.9014905536440683e-02
-7.1999999999999904e+00 +9.0986263275080130e+00 +0.0000000000000000e+00 -7.1999993380823968e+00 +1.1368224874429100e-02 -1.0323198343440545e+00 -5.9015015675223201e-02
-7.2999999999999901e+00 +9.0985515393427097e+00 +0.0000000000000000e+00 -7.2999993101156013e+00 +1.1368142317068054e-02 -1.0323237366123688e+00 -5.9015127820185038e-02
-7.3999999999999897e+00 +9.0984757194773742e+00 +0.0000000000000000e+00 -7.3999992813718940e+00 +1.1368062108050161e-02 -1.0323278033106877e+00 -5.9015241972893623e-02
-7.4999999999999893e+00 +9.0983988679079477e+00 +0.0000000000000000e+00 -7.4999992518406273e+00 +1.1367984373122468e-02 -1.0323320472999751e+00 -5.9015358135040982e-02
-7.5999999999999890e+00 +9.0983209846301971e+00 +0.0000000000000000e+00 -7.5999992215111547e+00 +1.1367909216657547e-02 -1.0323364774021724e+00 -5.9015476268247671e-02
-7.6999999999999886e+00 +9.0982420696397028e+00 +0.0000000000000000e+00 -7.6999991903728278e+00 +1.1367836657394208e-02 -1.0323410862870075e+00 -5.9015596173395822e-02
-7.7999999999999883e+00 +9.0981621229318694e+00 +0.0000000000000000e+00 -7.7999991584149990e+00 +1.1367766692595286e-02 -1.0323458625878055e+00 -5.9015717611116909e-02
-7.8999999999999879e+00 +9.0980811445019310e+00 +0.0000000000000000e+00 -7.8999991256270192e+00 +1.1367699319443951e-02 -1.0323507949399460e+00 -5.9015840341974969e-02
-7.9999999999999876e+00 +9.0979991343449704e+00 +0.0000000000000000e+00 -7.9999990919982409e+00 +1.1367634535040834e-02 -1.0323558719809449e+00 -5.9015964126464163e-02
-8.0999999999999872e+00 +9.0979160924559217e+00 +0.0000000000000000e+00 -8.0999990575180139e+00 +1.1367572336401141e-02 -1.0323610823505427e+00 -5.9016088725006507e-02
-8.1999999999999869e+00 +9.0978320188295871e+00 +0.0000000000000000e+00 -8.1999990221756907e+00 +1.1367512720451764e-02 -1.0323664146907858e+00 -5.9016213897949241e-02
-8.2999999999999865e+00 +9.0977469134606483e+00 +0.0000000000000000e+00 -8.2999989859606220e+00 +1.1367455684028398e-02 -1.0323718576461149e+00 -5.9016339405562473e-02
-8.3999999999999861e+00 +9.0976607763436750e+00 +0.0000000000000000e+00 -8.3999989488621569e+00 +1.1367401223872649e-02 -1.0323773998634471e+00 -5.9016465008036811e-02
-8.4999999999999858e+00 +9.0975736074731390e+00 +0.0000000000000000e+00 -8.4999989108696461e+00 +1.1367349336629119e-02 -1.0323830299922623e+00 -5.9016590465480724e-02
-8.5999999999999854e+00 +9.0974854068434237e+00 +0.0000000000000000e+00 -8.5999988719724403e+00 +1.1367300018842548e-02 -1.0323887366846873e+00 -5.9016715537918374e-02
-8.6999999999999851e+00 +9.0973961744488356e+00 +0.0000000000000000e+00 -8.6999988321598885e+00 +1.1367253266954874e-02 -1.0323945085955826e+00 -5.9016839985286937e-02
-8.7999999999999847e+00 +9.0973059102836178e+00 +0.0000000000000000e+00 -8.7999987914213396e+00 +1.1367209077302362e-02 -1.0324003343826234e+00 -5.9016963567434320e-02
-8.8999999999999844e+00 +9.0972146143419579e+00 +0.0000000000000000e+00 -8.8999987497461426e+00 +1.1367167446112677e-02 -1.0324062027063898e+00 -5.9017086044116610e-02
-8.9999999999999840e+00 +9.0971222866180028e+00 +0.0000000000000000e+00 -8.9999987071236465e+00 +1.1367128369501973e-02 -1.0324121022304467e+00 -5.9017207174995666e-02
-9.0999999999999837e+00 +9.0970289271058657e+00 +0.0000000000000000e+00 -9.0999986635432002e+00 +1.1367091843472022e-02 -1.0324180216214329e+00 -5.9017326719636741e-02
-9.1999999999999833e+00 +9.0969345357996421e+00 +0.0000000000000000e+00 -9.1999986189941527e+00 +1.1367057863907234e-02 -1.0324239495491436e+00 -5.9017444437505950e-02
-9.2999999999999829e+00 +9.0968391126934200e+00 +0.0000000000000000e+00 -9.2999985734658530e+00 +1.1367026426571792e-02 -1.0324298746866174e+00 -5.9017560087967880e-02
-9.3999999999999826e+00 +9.0967426577812880e+00 +0.0000000000000000e+00 -9.3999985269476483e+00 +1.1366997527106706e-02 -1.0324357857102180e+00 -5.9017673430283038e-02
-9.4999999999999822e+00 +9.0966451710573484e+00 +0.0000000000000000e+00 -9.4999984794288874e+00 +1.1366971161026902e-02 -1.0324416712997231e+00 -5.9017784223605624e-02
-9.5999999999999819e+00 +9.0965466525157321e+00 +0.0000000000000000e+00 -9.5999984308989177e+00 +1.1366947289628018e-02 -1.0324475210420712e+00 -5.9017892255710136e-02
-9.6999999999999815e+00 +9.0964471021506039e+00 +0.0000000000000000e+00 -9.6999983813470863e+00 +1.1366925737804191e-02 -1.0324533281417565e+00 -5.9017997429182588e-02
-9.7999999999999812e+00 +9.0963465199561711e+00 +0.0000000000000000e+00 -9.7999983307627403e+00 +1.1366906296493387e-02 -1.0324590867083290e+00 -5.9018099675227170e-02
-9.8999999999999808e+00 +9.0962449059266888e+00 +0.0000000000000000e+00 -9.8999982791352288e+00 +1.1366888756799582e-02 -1.0324647908524629e+00 -5.9018198924932014e-02
-9.9999999999999805e+00 +9.0961422600564692e+00 +0.0000000000000000e+00 -9.9999982264538971e+00 +1.1366872909997560e-02 -1.0324704346859728e+00 -5.9018295109266643e-02
-1.0099999999999980e+01 +9.0960385823398830e+00 +0.0000000000000000e+00 -1.0099998172708094e+01 +1.1366858547537693e-02 -1.0324760123218348e+00 -5.9018388159079602e-02
-1.0199999999999980e+01 +9.0959338727713668e+00 +0.0000000000000000e+00 -1.0199998117887167e+01 +1.1366845461050738e-02 -1.0324815178742075e+00 -5.9018478005095985e-02
-1.0299999999999979e+01 +9.0958281313454297e+00 +0.0000000000000000e+00 -1.0299998061980462e+01 +1.1366833442352633e-02 -1.0324869454584484e+00 -5.9018564577915059e-02
-1.0399999999999979e+01 +9.0957213580566609e+00 +0.0000000000000000e+00 -1.0399998004977327e+01 +1.1366822283449297e-02 -1.0324922891911372e+00 -5.9018647808007689e-02
-1.0499999999999979e+01 +9.0956135528997297e+00 +0.0000000000000000e+00 -1.0499997946867108e+01 +1.1366811776541455e-02 -1.0324975431900933e+00 -5.9018727625714106e-02
-1.0599999999999978e+01 +9.0955047158693993e+00 +0.0000000000000000e+00 -1.0599997887639152e+01 +1.1366801714029418e-02 -1.0325027015743955e+00 -5.9018803961241234e-02
-1.0699999999999978e+01 +9.0953948469605255e+00 +0.0000000000000000e+00 -1.0699997827282804e+01 +1.1366791888517932e-02 -1.0325077584644042e+00 -5.9018876744660435e-02
-1.0799999999999978e+01 +9.0952839461680650e+00 +0.0000000000000000e+00 -1.0799997765787412e+01 +1.1366782092820977e-02 -1.0325127079817769e+00 -5.9018945905905007e-02
-1.0899999999999977e+01 +9.0951720134870850e+00 +0.0000000000000000e+00 -1.0899997703142322e+01 +1.1366772119966603e-02 -1.0325175442494929e+00 -5.9019011374767665e-02
-1.0999999999999977e+01 +9.0950590489127663e+00 +0.0000000000000000e+00 -1.0999997639336883e+01 +1.1366761763201769e-02 -1.0325222613918703e+00 -5.9019073080898279e-02
-1.1099999999999977e+01 +9.0949450524404050e+00 +0.0000000000000000e+00 -1.1099997574360438e+01 +1.1366750815997145e-02 -1.0325268535345862e+00 -5.9019130953801208e-02
-1.1199999999999976e+01 +9.0948300240654252e+00 +0.0000000000000000e+00 -1.1199997508202337e+01 +1.1366739072052013e-02 -1.0325313148046977e+00 -5.9019184922833118e-02
-1.1299999999999976e+01 +9.0947139637833807e+00 +0.0000000000000000e+00 -1.1299997440851925e+01 +1.1366726325299052e-02 -1.0325356393306611e+00 -5.9019234917200250e-02
-1.1399999999999975e+01 +9.0945968715899621e+00 +0.0000000000000000e+00 -1.1399997372298548e+01 +1.1366712369909229e-02 -1.0325398212423513e+00 -5.9019280865956245e-02
-1.1499999999999975e+01 +9.0944787474810020e+00 +0.0000000000000000e+00 -1.1499997302531554e+01 +1.1366697000296650e-02 -1.0325438546710859e+00 -5.9019322697999546e-02
-1.1599999999999975e+01 +9.0943595914524842e+00 +0.0000000000000000e+00 -1.1599997231540289e+01 +1.1366680070847636e-02 -1.0325477359291357e+00 -5.9019360284087177e-02
-1.1699999999999974e+01 +9.0942394035005414e+00 +0.0000000000000000e+00 -1.1699997159314101e+01 +1.1366661674965263e-02 -1.0325514700481890e+00 -5.9019393262976415e-02
