# trajectory
# s[mm] rx[mm] ry[mm] rz[mm] px[rad] py[rad] pz[rad]
0.0000000000000000e+00 +9.1013000000000002e+00 +0.0000000000000000e+00 +0.0000000000000000e+00 +0.0000000000000000e+00 +0.0000000000000000e+00 +1.0000000000000000e+00
1.0000000000000001e-01 +9.1012994844526709e+00 +0.0000000000000000e+00 +9.9999999998228090e-02 -1.0310943734217699e-05 +0.0000000000000000e+00 +9.9999999994684219e-01
2.0000000000000001e-01 +9.1012979378118413e+00 +0.0000000000000000e+00 +1.9999999998582463e-01 -2.0621869830753968e-05 +0.0000000000000000e+00 +9.9999999978736920e-01
3.0000000000000004e-01 +9.1012953600793232e+00 +0.0000000000000000e+00 +2.9999999995215809e-01 -3.0932777353870531e-05 +0.0000000000000000e+00 +9.9999999952158158e-01
4.0000000000000002e-01 +9.1012917512570244e+00 +0.0000000000000000e+00 +3.9999999988659712e-01 -4.1243665281632726e-05 +0.0000000000000000e+00 +9.9999999914948001e-01
5.0000000000000000e-01 +9.1012871113469576e+00 +0.0000000000000000e+00 +4.9999999977851028e-01 -5.1554532505907684e-05 +0.0000000000000000e+00 +9.9999999867106504e-01
5.9999999999999998e-01 +9.1012814403512525e+00 +0.0000000000000000e+00 +5.9999999961726636e-01 -6.1865377837206555e-05 +0.0000000000000000e+00 +9.9999999808633744e-01
6.9999999999999996e-01 +9.1012747382721599e+00 +0.0000000000000000e+00 +6.9999999939223401e-01 -7.2176200057965943e-05 +0.0000000000000000e+00 +9.9999999739529799e-01
7.9999999999999993e-01 +9.1012670051120512e+00 +0.0000000000000000e+00 +7.9999999909278219e-01 -8.2486997975830470e-05 +0.0000000000000000e+00 +9.9999999659794747e-01
8.9999999999999991e-01 +9.1012582408734133e+00 +0.0000000000000000e+00 +8.9999999870827985e-01 -9.2797770428497419e-05 +0.0000000000000000e+00 +9.9999999569428677e-01
9.9999999999999989e-01 +9.1012484455588520e+00 +0.0000000000000000e+00 +9.9999999822809593e-01 -1.0310851628371827e-04 +0.0000000000000000e+00 +9.9999999468431677e-01
1.0999999999999999e+00 +9.1012376191710800e+00 +0.0000000000000000e+00 +1.0999999976415995e+00 -1.1341923443930092e-04 +0.0000000000000000e+00 +9.9999999356803848e-01
1.2000000000000000e+00 +9.1012257617129233e+00 +0.0000000000000000e+00 +1.1999999969381601e+00 -1.2372992382311267e-04 +0.0000000000000000e+00 +9.9999999234545278e-01
1.3000000000000000e+00 +9.1012128731873094e+00 +0.0000000000000000e+00 +1.2999999961071467e+00 -1.3404058339308391e-04 +0.0000000000000000e+00 +9.9999999101656079e-01
1.4000000000000001e+00 +9.1011989535972724e+00 +0.0000000000000000e+00 +1.3999999951379287e+00 -1.4435121213721247e-04 +0.0000000000000000e+00 +9.9999998958136360e-01
1.5000000000000002e+00 +9.1011840029459421e+00 +0.0000000000000000e+00 +1.4999999940198758e+00 -1.5466180907356894e-04 +0.0000000000000000e+00 +9.9999998803986223e-01
1.6000000000000003e+00 +9.1011680212365498e+00 +0.0000000000000000e+00 +1.5999999927423576e+00 -1.6497237325030229e-04 +0.0000000000000000e+00 +9.9999998639205778e-01
1.7000000000000004e+00 +9.1011510084724154e+00 +0.0000000000000000e+00 +1.6999999912947439e+00 -1.7528290374564664e-04 +0.0000000000000000e+00 +9.9999998463795159e-01
1.8000000000000005e+00 +9.1011329646569532e+00 +0.0000000000000000e+00 +1.7999999896664045e+00 -1.8559339966792851e-04 +0.0000000000000000e+00 +9.9999998277754476e-01
1.9000000000000006e+00 +9.1011138897936625e+00 +0.0000000000000000e+00 +1.8999999878467095e+00 -1.9590386015557487e-04 +0.0000000000000000e+00 +9.9999998081083852e-01
2.0000000000000004e+00 +9.1010937838861299e+00 +0.0000000000000000e+00 +1.9999999858250290e+00 -2.0621428437712195e-04 +0.0000000000000000e+00 +9.9999997873783419e-01
2.1000000000000005e+00 +9.1010726469380216e+00 +0.0000000000000000e+00 +2.0999999835907333e+00 -2.1652467153122462e-04 +0.0000000000000000e+00 +9.9999997655853301e-01
2.2000000000000006e+00 +9.1010504789530842e+00 +0.0000000000000000e+00 +2.1999999811331925e+00 -2.2683502084666672e-04 +0.0000000000000000e+00 +9.9999997427293630e-01
2.3000000000000007e+00 +9.1010272799351384e+00 +0.0000000000000000e+00 +2.2999999784417775e+00 -2.3714533158237199e-04 +0.0000000000000000e+00 +9.9999997188104539e-01
2.4000000000000008e+00 +9.1010030498880781e+00 +0.0000000000000000e+00 +2.3999999755058585e+00 -2.4745560302741559e-04 +0.0000000000000000e+00 +9.9999996938286173e-01
2.5000000000000009e+00 +9.1009777888158663e+00 +0.0000000000000000e+00 +2.4999999723148068e+00 -2.5776583450103671e-04 +0.0000000000000000e+00 +9.9999996677838665e-01
2.6000000000000010e+00 +9.1009514967225318e+00 +0.0000000000000000e+00 +2.5999999688579929e+00 -2.6807602535412588e-04 +0.0000000000000000e+00 +9.9999996406762159e-01
2.7000000000000011e+00 +9.1009241736121691e+00 +0.0000000000000000e+00 +2.6999999651247881e+00 -2.7838617498545428e-04 +0.0000000000000000e+00 +9.9999996125056800e-01
2.8000000000000012e+00 +9.1008958194889260e+00 +0.0000000000000000e+00 +2.7999999611045636e+00 -2.8869628285789782e-04 +0.0000000000000000e+00 +9.9999995832722721e-01
2.9000000000000012e+00 +9.1008664343570036e+00 +0.0000000000000000e+00 +2.8999999567866905e+00 -2.9900634849991468e-04 +0.0000000000000000e+00 +9.9999995529760077e-01
3.0000000000000013e+00 +9.1008360182206474e+00 +0.0000000000000000e+00 +2.9999999521605409e+00 -3.0931637150554824e-04 +0.0000000000000000e+00 +9.9999995216169002e-01
3.1000000000000014e+00 +9.1008045710841365e+00 +0.0000000000000000e+00 +3.0999999472154860e+00 -3.1962635153442949e-04 +0.0000000000000000e+00 +9.9999994891949640e-01
3.2000000000000015e+00 +9.1007720929517824e+00 +0.0000000000000000e+00 +3.1999999419408978e+00 -3.2993628831177942e-04 +0.0000000000000000e+00 +9.9999994557102134e-01
3.3000000000000016e+00 +9.1007385838279227e+00 +0.0000000000000000e+00 +3.2999999363261479e+00 -3.4024618162841066e-04 +0.0000000000000000e+00 +9.9999994211626630e-01
3.4000000000000017e+00 +9.1007040437169096e+00 +0.0000000000000000e+00 +3.3999999303606083e+00 -3.5055603134072930e-04 +0.0000000000000000e+00 +9.9999993855523261e-01
3.5000000000000018e+00 +9.1006684726231093e+00 +0.0000000000000000e+00 +3.4999999240336517e+00 -3.6086583737073594e-04 +0.0000000000000000e+00 +9.9999993488792160e-01
3.6000000000000019e+00 +9.1006318705508917e+00 +0.0000000000000000e+00 +3.5999999173346500e+00 -3.7117559970602666e-04 +0.0000000000000000e+00 +9.9999993111433472e-01
3.7000000000000020e+00 +9.1005942375046232e+00 +0.0000000000000000e+00 +3.6999999102529761e+00 -3.8148531839979355e-04 +0.0000000000000000e+00 +9.9999992723447328e-01
3.8000000000000020e+00 +9.1005555734886627e+00 +0.0000000000000000e+00 +3.7999999027780023e+00 -3.9179499357082495e-04 +0.0000000000000000e+00 +9.9999992324833853e-01
3.9000000000000021e+00 +9.1005158785073537e+00 +0.0000000000000000e+00 +3.8999998948991013e+00 -4.0210462540350543e-04 +0.0000000000000000e+00 +9.9999991915593178e-01
4.0000000000000018e+00 +9.1004751525650178e+00 +0.0000000000000000e+00 +3.9999998866056461e+00 -4.1241421414781526e-04 +0.0000000000000000e+00 +9.9999991495725427e-01
4.1000000000000014e+00 +9.1004333956659487e+00 +0.0000000000000000e+00 +4.0999998778870097e+00 -4.2272376011932980e-04 +0.0000000000000000e+00 +9.9999991065230720e-01
4.2000000000000011e+00 +9.1003906078144059e+00 +0.0000000000000000e+00 +4.1999998687325650e+00 -4.3303326369921837e-04 +0.0000000000000000e+00 +9.9999990624109170e-01
4.3000000000000007e+00 +9.1003467890146066e+00 +0.0000000000000000e+00 +4.2999998591316855e+00 -4.4334272533424281e-04 +0.0000000000000000e+00 +9.9999990172360897e-01
4.4000000000000004e+00 +9.1003019392707198e+00 +0.0000000000000000e+00 +4.3999998490737449e+00 -4.5365214553675574e-04 +0.0000000000000000e+00 +9.9999989709986004e-01
4.5000000000000000e+00 +9.1002560585868615e+00 +0.0000000000000000e+00 +4.4999998385481152e+00 -4.6396152488469868e-04 +0.0000000000000000e+00 +9.9999989236984588e-01
4.5999999999999996e+00 +9.1002091469670834e+00 +0.0000000000000000e+00 +4.5999998275441714e+00 -4.7427086401520676e-04 +0.0000000000000000e+00 +9.9999988753356739e-01
4.6999999999999993e+00 +9.1001612044153770e+00 +0.0000000000000000e+00 +4.6999998160512861e+00 -4.8458016355428505e-04 +0.0000000000000000e+00 +9.9999988259102557e-01
4.7999999999999989e+00 +9.1001122309356735e+00 +0.0000000000000000e+00 +4.7999998040588343e+00 -4.9488942404648053e-04 +0.0000000000000000e+00 +9.9999987754222142e-01
4.8999999999999986e+00 +9.1000622265318540e+00 +0.0000000000000000e+00 +4.8999997915561888e+00 -5.0519864594847851e-04 +0.0000000000000000e+00 +9.9999987238715582e-01
4.9999999999999982e+00 +9.1000111912077575e+00 +0.0000000000000000e+00 +4.9999997785327235e+00 -5.1550782962909146e-04 +0.0000000000000000e+00 +9.9999986712582989e-01
5.0999999999999979e+00 +9.0999591249671923e+00 +0.0000000000000000e+00 +5.0999997649778130e+00 -5.2581697536924665e-04 +0.0000000000000000e+00 +9.9999986175824462e-01
5.1999999999999975e+00 +9.0999060278139421e+00 +0.0000000000000000e+00 +5.1999997508808304e+00 -5.3612608336197373e-04 +0.0000000000000000e+00 +9.9999985628440102e-01
5.2999999999999972e+00 +9.0998518997517746e+00 +0.0000000000000000e+00 +5.2999997362311513e+00 -5.4643515371239086e-04 +0.0000000000000000e+00 +9.9999985070430020e-01
5.3999999999999968e+00 +9.0997967407844538e+00 +0.0000000000000000e+00 +5.3999997210181485e+00 -5.5674418643769067e-04 +0.0000000000000000e+00 +9.9999984501794337e-01
5.4999999999999964e+00 +9.0997405509157439e+00 +0.0000000000000000e+00 +5.4999997052311977e+00 -5.6705318146712549e-04 +0.0000000000000000e+00 +9.9999983922533175e-01
5.5999999999999961e+00 +9.0996833301494213e+00 +0.0000000000000000e+00 +5.5999996888596728e+00 -5.7736213864199143e-04 +0.0000000000000000e+00 +9.9999983332646658e-01
5.6999999999999957e+00 +9.0996250784892840e+00 +0.0000000000000000e+00 +5.6999996718929493e+00 -5.8767105771561257e-04 +0.0000000000000000e+00 +9.9999982732134907e-01
5.7999999999999954e+00 +9.0995657959391583e+00 +0.0000000000000000e+00 +5.7999996543204011e+00 -5.9797993835332354e-04 +0.0000000000000000e+00 +9.9999982120998065e-01
5.8999999999999950e+00 +9.0995054825029076e+00 +0.0000000000000000e+00 +5.8999996361314038e+00 -6.0828878013245193e-04 +0.0000000000000000e+00 +9.9999981499236279e-01
5.9999999999999947e+00 +9.0994441381844435e+00 +0.0000000000000000e+00 +5.9999996173153320e+00 -6.1859758254230002e-04 +0.0000000000000000e+00 +9.9999980866849703e-01
6.0999999999999943e+00 +9.0993817629877309e+00 +0.0000000000000000e+00 +6.0999995978615615e+00 -6.2890634498412562e-04 +0.0000000000000000e+00 +9.9999980223838492e-01
6.1999999999999940e+00 +9.0993183569168021e+00 +0.0000000000000000e+00 +6.1999995777594679e+00 -6.3921506677112232e-04 +0.0000000000000000e+00 +9.9999979570202824e-01
6.2999999999999936e+00 +9.0992539199757587e+00 +0.0000000000000000e+00 +6.2999995569984257e+00 -6.4952374712839880e-04 +0.0000000000000000e+00 +9.9999978905942866e-01
6.3999999999999932e+00 +9.0991884521687858e+00 +0.0000000000000000e+00 +6.3999995355678116e+00 -6.5983238519295800e-04 +0.0000000000000000e+00 +9.9999978231058795e-01
6.4999999999999929e+00 +9.0991219535001608e+00 +0.0000000000000000e+00 +6.4999995134570021e+00 -6.7014098001367487e-04 +0.0000000000000000e+00 +9.9999977545550811e-01
6.5999999999999925e+00 +9.0990544239742590e+00 +0.0000000000000000e+00 +6.5999994906553727e+00 -6.8044953055914476e-04 +0.0000000000000000e+00 +9.9999976849419125e-01
6.6999999999999922e+00 +9.0989858635955585e+00 +0.0000000000000000e+00 +6.6999994671522991e+00 -6.9075803580423715e-04 +0.0000000000000000e+00 +9.9999976142663938e-01
6.7999999999999918e+00 +9.0989162723686388e+00 +0.0000000000000000e+00 +6.7999994429371586e+00 -7.0106649481665041e-04 +0.0000000000000000e+00 +9.9999975425285459e-01
6.8999999999999915e+00 +9.0988456502981645e+00 +0.0000000000000000e+00 +6.8999994179993287e+00 -7.1137490676475830e-04 +0.0000000000000000e+00 +9.9999974697283889e-01
6.9999999999999911e+00 +9.0987739973888786e+00 +0.0000000000000000e+00 +6.9999993923281858e+00 -7.2168327091758501e-04 +0.0000000000000000e+00 +9.9999973958659427e-01
7.0999999999999908e+00 +9.0987013136455950e+00 +0.0000000000000000e+00 +7.0999993659131064e+00 -7.3199158664477950e-04 +0.0000000000000000e+00 +9.9999973209412263e-01
7.1999999999999904e+00 +9.0986275990731826e+00 +0.0000000000000000e+00 +7.1999993387434689e+00 -7.4229985341658922e-04 +0.0000000000000000e+00 +9.9999972449542585e-01
7.2999999999999901e+00 +9.0985528536765585e+00 +0.0000000000000000e+00 +7.2999993108086505e+00 -7.5260807080383284e-04 +0.0000000000000000e+00 +9.9999971679050581e-01
7.3999999999999897e+00 +9.0984770774606787e+00 +0.0000000000000000e+00 +7.3999992820980296e+00 -7.6291623847787296e-04 +0.0000000000000000e+00 +9.9999970897936419e-01
7.4999999999999893e+00 +9.0984002704305276e+00 +0.0000000000000000e+00 +7.4999992526009835e+00 -7.7322435621058716e-04 +0.0000000000000000e+00 +9.9999970106200275e-01
7.5999999999999890e+00 +9.0983224325911056e+00 +0.0000000000000000e+00 +7.5999992223068897e+00 -7.8353242387433936e-04 +0.0000000000000000e+00 +9.9999969303842318e-01
7.6999999999999886e+00 +9.0982435639474222e+00 +0.0000000000000000e+00 +7.6999991912051273e+00 -7.9384044144194970e-04 +0.0000000000000000e+00 +9.9999968490862701e-01
7.7999999999999883e+00 +9.0981636645044848e+00 +0.0000000000000000e+00 +7.7999991592850746e+00 -8.0414840898666439e-04 +0.0000000000000000e+00 +9.9999967667261580e-01
7.8999999999999879e+00 +9.0980827342672868e+00 +0.0000000000000000e+00 +7.8999991265361098e+00 -8.1445632668212403e-04 +0.0000000000000000e+00 +9.9999966833039089e-01
7.9999999999999876e+00 +9.0980007732408001e+00 +0.0000000000000000e+00 +7.9999990929476121e+00 -8.2476419480233233e-04 +0.0000000000000000e+00 +9.9999965988195361e-01
8.0999999999999872e+00 +9.0979177814299650e+00 +0.0000000000000000e+00 +8.0999990585089598e+00 -8.3507201372162319e-04 +0.0000000000000000e+00 +9.9999965132730517e-01
8.1999999999999869e+00 +9.0978337588396787e+00 +0.0000000000000000e+00 +8.1999990232095321e+00 -8.4537978391462749e-04 +0.0000000000000000e+00 +9.9999964266644659e-01
8.2999999999999865e+00 +9.0977487054747872e+00 +0.0000000000000000e+00 +8.2999989870387090e+00 -8.5568750595623930e-04 +0.0000000000000000e+00 +9.9999963389937907e-01
8.3999999999999861e+00 +9.0976626213400706e+00 +0.0000000000000000e+00 +8.3999989499858678e+00 -8.6599518052158124e-04 +0.0000000000000000e+00 +9.9999962502610340e-01
8.4999999999999858e+00 +9.0975755064402399e+00 +0.0000000000000000e+00 +8.4999989120403896e+00 -8.7630280838596887e-04 +0.0000000000000000e+00 +9.9999961604662035e-01
8.5999999999999854e+00 +9.0974873607799207e+00 +0.0000000000000000e+00 +8.5999988731916517e+00 -8.8661039042569560e-04 +0.0000000000000000e+00 +9.9999960696093060e-01
8.6999999999999851e+00 +9.0973981843636480e+00 +0.0000000000000000e+00 +8.6999988334290350e+00 -8.9691792762703769e-04 +0.0000000000000000e+00 +9.9999959776903469e-01
8.7999999999999847e+00 +9.0973079771958520e+00 +0.0000000000000000e+00 +8.7999987927419188e+00 -9.0722542109533059e-04 +0.0000000000000000e+00 +9.9999958847093307e-01
8.8999999999999844e+00 +9.0972167392808458e+00 +0.0000000000000000e+00 +8.8999987511196821e+00 -9.1753287205588062e-04 +0.0000000000000000e+00 +9.9999957906662584e-01
8.9999999999999840e+00 +9.0971244706228127e+00 +0.0000000000000000e+00 +8.9999987085517041e+00 -9.2784028185406177e-04 +0.0000000000000000e+00 +9.9999956955611313e-01
9.0999999999999837e+00 +9.0970311712257974e+00 +0.0000000000000000e+00 +9.0999986650273641e+00 -9.3814765195541507e-04 +0.0000000000000000e+00 +9.9999955993939482e-01
9.1999999999999833e+00 +9.0969368410936919e+00 +0.0000000000000000e+00 +9.1999986205360429e+00 -9.4845498394575099e-04 +0.0000000000000000e+00 +9.9999955021647069e-01
9.2999999999999829e+00 +9.0968414802302213e+00 +0.0000000000000000e+00 +9.2999985750671179e+00 -9.5876227953125539e-04 +0.0000000000000000e+00 +9.9999954038734018e-01
9.3999999999999826e+00 +9.0967450886389383e+00 +0.0000000000000000e+00 +9.3999985286099701e+00 -9.6906954053859785e-04 +0.0000000000000000e+00 +9.9999953045200274e-01
9.4999999999999822e+00 +9.0966476663232019e+00 +0.0000000000000000e+00 +9.4999984811539786e+00 -9.7937676891504330e-04 +0.0000000000000000e+00 +9.9999952041045748e-01
9.5999999999999819e+00 +9.0965492132861741e+00 +0.0000000000000000e+00 +9.5999984326885226e+00 -9.8968396672856644e-04 +0.0000000000000000e+00 +9.9999951026270328e-01
9.6999999999999815e+00 +9.0964497295308018e+00 +0.0000000000000000e+00 +9.6999983832029795e+00 -9.9999113616796968e-04 +0.0000000000000000e+00 +9.9999950000873905e-01
9.7999999999999812e+00 +9.0963492150598082e+00 +0.0000000000000000e+00 +9.7999983326867302e+00 -1.0102982795430037e-03 +0.0000000000000000e+00 +9.9999948964856322e-01
9.8999999999999808e+00 +9.0962476698756802e+00 +0.0000000000000000e+00 +9.8999982811291520e+00 -1.0206053992844911e-03 +0.0000000000000000e+00 +9.9999947918217413e-01
9.9999999999999805e+00 +9.0961450939806543e+00 +0.0000000000000000e+00 +9.9999982285196243e+00 -1.0309124979444523e-03 +0.0000000000000000e+00 +9.9999946860956990e-01
1.0099999999999980e+01 +9.0960414873767057e+00 +0.0000000000000000e+00 +1.0099998174847526e+01 -1.0412195781962365e-03 +0.0000000000000000e+00 +9.9999945793074840e-01
1.0199999999999980e+01 +9.0959368500655362e+00 +0.0000000000000000e+00 +1.0199998120102235e+01 -1.0515266428346535e-03 +0.0000000000000000e+00 +9.9999944714570721e-01
1.0299999999999979e+01 +9.0958311820485616e+00 +0.0000000000000000e+00 +1.0299998064273128e+01 -1.0618336947761091e-03 +0.0000000000000000e+00 +9.9999943625444376e-01
1.0399999999999979e+01 +9.0957244833269026e+00 +0.0000000000000000e+00 +1.0399998007349582e+01 -1.0721407370587451e-03 +0.0000000000000000e+00 +9.9999942525695518e-01
1.0499999999999979e+01 +9.0956167539013677e+00 +0.0000000000000000e+00 +1.0499997949320978e+01 -1.0824477728425793e-03 +0.0000000000000000e+00 +9.9999941415323834e-01
1.0599999999999978e+01 +9.0955079937724417e+00 +0.0000000000000000e+00 +1.0599997890176690e+01 -1.0927548054014123e-03 +0.0000000000000000e+00 +9.9999940294328982e-01
1.0699999999999978e+01 +9.0953982029402844e+00 +0.0000000000000000e+00 +1.0699997829906096e+01 -1.1030618380323139e-03 +0.0000000000000000e+00 +9.9999939162710605e-01
1.0799999999999978e+01 +9.0952873814047255e+00 +0.0000000000000000e+00 +1.0799997768498571e+01 -1.1133688739649824e-03 +0.0000000000000000e+00 +9.9999938020468349e-01
1.0899999999999977e+01 +9.0951755291652763e+00 +0.0000000000000000e+00 +1.0899997705943491e+01 -1.1236759163534326e-03 +0.0000000000000000e+00 +9.9999936867601857e-01
1.0999999999999977e+01 +9.0950626462211375e+00 +0.0000000000000000e+00 +1.0999997642230232e+01 -1.1339829682759175e-03 +0.0000000000000000e+00 +9.9999935704110754e-01
1.1099999999999977e+01 +9.0949487325712042e+00 +0.0000000000000000e+00 +1.1099997577348169e+01 -1.1442900327348479e-03 +0.0000000000000000e+00 +9.9999934529994661e-01
1.1199999999999976e+01 +9.0948337882140748e+00 +0.0000000000000000e+00 +1.1199997511286679e+01 -1.1545971126567093e-03 +0.0000000000000000e+00 +9.9999933345253200e-01
1.1299999999999976e+01 +9.0947178131480619e+00 +0.0000000000000000e+00 +1.1299997444035133e+01 -1.1649042108919773e-03 +0.0000000000000000e+00 +9.9999932149885995e-01
1.1399999999999975e+01 +9.0946008073711937e+00 +0.0000000000000000e+00 +1.1399997375582908e+01 -1.1752113302150302e-03 +0.0000000000000000e+00 +9.9999930943892668e-01
1.1499999999999975e+01 +9.0944827708812266e+00 +0.0000000000000000e+00 +1.1499997305919376e+01 -1.1855184733240594e-03 +0.0000000000000000e+00 +9.9999929727272818e-01
1.1599999999999975e+01 +9.0943637036756488e+00 +0.0000000000000000e+00 +1.1599997235033911e+01 -1.1958256428409773e-03 +0.0000000000000000e+00 +9.9999928500026070e-01
1.1699999999999974e+01 +9.0942436057516929e+00 +0.0000000000000000e+00 +1.1699997162915885e+01 -1.2061328413113235e-03 +0.0000000000000000e+00 +9.9999927262152033e-01
1.1799999999999974e+01 +9.0941224771063389e+00 +0.0000000000000000e+00 +1.1799997089554672e+01 -1.2164400712041694e-03 +0.0000000000000000e+00 +9.9999926013650320e-01
