# multipoles
# s[mm] polynom_b[n=0][T/m^n] polynom_b[n=1][T/m^n] polynom_b[n=2][T/m^n] polynom_b[n=3][T/m^n] polynom_b[n=4][T/m^n] polynom_b[n=5][T/m^n] polynom_b[n=6][T/m^n] 
+0.0000000000000000e+00 -1.0352343545056730e+00 +2.2857625425294628e+00 +2.4987084445074540e+01 +1.9746871504292966e+02 -1.1326923954186626e+05 -3.8167499146690837e+05 +5.9675000056824863e+08 
-1.0000000000000001e-01 -1.0352330484744257e+00 +2.2861285246589773e+00 +2.4985587199518775e+01 +1.9239963356490577e+02 -1.1291645158443371e+05 -3.4465814621281053e+05 +5.9481060543474519e+08 
-2.0000000000000001e-01 -1.0352316518586389e+00 +2.2864894230301598e+00 +2.4977204865162637e+01 +1.8760866757162702e+02 -1.1247484163918710e+05 -3.0920003460980725e+05 +5.9252883767265582e+08 
-3.0000000000000004e-01 -1.0352301762327580e+00 +2.2868459074261471e+00 +2.4962697568275516e+01 +1.8307064311212667e+02 -1.1195705858592302e+05 -2.7526912869547005e+05 +5.8995914163277125e+08 
-4.0000000000000002e-01 -1.0352286331712275e+00 +2.2871986476609618e+00 +2.4942825431390538e+01 +1.7876038609348066e+02 -1.1137575122578820e+05 -2.4283390239581084e+05 +5.8715596131732023e+08 
-5.0000000000000000e-01 -1.0352270342483560e+00 +2.2875483135635131e+00 +2.4918348554632750e+01 +1.7465272277368922e+02 -1.1074356787400255e+05 -2.1186283453695427e+05 +5.8417373826006043e+08 
-5.9999999999999998e-01 -1.0352253910383562e+00 +2.2878955749734367e+00 +2.4890027018236804e+01 +1.7072247991230120e+02 -1.1007315636178214e+05 -1.8232440984141221e+05 +5.8106691137974560e+08 
-6.9999999999999996e-01 -1.0352237151152781e+00 +2.2882411017152622e+00 +2.4858620872776470e+01 +1.6694448556273738e+02 -1.0937716380691300e+05 -1.5418712371793806e+05 +5.7788991573540497e+08 
-7.9999999999999993e-01 -1.0352220180530536e+00 +2.2885855635958601e+00 +2.4824890143385968e+01 +1.6329356917681105e+02 -1.0866823665370180e+05 -1.2741948300804661e+05 +5.7469718257041574e+08 
-8.9999999999999991e-01 -1.0352203114254197e+00 +2.2889296303872384e+00 +2.4789594817345545e+01 +1.5974456213783435e+02 -1.0795902038658409e+05 -1.0199000922116132e+05 +5.7154313778465009e+08 
-9.9999999999999989e-01 -1.0352186068058820e+00 +2.2892739718157853e+00 +2.4753494838487530e+01 +1.5627229811079951e+02 -1.0726215938117413e+05 -7.7867240743236354e+04 +5.6848220106949747e+08 
-1.0999999999999999e+00 -1.0352169157677640e+00 +2.2896192575444854e+00 +2.4717350111689957e+01 +1.5285161358162327e+02 -1.0659029695049817e+05 -5.5019736080553499e+04 +5.6556878599367821e+08 
-1.2000000000000000e+00 -1.0352152498840963e+00 +2.2899661571674650e+00 +2.4681920486387174e+01 +1.4945734806918847e+02 -1.0595607497692438e+05 -3.3416075302909470e+04 +5.6285729806385624e+08 
-1.3000000000000000e+00 -1.0352136207276699e+00 +2.2903153401901268e+00 +2.4647965761895662e+01 +1.4606434471714425e+02 -1.0537213397530178e+05 -1.3024863570762414e+04 +5.6040213489189875e+08 
-1.4000000000000001e+00 -1.0352120398709557e+00 +2.2906674760200114e+00 +2.4616245676377815e+01 +1.4264745060323420e+02 -1.0485111284297255e+05 +6.1852668859485484e+03 +5.5825768486085987e+08 
-1.5000000000000002e+00 -1.0352105188861203e+00 +2.2910232339520973e+00 +2.4587519904822351e+01 +1.3918151719295159e+02 -1.0440564876160589e+05 +2.4245654109679403e+04 +5.5647832647186506e+08 
-1.6000000000000003e+00 -1.0352090667705063e+00 +2.2913833440206690e+00 +2.4562418376814893e+01 +1.3564355231179073e+02 -1.0404596323452730e+05 +4.1198379628308816e+04 +5.5510752422629130e+08 
-1.7000000000000004e+00 -1.0352076823324492e+00 +2.2917487847540174e+00 +2.4541066588064435e+01 +1.3201834067500081e+02 -1.0377297235104795e+05 +5.7132281313854779e+04 +5.5414646206280863e+08 
-1.8000000000000005e+00 -1.0352063618598253e+00 +2.2921205977926564e+00 +2.4523467423742968e+01 +1.2829241172803546e+02 -1.0358535105184627e+05 +7.2148837747074067e+04 +5.5358607611066735e+08 
-1.9000000000000006e+00 -1.0352051016405386e+00 +2.2924998247462072e+00 +2.4509623757402345e+01 +1.2445229598770268e+02 -1.0348177386590115e+05 +8.6349521547241588e+04 +5.5341729998806357e+08 
-2.0000000000000004e+00 -1.0352038979625049e+00 +2.2928875071972947e+00 +2.4499538448156226e+01 +1.2048452484377528e+02 -1.0346091486853451e+05 +9.9835800928731565e+04 +5.5363106466102350e+08 
-2.1000000000000005e+00 -1.0352027471137590e+00 +2.2932846867107894e+00 +2.4493214355013027e+01 +1.1637563017893450e+02 -1.0352144797515871e+05 +1.1270914244412877e+05 +5.5421829991869974e+08 
-2.2000000000000006e+00 -1.0352016453823651e+00 +2.2936924048285996e+00 +2.4490654325918818e+01 +1.1211214442151859e+02 -1.0366204675174456e+05 +1.2507101114822172e+05 +5.5516993354289341e+08 
-2.3000000000000007e+00 -1.0352005890565539e+00 +2.2941117030815228e+00 +2.4491861214433527e+01 +1.0768060010702344e+02 -1.0388138474052113e+05 +1.3702287363847945e+05 +5.5647689290167284e+08 
-2.4000000000000008e+00 -1.0351995744247111e+00 +2.2945436229899001e+00 +2.4496837878941612e+01 +1.0306752975467232e+02 -1.0417813547044455e+05 +1.4866619926129904e+05 +5.5813010509120345e+08 
-2.5000000000000009e+00 -1.0351985977753908e+00 +2.2949892060625774e+00 +2.4505587184075420e+01 +9.8259465801235933e+01 -1.0455097249600822e+05 +1.6010246098999024e+05 +5.6012049717174459e+08 
-2.6000000000000010e+00 -1.0351976553973585e+00 +2.2954494938102790e+00 +2.4518112006661660e+01 +9.3242940101560038e+01 -1.0499856952845848e+05 +1.7143313884961265e+05 +5.6243899686153376e+08 
-2.7000000000000011e+00 -1.0351967435796594e+00 +2.2959255277422175e+00 +2.4534415244111717e+01 +8.8004483942419824e+01 -1.0551960061280165e+05 +1.8275972027213551e+05 +5.6507653344913721e+08 
-2.8000000000000012e+00 -1.0351958586115639e+00 +2.2964183493712365e+00 +2.4554499807660502e+01 +8.2530627774865167e+01 -1.0611274001395010e+05 +1.9418370221668328e+05 +5.6802403730981648e+08 
-2.9000000000000012e+00 -1.0351949967826712e+00 +2.2969290002215645e+00 +2.4578368635911204e+01 +7.6807900914365632e+01 -1.0677666249310960e+05 +2.0580659331068012e+05 +5.7127244129506981e+08 
-3.0000000000000013e+00 -1.0351941543829053e+00 +2.2974585218235202e+00 +2.4606024693608575e+01 +7.0822831558517450e+01 -1.0751004329846252e+05 +2.1772991435536553e+05 +5.7481268074546969e+08 
-3.1000000000000014e+00 -1.0351933277025711e+00 +2.2980079557290338e+00 +2.4637470980364522e+01 +6.4561946274801926e+01 -1.0831155835530786e+05 +2.3005520167571277e+05 +5.7863569448359740e+08 
-3.2000000000000015e+00 -1.0351925130323165e+00 +2.2985783435068941e+00 +2.4672710523664094e+01 +5.8011770015930729e+01 -1.0917988413452926e+05 +2.4288400759432654e+05 +5.8273242421044290e+08 
-3.3000000000000016e+00 -1.0351917066632421e+00 +2.2991707267478838e+00 +2.4711746395354027e+01 +5.1158825861120924e+01 -1.1011369800163693e+05 +2.5631790245061577e+05 +5.8709381628592622e+08 
-3.4000000000000017e+00 -1.0351909048869086e+00 +2.2997861470732563e+00 +2.4754581710598483e+01 +4.3989634703470458e+01 -1.1111167819947015e+05 +2.7045847681414167e+05 +5.9171082167401910e+08 
-3.5000000000000018e+00 -1.0351901039953237e+00 +2.3004256461345785e+00 +2.4801219628130365e+01 +3.6490715014545366e+01 -1.1217250389261689e+05 +2.8540734339117061e+05 +5.9657439626140571e+08 
-3.6000000000000019e+00 -1.0351893010060853e+00 +2.3010898770580668e+00 +2.4851635551882836e+01 +2.8653199177253985e+01 -1.1329462244968512e+05 +3.0125056894427142e+05 +6.0167519704134297e+08 
-3.7000000000000020e+00 -1.0351884956951740e+00 +2.3017779749426137e+00 +2.4905690213231907e+01 +2.0487577395424406e+01 -1.1447534807953059e+05 +3.1800563944590621e+05 +6.0700135977428925e+08 
-3.8000000000000020e+00 -1.0351876884946061e+00 +2.3024887048967062e+00 +2.4963214995230889e+01 +1.2009359663957417e+01 -1.1571166922265064e+05 +3.3567158926135470e+05 +6.1254010853079975e+08 
-3.9000000000000021e+00 -1.0351868798365493e+00 +2.3032208320048753e+00 +2.5024041316072434e+01 +3.2340568079737460e+00 -1.1700057523879826e+05 +3.5424744716900773e+05 +6.1827867253935444e+08 
-4.0000000000000018e+00 -1.0351860701533118e+00 +2.3039731213286379e+00 +2.5088000628163790e+01 -5.8228195296395802e+00 -1.1833905640361202e+05 +3.7373223615945317e+05 +6.2420428622289395e+08 
-4.1000000000000014e+00 -1.0351852598773170e+00 +2.3047443379084092e+00 +2.5154924417181981e+01 -1.5145756904841051e+01 -1.1972410391554680e+05 +3.9412497328654921e+05 +6.3030418930263638e+08 
-4.2000000000000011e+00 -1.0351844494411466e+00 +2.3055332467613505e+00 +2.5224644209889711e+01 -2.4719242020977614e+01 -1.2115271007267421e+05 +4.1542466927407653e+05 +6.3656562772059143e+08 
-4.3000000000000007e+00 -1.0351836392775122e+00 +2.3063386128807348e+00 +2.5296991572029086e+01 -3.4527760645318530e+01 -1.2262186825028298e+05 +4.3763032771823241e+05 +6.4297585358300972e+08 
-4.4000000000000004e+00 -1.0351828298192649e+00 +2.3071592012352924e+00 +2.5371798111357457e+01 -4.4555797600879103e+01 -1.2412857298334537e+05 +4.6074094494742976e+05 +6.4952212562445295e+08 
-4.5000000000000000e+00 -1.0351820214993868e+00 +2.3079937767682401e+00 +2.5448895478654865e+01 -5.4787836701026855e+01 -1.2566982001100104e+05 +4.8475550939644943e+05 +6.5619170949274087e+08 
-4.5999999999999996e+00 -1.0351812147510093e+00 +2.3088411043995025e+00 +2.5528115371709546e+01 -6.5208360798619367e+01 -1.2724260637142998e+05 +5.0967300173768419e+05 +6.6297187825515175e+08 
-4.6999999999999993e+00 -1.0351804100074289e+00 +2.3096999490238130e+00 +2.5609289539879494e+01 -7.5801851696321677e+01 -1.2884393051925427e+05 +5.3549239412257576e+05 +6.6984991304264426e+08 
-4.7999999999999989e+00 -1.0351796077020603e+00 +2.3105690755049220e+00 +2.5692249778802928e+01 -8.6552789976266553e+01 -1.3047079223658342e+05 +5.6221264905588317e+05 +6.7681310266473556e+08 
-4.8999999999999986e+00 -1.0351788082684161e+00 +2.3114472486868332e+00 +2.5776827931023938e+01 -9.7445655284229176e+01 -1.3212019268050967e+05 +5.8983272080550331e+05 +6.8384874393356287e+08 
-4.9999999999999982e+00 -1.0351780121402809e+00 +2.3123332333822675e+00 +2.5862855908796302e+01 -1.0846492598793355e+02 -1.3378913482980407e+05 +6.1835155327184591e+05 +6.9094414382946789e+08 
-5.0999999999999979e+00 -1.0351772197514286e+00 +2.3132257943781109e+00 +2.5950165661106563e+01 -1.1959507929477527e+02 -1.3547462288730542e+05 +6.4776808041946602e+05 +6.9808661674082124e+08 
-5.1999999999999975e+00 -1.0351764315358918e+00 +2.3141236964333705e+00 +2.6038589209273912e+01 -1.3082059119627451e+02 -1.3717366297941530e+05 +6.7808122584565124e+05 +7.0526348785731065e+08 
-5.2999999999999972e+00 -1.0351756479277918e+00 +2.3150257042765006e+00 +2.6127958626668239e+01 -1.4212593634355571e+02 -1.3888326278741963e+05 +7.0928990178618790e+05 +7.1246209146621430e+08 
-5.3999999999999968e+00 -1.0351748693614209e+00 +2.3159305826097314e+00 +2.6218106052422442e+01 -1.5349558815411487e+02 -1.4060043184191617e+05 +7.4139300955942599e+05 +7.1966977244797492e+08 
-5.4999999999999964e+00 -1.0351740962712128e+00 +2.3168370960994857e+00 +2.6308863687802841e+01 -1.6491401849468559e+02 -1.4232218147008124e+05 +7.7438943568710051e+05 +7.2687388591472805e+08 
-5.5999999999999961e+00 -1.0351733288873461e+00 +2.3177438575761040e+00 +2.6399992864821627e+01 -1.7636341125689862e+02 -1.4404430303102973e+05 +8.0825130555579602e+05 +7.3405672018723714e+08 
-5.6999999999999957e+00 -1.0351725665656337e+00 +2.3186489473945811e+00 +2.6490972866286480e+01 -1.8781740463586996e+02 -1.4575768913444280e+05 +8.4284092139863595e+05 +7.4118129702341425e+08 
-5.7999999999999954e+00 -1.0351718084211752e+00 +2.3195503303983842e+00 +2.6581211472165744e+01 -1.9924759550041503e+02 -1.4745198013134723e+05 +8.7799137019568193e+05 +7.4820598971018910e+08 
-5.8999999999999950e+00 -1.0351710535681191e+00 +2.3204459717054764e+00 +2.6670116361609686e+01 -2.1062559004078082e+02 -1.4911681425746757e+05 +9.1353579102355230e+05 +7.5508916066675031e+08 
-5.9999999999999947e+00 -1.0351703011196720e+00 +2.3213338367191581e+00 +2.6757095116146353e+01 -2.2192300444709213e+02 -1.5074182766972150e+05 +9.4930738297106884e+05 +7.6178916123038018e+08 
-6.0999999999999943e+00 -1.0351695501880143e+00 +2.3222118911311207e+00 +2.6841555208748030e+01 -2.3311146507665873e+02 -1.5231665421828089e+05 +9.8513940620354714e+05 +7.6826433049015713e+08 
-6.1999999999999940e+00 -1.0351687998843335e+00 +2.3230781009423360e+00 +2.6922904009686331e+01 -2.4416260914371725e+02 -1.5383092554671908e+05 +1.0208651860970836e+06 +7.7447299570369065e+08 
-6.2999999999999936e+00 -1.0351680493187221e+00 +2.3239304324743344e+00 +2.7000548773160077e+01 -2.5504808509885987e+02 -1.5527427081999829e+05 +1.0563181154667127e+06 +7.8037347092982304e+08 
-6.3999999999999932e+00 -1.0351672976001212e+00 +2.3247668523742968e+00 +2.7073896631144688e+01 -2.6573955285830721e+02 -1.5663631659249510e+05 +1.0913316560172383e+06 +7.8592405632880521e+08 
-6.4999999999999929e+00 -1.0351665438363304e+00 +2.3255853276380654e+00 +2.7142354595527568e+01 -2.7620868454566784e+02 -1.5790668683655211e+05 +1.1257393427407930e+06 +7.9108303824185169e+08 
-6.5999999999999925e+00 -1.0351657871339470e+00 +2.3263838256111726e+00 +2.7205329550163917e+01 -2.8642716458896183e+02 -1.5907500277130443e+05 +1.1593747845546918e+06 +7.9580868829197264e+08 
-6.6999999999999922e+00 -1.0351650265982757e+00 +2.3271603140101487e+00 +2.7262228240404788e+01 -2.9636669040809670e+02 -1.6013088265108262e+05 +1.1920716683772132e+06 +8.0005926231683898e+08 
-6.7999999999999918e+00 -1.0351642613333796e+00 +2.3279127609285761e+00 +2.7312457280524946e+01 -3.0599897267233058e+02 -1.6106394189378474e+05 +1.2236637607331029e+06 +8.0379300091597176e+08 
-6.8999999999999915e+00 -1.0351634904419305e+00 +2.3286391348521001e+00 +2.7355423134578981e+01 -3.1529573579545348e+02 -1.6186379269606850e+05 +1.2539849106869081e+06 +8.0696812753699827e+08 
-6.9999999999999911e+00 -1.0351627130252647e+00 +2.3293374046685829e+00 +2.7390532124279989e+01 -3.2422871831327257e+02 -1.6252004417277194e+05 +1.2828690521493787e+06 +8.0954284908333147e+08 
-7.0999999999999908e+00 -1.0351619281832320e+00 +2.3300055396823645e+00 +2.7417190410877744e+01 -3.3276967335826191e+02 -1.6302230199675087e+05 +1.3101502066967825e+06 +8.1147535412959003e+08 
-7.1999999999999904e+00 -1.0351611350142766e+00 +2.3306415096281756e+00 +2.7434804005012904e+01 -3.4089036914715092e+02 -1.6336016856623758e+05 +1.3356624865185362e+06 +8.1272381363570011e+08 
-7.2999999999999901e+00 -1.0351603326152896e+00 +2.3312432846750406e+00 +2.7442778749255112e+01 -3.4856258916073773e+02 -1.6352324266178801e+05 +1.3592400955400511e+06 +8.1324637925853813e+08 
-7.3999999999999897e+00 -1.0351595200816024e+00 +2.3318088354491451e+00 +2.7440520318077986e+01 -3.5575813287218716e+02 -1.6350111943321594e+05 +1.3807173337180633e+06 +8.1300118322810495e+08 
-7.4999999999999893e+00 -1.0351586965069375e+00 +2.3323361330387851e+00 +2.7427434215811733e+01 -3.6244881468323308e+02 -1.6328339018460418e+05 +1.3999285915657186e+06 +8.1194633703232861e+08 
-7.5999999999999890e+00 -1.0351578615460473e+00 +2.3328236916760465e+00 +2.7403165844323208e+01 -3.6861084079107809e+02 -1.6286369564267853e+05 +1.4167296270829770e+06 +8.1005626545896673e+08 
-7.6999999999999886e+00 -1.0351570171361559e+00 +2.3332718526011735e+00 +2.7368279094950839e+01 -3.7423561827323732e+02 -1.6225160044283318e+05 +1.4310762451435525e+06 +8.0736902184276175e+08 
-7.7999999999999883e+00 -1.0351561658137098e+00 +2.3336813300459944e+00 +2.7323561871999051e+01 -3.7931770633969921e+02 -1.6146065173949790e+05 +1.4429538610323262e+06 +8.0393834709338558e+08 
-7.8999999999999879e+00 -1.0351553101157631e+00 +2.3340528378332448e+00 +2.7269802169576412e+01 -3.8385165145521921e+02 -1.6050439895049448e+05 +1.4523478298155046e+06 +7.9981799396452284e+08 
-7.9999999999999876e+00 -1.0351544525796934e+00 +2.3343870893778753e+00 +2.7207788028549825e+01 -3.8783198628764649e+02 -1.5939639297207232e+05 +1.4592434253184993e+06 +7.9506172458863771e+08 
-8.0999999999999872e+00 -1.0351535957433040e+00 +2.3346847976773115e+00 +2.7138307549660681e+01 -3.9125322934905114e+02 -1.5815018644834077e+05 +1.4636258380046522e+06 +7.8972331184227836e+08 
-8.1999999999999869e+00 -1.0351527421448388e+00 +2.3349466752902006e+00 +2.7062148895048491e+01 -3.9410988426940492e+02 -1.5677933381602715e+05 +1.4654801706201457e+06 +7.8385653962879562e+08 
-8.2999999999999865e+00 -1.0351518943229152e+00 +2.3351734343224244e+00 +2.6980100279254820e+01 -3.9639643933471177e+02 -1.5529739115286188e+05 +1.4647914355217731e+06 +7.7751520224330211e+08 
-8.3999999999999861e+00 -1.0351510548166765e+00 +2.3353657864145259e+00 +2.6892949988659907e+01 -3.9810736701633385e+02 -1.5371791656796151e+05 +1.4615445518319649e+06 +7.7075310631376731e+08 
-8.4999999999999858e+00 -1.0351502261657406e+00 +2.3355244427205966e+00 +2.6801486374702694e+01 -3.9923712328894976e+02 -1.5205447009270184e+05 +1.4557243414426055e+06 +7.6362407036787212e+08 
-8.5999999999999854e+00 -1.0351494109102430e+00 +2.3356501138955350e+00 +2.6706497858896238e+01 -3.9978014716488286e+02 -1.5032061379053365e+05 +1.4473155262184271e+06 +7.5618192542036200e+08 
-8.6999999999999851e+00 -1.0351486115908479e+00 +2.3357435100759254e+00 +2.6608772934136525e+01 -3.9973086005908038e+02 -1.4852991180511646e+05 +1.4363027242552184e+06 +7.4848051529911780e+08 
-8.7999999999999847e+00 -1.0351478307487789e+00 +2.3358053408656674e+00 +2.6509100168320408e+01 -3.9908366528141164e+02 -1.4669593044468033e+05 +1.4226704468499774e+06 +7.4057369711635160e+08 
-8.8999999999999844e+00 -1.0351470709258295e+00 +2.3358363153255697e+00 +2.6408268205559772e+01 -3.9783294767031731e+02 -1.4483223822791147e+05 +1.4064030963632590e+06 +7.3251534157882595e+08 
-8.9999999999999840e+00 -1.0351463346644341e+00 +2.3358371419424611e+00 +2.6307065774659684e+01 -3.9597307257911461e+02 -1.4295240606051439e+05 +1.3874849601706460e+06 +7.2435933390098679e+08 
-9.0999999999999837e+00 -1.0351456245076236e+00 +2.3358085286300159e+00 +2.6206281683263800e+01 -3.9349838584665582e+02 -1.4107000714221233e+05 +1.3659002105221469e+06 +7.1615957343973827e+08 
-9.1999999999999833e+00 -1.0351449429990760e+00 +2.3357511827038531e+00 +2.6106704824672313e+01 -3.9040321295997842e+02 -1.3919861711984017e+05 +1.3416328995156134e+06 +7.0796997451746213e+08 
-9.2999999999999829e+00 -1.0351442926831538e+00 +2.3356658108632842e+00 +2.6009124181262131e+01 -3.8668185846456839e+02 -1.3735181416740138e+05 +1.3146669556858041e+06 +6.9984446687507963e+08 
-9.3999999999999826e+00 -1.0351436761049209e+00 +2.3355531191808860e+00 +2.5914328827532916e+01 -3.8232860556701138e+02 -1.3554317906372380e+05 +1.2849861815980796e+06 +6.9183699612125313e+08 
-9.4999999999999822e+00 -1.0351430958103294e+00 +2.3354138131553523e+00 +2.5823107953195304e+01 -3.7733772076292172e+02 -1.3378629610438264e+05 +1.2525742804078055e+06 +6.8400152895947063e+08 
-9.5999999999999819e+00 -1.0351425539601713e+00 +2.3352482435764008e+00 +2.5736063864215261e+01 -3.7170472338671453e+02 -1.3209197315904769e+05 +1.2174305252537935e+06 +6.7638190245762026e+08 
-9.6999999999999815e+00 -1.0351420511760017e+00 +2.3350556215223235e+00 +2.5653089149015759e+01 -3.6542837983610417e+02 -1.3045980009425874e+05 +1.1795786492498675e+06 +6.6898020607221174e+08 
-9.7999999999999812e+00 -1.0351415876807744e+00 +2.3348349439483376e+00 +2.5573904429276105e+01 -3.5850813721995900e+02 -1.2888650182160120e+05 +1.1390395506405151e+06 +6.6178784389596188e+08 
-9.8999999999999808e+00 -1.0351411636964529e+00 +2.3345852080241323e+00 +2.5498230244398464e+01 -3.5094344611286414e+02 -1.2736880174191573e+05 +1.0958341182385944e+06 +6.5479621386401308e+08 
-9.9999999999999805e+00 -1.0351407794442169e+00 +2.3343054111137067e+00 +2.5425787085165712e+01 -3.4273376142588228e+02 -1.2590342233544652e+05 +1.0499832570695635e+06 +6.4799670880654621e+08 
-1.0099999999999980e+01 -1.0351404351444795e+00 +2.3339945507699209e+00 +2.5356295398553737e+01 -3.3387854220843491e+02 -1.2448708525615674e+05 +1.0015078869593007e+06 +6.4138071688531291e+08 
