# trajectory
# s[mm] rx[mm] ry[mm] rz[mm] px[rad] py[rad] pz[rad]
0.0000000000000000e+00 +9.1081000000000003e+00 +0.0000000000000000e+00 +0.0000000000000000e+00 +0.0000000000000000e+00 +0.0000000000000000e+00 +1.0000000000000000e+00
1.0000000000000001e-01 +9.1080994841312677e+00 +0.0000000000000000e+00 +9.9999999998225869e-02 -1.0317377752211569e-05 +0.0000000000000000e+00 +9.9999999994677591e-01
2.0000000000000001e-01 +9.1080979365238353e+00 +0.0000000000000000e+00 +1.9999999998580689e-01 -2.0634773951383070e-05 +0.0000000000000000e+00 +9.9999999978710308e-01
3.0000000000000004e-01 +9.1080953571758698e+00 +0.0000000000000000e+00 +2.9999999995209820e-01 -3.0952188391606837e-05 +0.0000000000000000e+00 +9.9999999952098106e-01
4.0000000000000002e-01 +9.1080917460855577e+00 +0.0000000000000000e+00 +3.9999999988645479e-01 -4.1269620840287207e-05 +0.0000000000000000e+00 +9.9999999914840920e-01
5.0000000000000000e-01 +9.1080871032511102e+00 +0.0000000000000000e+00 +4.9999999977823167e-01 -5.1587071038133945e-05 +0.0000000000000000e+00 +9.9999999866938705e-01
5.9999999999999998e-01 +9.1080814286707668e+00 +0.0000000000000000e+00 +5.9999999961678385e-01 -6.1904538697294504e-05 +0.0000000000000000e+00 +9.9999999808391404e-01
6.9999999999999996e-01 +9.1080747223427991e+00 +0.0000000000000000e+00 +6.9999999939146607e-01 -7.2222023480879825e-05 +0.0000000000000000e+00 +9.9999999739198964e-01
7.9999999999999993e-01 +9.1080669842655126e+00 +0.0000000000000000e+00 +7.9999999909163333e-01 -8.2539524982490833e-05 +0.0000000000000000e+00 +9.9999999659361338e-01
8.9999999999999991e-01 +9.1080582144372606e+00 +0.0000000000000000e+00 +8.9999999870664038e-01 -9.2857042724351843e-05 +0.0000000000000000e+00 +9.9999999568878473e-01
9.9999999999999989e-01 +9.1080484128564443e+00 +0.0000000000000000e+00 +9.9999999822584185e-01 -1.0317457615730487e-04 +0.0000000000000000e+00 +9.9999999467750333e-01
1.0999999999999999e+00 +9.1080375795215254e+00 +0.0000000000000000e+00 +1.0999999976385926e+00 -1.1349212466080420e-04 +0.0000000000000000e+00 +9.9999999355976876e-01
1.2000000000000000e+00 +9.1080257144310313e+00 +0.0000000000000000e+00 +1.1999999969342472e+00 -1.2380968754291112e-04 +0.0000000000000000e+00 +9.9999999233558057e-01
1.3000000000000000e+00 +9.1080128175835622e+00 +0.0000000000000000e+00 +1.2999999961021602e+00 -1.3412726404028906e-04 +0.0000000000000000e+00 +9.9999999100493842e-01
1.4000000000000001e+00 +9.1079988889777965e+00 +0.0000000000000000e+00 +1.3999999951316864e+00 -1.4444485331819890e-04 +0.0000000000000000e+00 +9.9999998956784208e-01
1.5000000000000002e+00 +9.1079839286125015e+00 +0.0000000000000000e+00 +1.4999999940121802e+00 -1.5476245447049452e-04 +0.0000000000000000e+00 +9.9999998802429124e-01
1.6000000000000003e+00 +9.1079679364865385e+00 +0.0000000000000000e+00 +1.5999999927329962e+00 -1.6508006651961866e-04 +0.0000000000000000e+00 +9.9999998637428567e-01
1.7000000000000004e+00 +9.1079509125988700e+00 +0.0000000000000000e+00 +1.6999999912834889e+00 -1.7539768841659900e-04 +0.0000000000000000e+00 +9.9999998461782524e-01
1.8000000000000005e+00 +9.1079328569485654e+00 +0.0000000000000000e+00 +1.7999999896530128e+00 -1.8571531904104451e-04 +0.0000000000000000e+00 +9.9999998275490987e-01
1.9000000000000006e+00 +9.1079137695348109e+00 +0.0000000000000000e+00 +1.8999999878309224e+00 -1.9603295720114206e-04 +0.0000000000000000e+00 +9.9999998078553953e-01
2.0000000000000004e+00 +9.1078936503569157e+00 +0.0000000000000000e+00 +1.9999999858065722e+00 -2.0635060163365327e-04 +0.0000000000000000e+00 +9.9999997870971424e-01
2.1000000000000005e+00 +9.1078724994143183e+00 +0.0000000000000000e+00 +2.0999999835693166e+00 -2.1666825100391163e-04 +0.0000000000000000e+00 +9.9999997652743411e-01
2.2000000000000006e+00 +9.1078503167065961e+00 +0.0000000000000000e+00 +2.1999999811085105e+00 -2.2698590390581987e-04 +0.0000000000000000e+00 +9.9999997423869924e-01
2.3000000000000007e+00 +9.1078271022334683e+00 +0.0000000000000000e+00 +2.2999999784135081e+00 -2.3730355886184757e-04 +0.0000000000000000e+00 +9.9999997184350997e-01
2.4000000000000008e+00 +9.1078028559948070e+00 +0.0000000000000000e+00 +2.3999999754736638e+00 -2.4762121432302911e-04 +0.0000000000000000e+00 +9.9999996934186652e-01
2.5000000000000009e+00 +9.1077775779906407e+00 +0.0000000000000000e+00 +2.4999999722783328e+00 -2.5793886866896183e-04 +0.0000000000000000e+00 +9.9999996673376934e-01
2.6000000000000010e+00 +9.1077512682211665e+00 +0.0000000000000000e+00 +2.5999999688168693e+00 -2.6825652021356334e-04 +0.0000000000000000e+00 +9.9999996401921887e-01
2.7000000000000011e+00 +9.1077239266867487e+00 +0.0000000000000000e+00 +2.6999999650786282e+00 -2.7857416726842060e-04 +0.0000000000000000e+00 +9.9999996119821577e-01
2.8000000000000012e+00 +9.1076955533879183e+00 +0.0000000000000000e+00 +2.7999999610529640e+00 -2.8889180820614160e-04 +0.0000000000000000e+00 +9.9999995827076060e-01
2.9000000000000012e+00 +9.1076661483253645e+00 +0.0000000000000000e+00 +2.8999999567292316e+00 -2.9920944146611777e-04 +0.0000000000000000e+00 +9.9999995523685392e-01
3.0000000000000013e+00 +9.1076357114999311e+00 +0.0000000000000000e+00 +2.9999999520967862e+00 -3.0952706555452842e-04 +0.0000000000000000e+00 +9.9999995209649650e-01
3.1000000000000014e+00 +9.1076042429126076e+00 +0.0000000000000000e+00 +3.0999999471449824e+00 -3.1984467904434556e-04 +0.0000000000000000e+00 +9.9999994884968912e-01
3.2000000000000015e+00 +9.1075717425645220e+00 +0.0000000000000000e+00 +3.1999999418631755e+00 -3.3016228057533933e-04 +0.0000000000000000e+00 +9.9999994549643256e-01
3.3000000000000016e+00 +9.1075382104569353e+00 +0.0000000000000000e+00 +3.2999999362407206e+00 -3.4047986885408436e-04 +0.0000000000000000e+00 +9.9999994203672760e-01
3.4000000000000017e+00 +9.1075036465912351e+00 +0.0000000000000000e+00 +3.3999999302669730e+00 -3.5079744265396646e-04 +0.0000000000000000e+00 +9.9999993847057500e-01
3.5000000000000018e+00 +9.1074680509689259e+00 +0.0000000000000000e+00 +3.4999999239312878e+00 -3.6111500081519011e-04 +0.0000000000000000e+00 +9.9999993479797578e-01
3.6000000000000019e+00 +9.1074314235916294e+00 +0.0000000000000000e+00 +3.5999999172230202e+00 -3.7143254224478666e-04 +0.0000000000000000e+00 +9.9999993101893070e-01
3.7000000000000020e+00 +9.1073937644610687e+00 +0.0000000000000000e+00 +3.6999999101315257e+00 -3.8175006591662300e-04 +0.0000000000000000e+00 +9.9999992713344077e-01
3.8000000000000020e+00 +9.1073550735790700e+00 +0.0000000000000000e+00 +3.7999999026461602e+00 -3.9206757087141087e-04 +0.0000000000000000e+00 +9.9999992314150687e-01
3.9000000000000021e+00 +9.1073153509475482e+00 +0.0000000000000000e+00 +3.8999998947562791e+00 -4.0238505621671700e-04 +0.0000000000000000e+00 +9.9999991904312990e-01
4.0000000000000018e+00 +9.1072745965685069e+00 +0.0000000000000000e+00 +3.9999998864512381e+00 -4.1270252112697386e-04 +0.0000000000000000e+00 +9.9999991483831085e-01
4.1000000000000014e+00 +9.1072328104440281e+00 +0.0000000000000000e+00 +4.0999998777203928e+00 -4.2301996484349076e-04 +0.0000000000000000e+00 +9.9999991052705062e-01
4.2000000000000011e+00 +9.1071899925762665e+00 +0.0000000000000000e+00 +4.1999998685530997e+00 -4.3333738667446594e-04 +0.0000000000000000e+00 +9.9999990610935019e-01
4.3000000000000007e+00 +9.1071461429674425e+00 +0.0000000000000000e+00 +4.2999998589387145e+00 -4.4365478599499926e-04 +0.0000000000000000e+00 +9.9999990158521057e-01
4.4000000000000004e+00 +9.1071012616198352e+00 +0.0000000000000000e+00 +4.3999998488665932e+00 -4.5397216224710521e-04 +0.0000000000000000e+00 +9.9999989695463265e-01
4.5000000000000000e+00 +9.1070553485357770e+00 +0.0000000000000000e+00 +4.4999998383260928e+00 -4.6428951493972703e-04 +0.0000000000000000e+00 +9.9999989221761731e-01
4.5999999999999996e+00 +9.1070084037176464e+00 +0.0000000000000000e+00 +4.5999998273065685e+00 -4.7460684364733420e-04 +0.0000000000000000e+00 +9.9999988737416556e-01
4.6999999999999993e+00 +9.1069604271678593e+00 +0.0000000000000000e+00 +4.6999998157973781e+00 -4.8492414799434884e-04 +0.0000000000000000e+00 +9.9999988242427840e-01
4.7999999999999989e+00 +9.1069114188888705e+00 +0.0000000000000000e+00 +4.7999998037878768e+00 -4.9524142763956026e-04 +0.0000000000000000e+00 +9.9999987736795659e-01
4.8999999999999986e+00 +9.1068613788831652e+00 +0.0000000000000000e+00 +4.8999997912674216e+00 -5.0555868227470172e-04 +0.0000000000000000e+00 +9.9999987220520115e-01
4.9999999999999982e+00 +9.1068103071532587e+00 +0.0000000000000000e+00 +4.9999997782253693e+00 -5.1587591162444331e-04 +0.0000000000000000e+00 +9.9999986693601295e-01
5.0999999999999979e+00 +9.1067582037016912e+00 +0.0000000000000000e+00 +5.0999997646510762e+00 -5.2619311544638454e-04 +0.0000000000000000e+00 +9.9999986156039300e-01
5.1999999999999975e+00 +9.1067050685310278e+00 +0.0000000000000000e+00 +5.1999997505339000e+00 -5.3651029353104574e-04 +0.0000000000000000e+00 +9.9999985607834208e-01
5.2999999999999972e+00 +9.1066509016438495e+00 +0.0000000000000000e+00 +5.2999997358631967e+00 -5.4682744570185937e-04 +0.0000000000000000e+00 +9.9999985048986106e-01
5.3999999999999968e+00 +9.1065957030427551e+00 +0.0000000000000000e+00 +5.3999997206283243e+00 -5.5714457181516084e-04 +0.0000000000000000e+00 +9.9999984479495097e-01
5.4999999999999964e+00 +9.1065394727303577e+00 +0.0000000000000000e+00 +5.4999997048186398e+00 -5.6746167176017863e-04 +0.0000000000000000e+00 +9.9999983899361256e-01
5.5999999999999961e+00 +9.1064822107092773e+00 +0.0000000000000000e+00 +5.5999996884234999e+00 -5.7777874545902376e-04 +0.0000000000000000e+00 +9.9999983308584672e-01
5.6999999999999957e+00 +9.1064239169821413e+00 +0.0000000000000000e+00 +5.6999996714322618e+00 -5.8809579286667906e-04 +0.0000000000000000e+00 +9.9999982707165425e-01
5.7999999999999954e+00 +9.1063645915515803e+00 +0.0000000000000000e+00 +5.7999996538342833e+00 -5.9841281397098739e-04 +0.0000000000000000e+00 +9.9999982095103601e-01
5.8999999999999950e+00 +9.1063042344202234e+00 +0.0000000000000000e+00 +5.8999996356189213e+00 -6.0872980879263998e-04 +0.0000000000000000e+00 +9.9999981472399280e-01
5.9999999999999947e+00 +9.1062428455906961e+00 +0.0000000000000000e+00 +5.9999996167755336e+00 -6.1904677738516367e-04 +0.0000000000000000e+00 +9.9999980839052538e-01
6.0999999999999943e+00 +9.1061804250656184e+00 +0.0000000000000000e+00 +6.0999995972934782e+00 -6.2936371983490791e-04 +0.0000000000000000e+00 +9.9999980195063454e-01
6.1999999999999940e+00 +9.1061169728475981e+00 +0.0000000000000000e+00 +6.1999995771621128e+00 -6.3968063626103084e-04 +0.0000000000000000e+00 +9.9999979540432093e-01
6.2999999999999936e+00 +9.1060524889392287e+00 +0.0000000000000000e+00 +6.2999995563707953e+00 -6.4999752681548558e-04 +0.0000000000000000e+00 +9.9999978875158535e-01
6.3999999999999932e+00 +9.1059869733430912e+00 +0.0000000000000000e+00 +6.3999995349088827e+00 -6.6031439168300499e-04 +0.0000000000000000e+00 +9.9999978199242845e-01
6.4999999999999929e+00 +9.1059204260617417e+00 +0.0000000000000000e+00 +6.4999995127657337e+00 -6.7063123108108687e-04 +0.0000000000000000e+00 +9.9999977512685079e-01
6.5999999999999925e+00 +9.1058528470977151e+00 +0.0000000000000000e+00 +6.5999994899307062e+00 -6.8094804525651675e-04 +0.0000000000000000e+00 +9.9999976815485303e-01
6.6999999999999922e+00 +9.1057842364535233e+00 +0.0000000000000000e+00 +6.6999994663931570e+00 -6.9126483444728495e-04 +0.0000000000000000e+00 +9.9999976107643584e-01
6.7999999999999918e+00 +9.1057145941316531e+00 +0.0000000000000000e+00 +6.7999994421424459e+00 -7.0158159884452199e-04 +0.0000000000000000e+00 +9.9999975389159990e-01
6.8999999999999915e+00 +9.1056439201345771e+00 +0.0000000000000000e+00 +6.8999994171679297e+00 -7.1189833858905684e-04 +0.0000000000000000e+00 +9.9999974660034574e-01
6.9999999999999911e+00 +9.1055722144647540e+00 +0.0000000000000000e+00 +6.9999993914589673e+00 -7.2221505377143697e-04 +0.0000000000000000e+00 +9.9999973920267415e-01
7.0999999999999908e+00 +9.1054994771246403e+00 +0.0000000000000000e+00 +7.0999993650049174e+00 -7.3253174443194992e-04 +0.0000000000000000e+00 +9.9999973169858580e-01
7.1999999999999904e+00 +9.1054257081166856e+00 +0.0000000000000000e+00 +7.1999993377951377e+00 -7.4284841056064532e-04 +0.0000000000000000e+00 +9.9999972408808147e-01
7.2999999999999901e+00 +9.1053509074433467e+00 +0.0000000000000000e+00 +7.2999993098189870e+00 -7.5316505209735744e-04 +0.0000000000000000e+00 +9.9999971637116203e-01
7.3999999999999897e+00 +9.1052750751070892e+00 +0.0000000000000000e+00 +7.3999992810658233e+00 -7.6348166893172912e-04 +0.0000000000000000e+00 +9.9999970854782827e-01
7.4999999999999893e+00 +9.1051982111103893e+00 +0.0000000000000000e+00 +7.4999992515250051e+00 -7.7379826090323643e-04 +0.0000000000000000e+00 +9.9999970061808108e-01
7.5999999999999890e+00 +9.1051203154557445e+00 +0.0000000000000000e+00 +7.5999992211858922e+00 -7.8411482780121346e-04 +0.0000000000000000e+00 +9.9999969258192134e-01
7.6999999999999886e+00 +9.1050413881456738e+00 +0.0000000000000000e+00 +7.6999991900378424e+00 -7.9443136936487892e-04 +0.0000000000000000e+00 +9.9999968443935006e-01
7.7999999999999883e+00 +9.1049614291827261e+00 +0.0000000000000000e+00 +7.7999991580702153e+00 -8.0474788528336265e-04 +0.0000000000000000e+00 +9.9999967619036834e-01
7.8999999999999879e+00 +9.1048804385694844e+00 +0.0000000000000000e+00 +7.8999991252723696e+00 -8.1506437519573353e-04 +0.0000000000000000e+00 +9.9999966783497718e-01
7.9999999999999876e+00 +9.1047984163085687e+00 +0.0000000000000000e+00 +7.9999990916336641e+00 -8.2538083869102799e-04 +0.0000000000000000e+00 +9.9999965937317770e-01
8.0999999999999872e+00 +9.1047153624026418e+00 +0.0000000000000000e+00 +8.0999990571434584e+00 -8.3569727530827937e-04 +0.0000000000000000e+00 +9.9999965080497122e-01
8.1999999999999869e+00 +9.1046312768544198e+00 +0.0000000000000000e+00 +8.1999990217911112e+00 -8.4601368453654795e-04 +0.0000000000000000e+00 +9.9999964213035897e-01
8.2999999999999865e+00 +9.1045461596666666e+00 +0.0000000000000000e+00 +8.2999989855659830e+00 -8.5633006581495199e-04 +0.0000000000000000e+00 +9.9999963334934217e-01
8.3999999999999861e+00 +9.1044600108422085e+00 +0.0000000000000000e+00 +8.3999989484574336e+00 -8.6664641853269938e-04 +0.0000000000000000e+00 +9.9999962446192225e-01
8.4999999999999858e+00 +9.1043728303839337e+00 +0.0000000000000000e+00 +8.4999989104548206e+00 -8.7696274202912045e-04 +0.0000000000000000e+00 +9.9999961546810079e-01
8.5999999999999854e+00 +9.1042846182948001e+00 +0.0000000000000000e+00 +8.5999988715475055e+00 -8.8727903559754069e-04 +0.0000000000000000e+00 +9.9999960636787921e-01
8.6999999999999851e+00 +9.1041953745778361e+00 +0.0000000000000000e+00 +8.6999988317248498e+00 -8.9759529852754768e-04 +0.0000000000000000e+00 +9.9999959716125908e-01
8.7999999999999847e+00 +9.1041050992361381e+00 +0.0000000000000000e+00 +8.7999987909762112e+00 -9.0791153014723510e-04 +0.0000000000000000e+00 +9.9999958784824194e-01
8.8999999999999844e+00 +9.1040137922728714e+00 +0.0000000000000000e+00 +8.8999987492909511e+00 -9.1822772982703494e-04 +0.0000000000000000e+00 +9.9999957842882936e-01
8.9999999999999840e+00 +9.1039214536912585e+00 +0.0000000000000000e+00 +8.9999987066584310e+00 -9.2854389697970827e-04 +0.0000000000000000e+00 +9.9999956890302288e-01
9.0999999999999837e+00 +9.1038280834945784e+00 +0.0000000000000000e+00 +9.0999986630680105e+00 -9.3886003106033586e-04 +0.0000000000000000e+00 +9.9999955927082407e-01
9.1999999999999833e+00 +9.1037336816861654e+00 +0.0000000000000000e+00 +9.1999986185090492e+00 -9.4917613156630790e-04 +0.0000000000000000e+00 +9.9999954953223436e-01
9.2999999999999829e+00 +9.1036382482693998e+00 +0.0000000000000000e+00 +9.2999985729709103e+00 -9.5949219803731381e-04 +0.0000000000000000e+00 +9.9999953968725519e-01
9.3999999999999826e+00 +9.1035417832477066e+00 +0.0000000000000000e+00 +9.3999985264429533e+00 -9.6980823005533108e-04 +0.0000000000000000e+00 +9.9999952973588802e-01
9.4999999999999822e+00 +9.1034442866245495e+00 +0.0000000000000000e+00 +9.4999984789145415e+00 -9.8012422724461394e-04 +0.0000000000000000e+00 +9.9999951967813439e-01
9.5999999999999819e+00 +9.1033457584034299e+00 +0.0000000000000000e+00 +9.5999984303750345e+00 -9.9044018927168143e-04 +0.0000000000000000e+00 +9.9999950951399563e-01
9.6999999999999815e+00 +9.1032461985878772e+00 +0.0000000000000000e+00 +9.6999983808137937e+00 -1.0007561158453058e-03 +0.0000000000000000e+00 +9.9999949924347309e-01
9.7999999999999812e+00 +9.1031456071814514e+00 +0.0000000000000000e+00 +9.7999983302201823e+00 -1.0110720067164989e-03 +0.0000000000000000e+00 +9.9999948886656820e-01
9.8999999999999808e+00 +9.1030439841877318e+00 +0.0000000000000000e+00 +9.8999982785835616e+00 -1.0213878616784995e-03 +0.0000000000000000e+00 +9.9999947838328218e-01
9.9999999999999805e+00 +9.1029413296103190e+00 +0.0000000000000000e+00 +9.9999982258932931e+00 -1.0317036805667598e-03 +0.0000000000000000e+00 +9.9999946779361637e-01
1.0099999999999980e+01 +9.1028376434528262e+00 +0.0000000000000000e+00 +1.0099998172138738e+01 -1.0420194632589309e-03 +0.0000000000000000e+00 +9.9999945709757199e-01
1.0199999999999980e+01 +9.1027329257188772e+00 +0.0000000000000000e+00 +1.0199998117309260e+01 -1.0523352096748488e-03 +0.0000000000000000e+00 +9.9999944629515025e-01
1.0299999999999979e+01 +9.1026271764121027e+00 +0.0000000000000000e+00 +1.0299998061394222e+01 -1.0626509197765193e-03 +0.0000000000000000e+00 +9.9999943538635228e-01
1.0399999999999979e+01 +9.1025203955361338e+00 +0.0000000000000000e+00 +1.0399998004382985e+01 -1.0729665935681025e-03 +0.0000000000000000e+00 +9.9999942437117917e-01
1.0499999999999979e+01 +9.1024125830945994e+00 +0.0000000000000000e+00 +1.0499997946264912e+01 -1.0832822310958971e-03 +0.0000000000000000e+00 +9.9999941324963204e-01
1.0599999999999978e+01 +9.1023037390911217e+00 +0.0000000000000000e+00 +1.0599997887029366e+01 -1.0935978324481998e-03 +0.0000000000000000e+00 +9.9999940202171189e-01
1.0699999999999978e+01 +9.1021938635293118e+00 +0.0000000000000000e+00 +1.0699997826665708e+01 -1.1039133977539261e-03 +0.0000000000000000e+00 +9.9999939068741972e-01
1.0799999999999978e+01 +9.1020829564127670e+00 +0.0000000000000000e+00 +1.0799997765163303e+01 -1.1142289271812331e-03 +0.0000000000000000e+00 +9.9999937924675653e-01
1.0899999999999977e+01 +9.1019710177450648e+00 +0.0000000000000000e+00 +1.0899997702511513e+01 -1.1245444209373829e-03 +0.0000000000000000e+00 +9.9999936769972309e-01
1.0999999999999977e+01 +9.1018580475297597e+00 +0.0000000000000000e+00 +1.0999997638699702e+01 -1.1348598792687310e-03 +0.0000000000000000e+00 +9.9999935604632018e-01
1.1099999999999977e+01 +9.1017440457703813e+00 +0.0000000000000000e+00 +1.1099997573717232e+01 -1.1451753024607127e-03 +0.0000000000000000e+00 +9.9999934428654869e-01
1.1199999999999976e+01 +9.1016290124704273e+00 +0.0000000000000000e+00 +1.1199997507553466e+01 -1.1554906908378311e-03 +0.0000000000000000e+00 +9.9999933242040917e-01
1.1299999999999976e+01 +9.1015129476333616e+00 +0.0000000000000000e+00 +1.1299997440197767e+01 -1.1658060447636426e-03 +0.0000000000000000e+00 +9.9999932044790241e-01
1.1399999999999975e+01 +9.1013958512626090e+00 +0.0000000000000000e+00 +1.1399997371639500e+01 -1.1761213646407441e-03 +0.0000000000000000e+00 +9.9999930836902895e-01
1.1499999999999975e+01 +9.1012777233615534e+00 +0.0000000000000000e+00 +1.1499997301868028e+01 -1.1864366509107588e-03 +0.0000000000000000e+00 +9.9999929618378935e-01
1.1599999999999975e+01 +9.1011585639335308e+00 +0.0000000000000000e+00 +1.1599997230872713e+01 -1.1967519040543219e-03 +0.0000000000000000e+00 +9.9999928389218407e-01
1.1699999999999974e+01 +9.1010383729818294e+00 +0.0000000000000000e+00 +1.1699997158642919e+01 -1.2070671245910656e-03 +0.0000000000000000e+00 +9.9999927149421342e-01
1.1799999999999974e+01 +9.1009171505096820e+00 +0.0000000000000000e+00 +1.1799997085168011e+01 -1.2173823130796049e-03 +0.0000000000000000e+00 +9.9999925898987774e-01
