# field on trajectory
# s[mm] rx[mm] ry[mm] rz[mm] bx[T] by[T] bz[T]
0.0000000000000000e+00 +9.1913000000000000e+00 +0.0000000000000000e+00 +0.0000000000000000e+00 +1.0253068740034895e-02 -1.0309201870347402e+00 -5.8870919787811796e-02
1.0000000000000001e-01 +9.1912994848961667e+00 +0.0000000000000000e+00 +9.9999999998231101e-02 +1.0252963118585784e-02 -1.0309220627602482e+00 -5.8871212484055850e-02
2.0000000000000001e-01 +9.1912979395834622e+00 +0.0000000000000000e+00 +1.9999999998584894e-01 +1.0252852427218288e-02 -1.0309236735798430e+00 -5.8871496472710748e-02
3.0000000000000004e-01 +9.1912953640602790e+00 +0.0000000000000000e+00 +2.9999999995224014e-01 +1.0252736324858959e-02 -1.0309249951261645e+00 -5.8871772963366958e-02
4.0000000000000002e-01 +9.1912917583252973e+00 +0.0000000000000000e+00 +3.9999999988679130e-01 +1.0252614470372965e-02 -1.0309260030313114e+00 -5.8872043165685270e-02
5.0000000000000000e-01 +9.1912871223775134e+00 +0.0000000000000000e+00 +4.9999999977888898e-01 +1.0252486522565264e-02 -1.0309266729267703e+00 -5.8872308289394638e-02
5.9999999999999998e-01 +9.1912814562162595e+00 +0.0000000000000000e+00 +5.9999999961791983e-01 +1.0252352251542002e-02 -1.0309269864060444e+00 -5.8872569106668091e-02
6.9999999999999996e-01 +9.1912747598412228e+00 +0.0000000000000000e+00 +6.9999999939327040e-01 +1.0252211872792598e-02 -1.0309269489126673e+00 -5.8872824639248991e-02
7.9999999999999993e-01 +9.1912670332524407e+00 +0.0000000000000000e+00 +7.9999999909432729e-01 +1.0252065713111217e-02 -1.0309265718521188e+00 -5.8873073471303099e-02
8.9999999999999991e-01 +9.1912582764502897e+00 +0.0000000000000000e+00 +8.9999999871047709e-01 +1.0251914099238243e-02 -1.0309258666290961e+00 -5.8873314187031199e-02
9.9999999999999989e-01 +9.1912484894354751e+00 +0.0000000000000000e+00 +9.9999999823110652e-01 +1.0251757357861917e-02 -1.0309248446474715e+00 -5.8873545370660807e-02
1.0999999999999999e+00 +9.1912376722090166e+00 +0.0000000000000000e+00 +1.0999999976456023e+00 +1.0251595815619912e-02 -1.0309235173102476e+00 -5.8873765606437957e-02
1.2000000000000000e+00 +9.1912258247722427e+00 +0.0000000000000000e+00 +1.1999999969433512e+00 +1.0251429799100964e-02 -1.0309218960195159e+00 -5.8873973478618905e-02
1.3000000000000000e+00 +9.1912129471267718e+00 +0.0000000000000000e+00 +1.2999999961137403e+00 +1.0251259634846466e-02 -1.0309199921764112e+00 -5.8874167571461765e-02
1.4000000000000001e+00 +9.1911990392745082e+00 +0.0000000000000000e+00 +1.3999999951461564e+00 +1.0251085649352100e-02 -1.0309178171810709e+00 -5.8874346469218332e-02
1.5000000000000002e+00 +9.1911841012176261e+00 +0.0000000000000000e+00 +1.4999999940299864e+00 +1.0250908169069418e-02 -1.0309153824325901e+00 -5.8874508756125786e-02
1.6000000000000003e+00 +9.1911681329585591e+00 +0.0000000000000000e+00 +1.5999999927546176e+00 +1.0250727520407482e-02 -1.0309126993289792e+00 -5.8874653016398298e-02
1.7000000000000004e+00 +9.1911511344999877e+00 +0.0000000000000000e+00 +1.6999999913094372e+00 +1.0250544029734437e-02 -1.0309097792671189e+00 -5.8874777834218892e-02
1.8000000000000005e+00 +9.1911331058448322e+00 +0.0000000000000000e+00 +1.7999999896838330e+00 +1.0250358023379173e-02 -1.0309066336427208e+00 -5.8874881793731147e-02
1.9000000000000006e+00 +9.1911140469962369e+00 +0.0000000000000000e+00 +1.8999999878671923e+00 +1.0250169827632874e-02 -1.0309032738502795e+00 -5.8874963479030776e-02
2.0000000000000004e+00 +9.1910939579575608e+00 +0.0000000000000000e+00 +1.9999999858489026e+00 +1.0249979768750675e-02 -1.0308997112830323e+00 -5.8875021474157511e-02
2.1000000000000005e+00 +9.1910728387323637e+00 +0.0000000000000000e+00 +2.0999999836183521e+00 +1.0249788172953259e-02 -1.0308959573329162e+00 -5.8875054363086730e-02
2.2000000000000006e+00 +9.1910506893244008e+00 +0.0000000000000000e+00 +2.1999999811649285e+00 +1.0249595366428447e-02 -1.0308920233905219e+00 -5.8875060729721221e-02
2.3000000000000007e+00 +9.1910275097376015e+00 +0.0000000000000000e+00 +2.2999999784780201e+00 +1.0249401675332840e-02 -1.0308879208450543e+00 -5.8875039157882864e-02
2.4000000000000008e+00 +9.1910032999760691e+00 +0.0000000000000000e+00 +2.3999999755470149e+00 +1.0249207425793425e-02 -1.0308836610842855e+00 -5.8874988231304388e-02
2.5000000000000009e+00 +9.1909780600440616e+00 +0.0000000000000000e+00 +2.4999999723613020e+00 +1.0249012943909142e-02 -1.0308792554945139e+00 -5.8874906533621034e-02
2.6000000000000010e+00 +9.1909517899459843e+00 +0.0000000000000000e+00 +2.5999999689102693e+00 +1.0248818576299380e-02 -1.0308747177008746e+00 -5.8874792968304390e-02
2.7000000000000011e+00 +9.1909244896863704e+00 +0.0000000000000000e+00 +2.6999999651833062e+00 +1.0248624751800394e-02 -1.0308700702894660e+00 -5.8874647718534352e-02
2.8000000000000012e+00 +9.1908961592698670e+00 +0.0000000000000000e+00 +2.7999999611698017e+00 +1.0248431919928403e-02 -1.0308653380883159e+00 -5.8874471287464675e-02
2.9000000000000012e+00 +9.1908667987012027e+00 +0.0000000000000000e+00 +2.8999999568591446e+00 +1.0248240530362556e-02 -1.0308605459275557e+00 -5.8874264178299836e-02
3.0000000000000013e+00 +9.1908364079851665e+00 +0.0000000000000000e+00 +2.9999999522407244e+00 +1.0248051032961883e-02 -1.0308557186396852e+00 -5.8874026894301823e-02
3.1000000000000014e+00 +9.1908049871265849e+00 +0.0000000000000000e+00 +3.0999999473039304e+00 +1.0247863877782289e-02 -1.0308508810598462e+00 -5.8873759938796996e-02
3.2000000000000015e+00 +9.1907725361302930e+00 +0.0000000000000000e+00 +3.1999999420381524e+00 +1.0247679515093554e-02 -1.0308460580260899e+00 -5.8873463815182943e-02
3.3000000000000016e+00 +9.1907390550011137e+00 +0.0000000000000000e+00 +3.2999999364327799e+00 +1.0247498395396296e-02 -1.0308412743796460e+00 -5.8873139026935306e-02
3.4000000000000017e+00 +9.1907045437438271e+00 +0.0000000000000000e+00 +3.3999999304772031e+00 +1.0247320969438959e-02 -1.0308365549651910e+00 -5.8872786077614578e-02
3.5000000000000018e+00 +9.1906690023631494e+00 +0.0000000000000000e+00 +3.4999999241608122e+00 +1.0247147688234811e-02 -1.0308319246311193e+00 -5.8872405470873017e-02
3.6000000000000019e+00 +9.1906324308637117e+00 +0.0000000000000000e+00 +3.5999999174729971e+00 +1.0246979003078898e-02 -1.0308274082298101e+00 -5.8871997710461407e-02
3.7000000000000020e+00 +9.1905948292500295e+00 +0.0000000000000000e+00 +3.6999999104031480e+00 +1.0246815365565048e-02 -1.0308230306178976e+00 -5.8871563300235921e-02
3.8000000000000020e+00 +9.1905561975264778e+00 +0.0000000000000000e+00 +3.7999999029406553e+00 +1.0246657227602853e-02 -1.0308188166565424e+00 -5.8871102744165023e-02
3.9000000000000021e+00 +9.1905165356972702e+00 +0.0000000000000000e+00 +3.8999998950749095e+00 +1.0246505041434640e-02 -1.0308147912116947e+00 -5.8870616546336234e-02
4.0000000000000018e+00 +9.1904758437664302e+00 +0.0000000000000000e+00 +3.9999998867953011e+00 +1.0246359259652461e-02 -1.0308109791543687e+00 -5.8870105210962982e-02
4.1000000000000014e+00 +9.1904341217377716e+00 +0.0000000000000000e+00 +4.0999998780912206e+00 +1.0246220335215077e-02 -1.0308074053609093e+00 -5.8869569242391472e-02
4.2000000000000011e+00 +9.1903913696148667e+00 +0.0000000000000000e+00 +4.1999998689520579e+00 +1.0246088721464918e-02 -1.0308040947132613e+00 -5.8869009145107586e-02
4.3000000000000007e+00 +9.1903475874010265e+00 +0.0000000000000000e+00 +4.2999998593672037e+00 +1.0245964872145106e-02 -1.0308010720992395e+00 -5.8868425423743646e-02
4.4000000000000004e+00 +9.1903027750992745e+00 +0.0000000000000000e+00 +4.3999998493260488e+00 +1.0245849241416390e-02 -1.0307983624127957e+00 -5.8867818583085256e-02
4.5000000000000000e+00 +9.1902569327123214e+00 +0.0000000000000000e+00 +4.4999998388179838e+00 +1.0245742283874168e-02 -1.0307959905542889e+00 -5.8867189128078250e-02
4.5999999999999996e+00 +9.1902100602425403e+00 +0.0000000000000000e+00 +4.5999998278323986e+00 +1.0245644369642259e-02 -1.0307939737595342e+00 -5.8866537819823865e-02
4.6999999999999993e+00 +9.1901621576919528e+00 +0.0000000000000000e+00 +4.6999998163586838e+00 +1.0245555529359514e-02 -1.0307922985835813e+00 -5.8865866443432030e-02
4.7999999999999989e+00 +9.1901132250622393e+00 +0.0000000000000000e+00 +4.7999998043862293e+00 +1.0245475708494760e-02 -1.0307909439098377e+00 -5.8865177039834383e-02
4.8999999999999986e+00 +9.1900632623547622e+00 +0.0000000000000000e+00 +4.8999997919044258e+00 +1.0245404852183226e-02 -1.0307898886205540e+00 -5.8864471649750304e-02
4.9999999999999982e+00 +9.1900122695705821e+00 +0.0000000000000000e+00 +4.9999997789026622e+00 +1.0245342905201760e-02 -1.0307891115966603e+00 -5.8863752313673696e-02
5.0999999999999979e+00 +9.1899602467104824e+00 +0.0000000000000000e+00 +5.0999997653703293e+00 +1.0245289811943939e-02 -1.0307885917176014e+00 -5.8863021071859742e-02
5.1999999999999975e+00 +9.1899071937749888e+00 +0.0000000000000000e+00 +5.1999997512968168e+00 +1.0245245516395281e-02 -1.0307883078611773e+00 -5.8862279964311884e-02
5.2999999999999972e+00 +9.1898531107643944e+00 +0.0000000000000000e+00 +5.2999997366715137e+00 +1.0245209962108360e-02 -1.0307882389033756e+00 -5.8861531030768383e-02
5.3999999999999968e+00 +9.1897979976787756e+00 +0.0000000000000000e+00 +5.3999997214838098e+00 +1.0245183092178015e-02 -1.0307883637182143e+00 -5.8860776310689394e-02
5.4999999999999964e+00 +9.1897418545180134e+00 +0.0000000000000000e+00 +5.4999997057230940e+00 +1.0245164849216464e-02 -1.0307886611775725e+00 -5.8860017843243545e-02
5.5999999999999961e+00 +9.1896846812818200e+00 +0.0000000000000000e+00 +5.5999996893787563e+00 +1.0245155175328492e-02 -1.0307891101510325e+00 -5.8859257667294849e-02
5.6999999999999957e+00 +9.1896264779697532e+00 +0.0000000000000000e+00 +5.6999996724401853e+00 +1.0245154012086586e-02 -1.0307896895057156e+00 -5.8858497821389529e-02
5.7999999999999954e+00 +9.1895672445812426e+00 +0.0000000000000000e+00 +5.7999996548967703e+00 +1.0245161300506121e-02 -1.0307903781061178e+00 -5.8857740343742672e-02
5.8999999999999950e+00 +9.1895069811156080e+00 +0.0000000000000000e+00 +5.8999996367379000e+00 +1.0245176981020468e-02 -1.0307911548139477e+00 -5.8856987272225159e-02
5.9999999999999947e+00 +9.1894456875720820e+00 +0.0000000000000000e+00 +5.9999996179529633e+00 +1.0245200993456171e-02 -1.0307919984879637e+00 -5.8856240644350348e-02
6.0999999999999943e+00 +9.1893833639498297e+00 +0.0000000000000000e+00 +6.0999995985313502e+00 +1.0245233277008095e-02 -1.0307928879838122e+00 -5.8855502497260889e-02
6.1999999999999940e+00 +9.1893200102479700e+00 +0.0000000000000000e+00 +6.1999995784624486e+00 +1.0245273770214568e-02 -1.0307938021538621e+00 -5.8854774867715523e-02
6.2999999999999936e+00 +9.1892556264655987e+00 +0.0000000000000000e+00 +6.2999995577356476e+00 +1.0245322410932525e-02 -1.0307947198470448e+00 -5.8854059792075773e-02
6.3999999999999932e+00 +9.1891902126018064e+00 +0.0000000000000000e+00 +6.3999995363403350e+00 +1.0245379136312646e-02 -1.0307956199086901e+00 -5.8853359306292742e-02
6.4999999999999929e+00 +9.1891237686557030e+00 +0.0000000000000000e+00 +6.4999995142659008e+00 +1.0245443882774503e-02 -1.0307964811803632e+00 -5.8852675445893919e-02
6.5999999999999925e+00 +9.1890562946264360e+00 +0.0000000000000000e+00 +6.5999994915017330e+00 +1.0245516431410638e-02 -1.0307972857042769e+00 -5.8852009935883721e-02
6.6999999999999922e+00 +9.1889877905132096e+00 +0.0000000000000000e+00 +6.6999994680372206e+00 +1.0245595944628570e-02 -1.0307980283383729e+00 -5.8851363260666714e-02
6.7999999999999918e+00 +9.1889182563152882e+00 +0.0000000000000000e+00 +6.7999994438617524e+00 +1.0245681430544289e-02 -1.0307987071447375e+00 -5.8850735594685406e-02
6.8999999999999915e+00 +9.1888476920320006e+00 +0.0000000000000000e+00 +6.8999994189647165e+00 +1.0245771897672024e-02 -1.0307993201852474e+00 -5.8850127112578345e-02
6.9999999999999911e+00 +9.1887760976627426e+00 +0.0000000000000000e+00 +6.9999993933355027e+00 +1.0245866354943269e-02 -1.0307998655215558e+00 -5.8849537989190751e-02
7.0999999999999908e+00 +9.1887034732069779e+00 +0.0000000000000000e+00 +7.0999993669634991e+00 +1.0245963811725895e-02 -1.0308003412150790e+00 -5.8848968399585547e-02
7.1999999999999904e+00 +9.1886298186642374e+00 +0.0000000000000000e+00 +7.1999993398380946e+00 +1.0246063277843238e-02 -1.0308007453269872e+00 -5.8848418519054112e-02
7.2999999999999901e+00 +9.1885551340341269e+00 +0.0000000000000000e+00 +7.2999993119486790e+00 +1.0246163763593188e-02 -1.0308010759181865e+00 -5.8847888523127029e-02
7.3999999999999897e+00 +9.1884794193163231e+00 +0.0000000000000000e+00 +7.3999992832846404e+00 +1.0246264279767277e-02 -1.0308013310493114e+00 -5.8847378587585056e-02
7.4999999999999893e+00 +9.1884026745105789e+00 +0.0000000000000000e+00 +7.4999992538353677e+00 +1.0246363837669793e-02 -1.0308015087807085e+00 -5.8846888888469812e-02
7.5999999999999890e+00 +9.1883248996167257e+00 +0.0000000000000000e+00 +7.5999992235902507e+00 +1.0246461449136872e-02 -1.0308016071724260e+00 -5.8846419602094739e-02
7.6999999999999886e+00 +9.1882460946346729e+00 +0.0000000000000000e+00 +7.6999991925386775e+00 +1.0246556126555601e-02 -1.0308016242841989e+00 -5.8845970905055785e-02
7.7999999999999883e+00 +9.1881662595644116e+00 +0.0000000000000000e+00 +7.7999991606700378e+00 +1.0246646882883157e-02 -1.0308015581754388e+00 -5.8845542974242361e-02
7.8999999999999879e+00 +9.1880853944060181e+00 +0.0000000000000000e+00 +7.8999991279737207e+00 +1.0246732731665896e-02 -1.0308014069052200e+00 -5.8845135986848124e-02
7.9999999999999876e+00 +9.1880034991596506e+00 +0.0000000000000000e+00 +7.9999990944391159e+00 +1.0246812687058474e-02 -1.0308011685322651e+00 -5.8844750120381727e-02
8.0999999999999872e+00 +9.1879205738255578e+00 +0.0000000000000000e+00 +8.0999990600556124e+00 +1.0246885763842995e-02 -1.0308008411149368e+00 -5.8844385552677791e-02
8.1999999999999869e+00 +9.1878366184040754e+00 +0.0000000000000000e+00 +8.1999990248126000e+00 +1.0246950977448115e-02 -1.0308004227112197e+00 -5.8844042461907636e-02
8.2999999999999865e+00 +9.1877516328956297e+00 +0.0000000000000000e+00 +8.2999989886994676e+00 +1.0247007343968197e-02 -1.0307999113787130e+00 -5.8843721026590176e-02
8.3999999999999861e+00 +9.1876656173007412e+00 +0.0000000000000000e+00 +8.3999989517056051e+00 +1.0247053880182443e-02 -1.0307993051746125e+00 -5.8843421425602636e-02
8.4999999999999858e+00 +9.1875785716200262e+00 +0.0000000000000000e+00 +8.4999989138204040e+00 +1.0247089603574020e-02 -1.0307986021557034e+00 -5.8843143838191558e-02
8.5999999999999854e+00 +9.1874904958541954e+00 +0.0000000000000000e+00 +8.5999988750332523e+00 +1.0247113799942345e-02 -1.0307978006784615e+00 -5.8842888179209248e-02
8.6999999999999851e+00 +9.1874013900040588e+00 +0.0000000000000000e+00 +8.6999988353335400e+00 +1.0247126825887468e-02 -1.0307969002998074e+00 -5.8842653304583298e-02
8.7999999999999847e+00 +9.1873112540705257e+00 +0.0000000000000000e+00 +8.7999987947106568e+00 +1.0247129305408199e-02 -1.0307959008773864e+00 -5.8842437805337593e-02
8.8999999999999844e+00 +9.1872200880546053e+00 +0.0000000000000000e+00 +8.8999987531539944e+00 +1.0247121862194652e-02 -1.0307948022695415e+00 -5.8842240272333479e-02
8.9999999999999840e+00 +9.1871278919574042e+00 +0.0000000000000000e+00 +8.9999987106529407e+00 +1.0247105119616991e-02 -1.0307936043353327e+00 -5.8842059296264612e-02
9.0999999999999837e+00 +9.1870346657801303e+00 +0.0000000000000000e+00 +9.0999986671968891e+00 +1.0247079700714236e-02 -1.0307923069345579e+00 -5.8841893467651986e-02
9.1999999999999833e+00 +9.1869404095240892e+00 +0.0000000000000000e+00 +9.1999986227752277e+00 +1.0247046228183026e-02 -1.0307909099277710e+00 -5.8841741376838765e-02
9.2999999999999829e+00 +9.1868451231906878e+00 +0.0000000000000000e+00 +9.2999985773773481e+00 +1.0247005324366393e-02 -1.0307894131763040e+00 -5.8841601613985391e-02
9.3999999999999826e+00 +9.1867488067814307e+00 +0.0000000000000000e+00 +9.3999985309926419e+00 +1.0246957611242526e-02 -1.0307878165422855e+00 -5.8841472769064443e-02
9.4999999999999822e+00 +9.1866514602979255e+00 +0.0000000000000000e+00 +9.4999984836104989e+00 +1.0246903710413535e-02 -1.0307861198886585e+00 -5.8841353431855543e-02
9.5999999999999819e+00 +9.1865530837418756e+00 +0.0000000000000000e+00 +9.5999984352203107e+00 +1.0246844243094197e-02 -1.0307843230792042e+00 -5.8841242191940403e-02
9.6999999999999815e+00 +9.1864536771150878e+00 +0.0000000000000000e+00 +9.6999983858114689e+00 +1.0246779830100746e-02 -1.0307824259785590e+00 -5.8841137638697832e-02
9.7999999999999812e+00 +9.1863532404194697e+00 +0.0000000000000000e+00 +9.7999983353733651e+00 +1.0246711091839585e-02 -1.0307804284522353e+00 -5.8841038361298628e-02
9.8999999999999808e+00 +9.1862517736570268e+00 +0.0000000000000000e+00 +9.8999982838953908e+00 +1.0246638648296067e-02 -1.0307783303666425e+00 -5.8840942948700639e-02
9.9999999999999805e+00 +9.1861492768298678e+00 +0.0000000000000000e+00 +9.9999982313669378e+00 +1.0246563119023212e-02 -1.0307761315891026e+00 -5.8840849989643659e-02
1.0099999999999980e+01 +9.1860457499402006e+00 +0.0000000000000000e+00 +1.0099998177777398e+01 +1.0246485123130464e-02 -1.0307738319878765e+00 -5.8840758072644585e-02
1.0199999999999980e+01 +9.1859411929903327e+00 +0.0000000000000000e+00 +1.0199998123116162e+01 +1.0246405279272425e-02 -1.0307714314321788e+00 -5.8840665785992258e-02
1.0299999999999979e+01 +9.1858356059826747e+00 +0.0000000000000000e+00 +1.0299998067372623e+01 +1.0246324205637584e-02 -1.0307689297921994e+00 -5.8840571717742596e-02
1.0399999999999979e+01 +9.1857289889197382e+00 +0.0000000000000000e+00 +1.0399998010536175e+01 +1.0246242519937040e-02 -1.0307663269391236e+00 -5.8840474455713533e-02
1.0499999999999979e+01 +9.1856213418041364e+00 +0.0000000000000000e+00 +1.0499997952596209e+01 +1.0246160839393236e-02 -1.0307636227451524e+00 -5.8840372587480178e-02
1.0599999999999978e+01 +9.1855126646385816e+00 +0.0000000000000000e+00 +1.0599997893542117e+01 +1.0246079818609930e-02 -1.0307608184484702e+00 -5.8840265068541349e-02
1.0699999999999978e+01 +9.1854029574258877e+00 +0.0000000000000000e+00 +1.0699997833363295e+01 +1.0246000263420608e-02 -1.0307579207475639e+00 -5.8840152326942320e-02
1.0799999999999978e+01 +9.1852922201689609e+00 +0.0000000000000000e+00 +1.0799997772049133e+01 +1.0245923017596874e-02 -1.0307549377046445e+00 -5.8840035158748492e-02
1.0899999999999977e+01 +9.1851804528707941e+00 +0.0000000000000000e+00 +1.0899997709589027e+01 +1.0245848925016801e-02 -1.0307518773802673e+00 -5.8839914359830228e-02
1.0999999999999977e+01 +9.1850676555344553e+00 +0.0000000000000000e+00 +1.0999997645972369e+01 +1.0245778829668246e-02 -1.0307487478332924e+00 -5.8839790725859271e-02
1.1099999999999977e+01 +9.1849538281630849e+00 +0.0000000000000000e+00 +1.1099997581188553e+01 +1.0245713575652174e-02 -1.0307455571208375e+00 -5.8839665052305055e-02
1.1199999999999976e+01 +9.1848389707598805e+00 +0.0000000000000000e+00 +1.1199997515226974e+01 +1.0245654007186002e-02 -1.0307423132982358e+00 -5.8839538134431019e-02
1.1299999999999976e+01 +9.1847230833280982e+00 +0.0000000000000000e+00 +1.1299997448077026e+01 +1.0245600968606907e-02 -1.0307390244189956e+00 -5.8839410767290996e-02
1.1399999999999975e+01 +9.1846061658710330e+00 +0.0000000000000000e+00 +1.1399997379728100e+01 +1.0245555304375169e-02 -1.0307356985347507e+00 -5.8839283745725522e-02
1.1499999999999975e+01 +9.1844882183920227e+00 +0.0000000000000000e+00 +1.1499997310169595e+01 +1.0245517859077480e-02 -1.0307323436952229e+00 -5.8839157864358164e-02
1.1599999999999975e+01 +9.1843692408944300e+00 +0.0000000000000000e+00 +1.1599997239390904e+01 +1.0245489477430283e-02 -1.0307289679481761e+00 -5.8839033917591800e-02
1.1699999999999974e+01 +9.1842492333816423e+00 +0.0000000000000000e+00 +1.1699997167381420e+01 +1.0245471004283089e-02 -1.0307255793393728e+00 -5.8838912699605034e-02
1.1799999999999974e+01 +9.1841281958570562e+00 +0.0000000000000000e+00 +1.1799997094130539e+01 +1.0245463284621791e-02 -1.0307221859125304e+00 -5.8838795004348354e-02
