# trajectory
# s[mm] rx[mm] ry[mm] rz[mm] px[rad] py[rad] pz[rad]
0.0000000000000000e+00 +9.1013000000000002e+00 +0.0000000000000000e+00 +0.0000000000000000e+00 +0.0000000000000000e+00 +0.0000000000000000e+00 +1.0000000000000000e+00
1.0000000000000001e-01 +9.1012994843605810e+00 +0.0000000000000000e+00 +9.9999999998227437e-02 -1.0312788518145210e-05 +0.0000000000000000e+00 +9.9999999994682320e-01
2.0000000000000001e-01 +9.1012979374422844e+00 +0.0000000000000000e+00 +1.9999999998581952e-01 -2.0625577375107746e-05 +0.0000000000000000e+00 +9.9999999978729281e-01
3.0000000000000004e-01 +9.1012953592451282e+00 +0.0000000000000000e+00 +2.9999999995214088e-01 -3.0938365527005928e-05 +0.0000000000000000e+00 +9.9999999952140883e-01
4.0000000000000002e-01 +9.1012917497692385e+00 +0.0000000000000000e+00 +3.9999999988655616e-01 -4.1251151850444879e-05 +0.0000000000000000e+00 +9.9999999914917126e-01
5.0000000000000000e-01 +9.1012871090148586e+00 +0.0000000000000000e+00 +4.9999999977843002e-01 -5.1563935142514010e-05 +0.0000000000000000e+00 +9.9999999867058031e-01
5.9999999999999998e-01 +9.1012814369823545e+00 +0.0000000000000000e+00 +5.9999999961712713e-01 -6.1876714124058229e-05 +0.0000000000000000e+00 +9.9999999808563611e-01
6.9999999999999996e-01 +9.1012747336722217e+00 +0.0000000000000000e+00 +6.9999999939201218e-01 -7.2189487475689680e-05 +0.0000000000000000e+00 +9.9999999739433898e-01
7.9999999999999993e-01 +9.1012669990850910e+00 +0.0000000000000000e+00 +7.9999999909244990e-01 -8.2502253873800499e-05 +0.0000000000000000e+00 +9.9999999659668903e-01
8.9999999999999991e-01 +9.1012582332217224e+00 +0.0000000000000000e+00 +8.9999999870780500e-01 -9.2815011993835881e-05 +0.0000000000000000e+00 +9.9999999569268672e-01
9.9999999999999989e-01 +9.1012484360830115e+00 +0.0000000000000000e+00 +9.9999999822744223e-01 -1.0312776051029366e-04 +0.0000000000000000e+00 +9.9999999468233247e-01
1.0999999999999999e+00 +9.1012376076699848e+00 +0.0000000000000000e+00 +1.0999999976407264e+00 -1.1344049809672432e-04 +0.0000000000000000e+00 +9.9999999356562663e-01
1.2000000000000000e+00 +9.1012257479838006e+00 +0.0000000000000000e+00 +1.1999999969370225e+00 -1.2375322342573158e-04 +0.0000000000000000e+00 +9.9999999234256975e-01
1.3000000000000000e+00 +9.1012128570257520e+00 +0.0000000000000000e+00 +1.2999999961056954e+00 -1.3406593516897340e-04 +0.0000000000000000e+00 +9.9999999101316239e-01
1.4000000000000001e+00 +9.1011989347972637e+00 +0.0000000000000000e+00 +1.3999999951361100e+00 -1.4437863199716358e-04 +0.0000000000000000e+00 +9.9999998957740521e-01
1.5000000000000002e+00 +9.1011839812998936e+00 +0.0000000000000000e+00 +1.4999999940176314e+00 -1.5469131258007374e-04 +0.0000000000000000e+00 +9.9999998803529877e-01
1.6000000000000003e+00 +9.1011679965353327e+00 +0.0000000000000000e+00 +1.5999999927396247e+00 -1.6500397558653584e-04 +0.0000000000000000e+00 +9.9999998638684384e-01
1.7000000000000004e+00 +9.1011509805054054e+00 +0.0000000000000000e+00 +1.6999999912914552e+00 -1.7531661968444529e-04 +0.0000000000000000e+00 +9.9999998463204121e-01
1.8000000000000005e+00 +9.1011329332120692e+00 +0.0000000000000000e+00 +1.7999999896624881e+00 -1.8562924354076441e-04 +0.0000000000000000e+00 +9.9999998277089175e-01
1.9000000000000006e+00 +9.1011138546574148e+00 +0.0000000000000000e+00 +1.8999999878420888e+00 -1.9594184582152644e-04 +0.0000000000000000e+00 +9.9999998080339625e-01
2.0000000000000004e+00 +9.1010937448436682e+00 +0.0000000000000000e+00 +1.9999999858196227e+00 -2.0625442519184013e-04 +0.0000000000000000e+00 +9.9999997872955571e-01
2.1000000000000005e+00 +9.1010726037731846e+00 +0.0000000000000000e+00 +2.0999999835844552e+00 -2.1656698031589472e-04 +0.0000000000000000e+00 +9.9999997654937112e-01
2.2000000000000006e+00 +9.1010504314484564e+00 +0.0000000000000000e+00 +2.1999999811259521e+00 -2.2687950985696544e-04 +0.0000000000000000e+00 +9.9999997426284359e-01
2.3000000000000007e+00 +9.1010272278721089e+00 +0.0000000000000000e+00 +2.2999999784334793e+00 -2.3719201247741952e-04 +0.0000000000000000e+00 +9.9999997186997414e-01
2.4000000000000008e+00 +9.1010029930469027e+00 +0.0000000000000000e+00 +2.3999999754964025e+00 -2.4750448683872272e-04 +0.0000000000000000e+00 +9.9999996937076396e-01
2.5000000000000009e+00 +9.1009777269757279e+00 +0.0000000000000000e+00 +2.4999999723040878e+00 -2.5781693160144634e-04 +0.0000000000000000e+00 +9.9999996676521430e-01
2.6000000000000010e+00 +9.1009514296616132e+00 +0.0000000000000000e+00 +2.5999999688459008e+00 -2.6812934543098198e-04 +0.0000000000000000e+00 +9.9999996405332636e-01
2.7000000000000011e+00 +9.1009241011077151e+00 +0.0000000000000000e+00 +2.6999999651112083e+00 -2.7844172706032946e-04 +0.0000000000000000e+00 +9.9999996123510149e-01
2.8000000000000012e+00 +9.1008957413173128e+00 +0.0000000000000000e+00 +2.7999999610893767e+00 -2.8875407535288198e-04 +0.0000000000000000e+00 +9.9999995831054100e-01
2.9000000000000012e+00 +9.1008663502937903e+00 +0.0000000000000000e+00 +2.8999999567697721e+00 -2.9906638930813625e-04 +0.0000000000000000e+00 +9.9999995527964625e-01
3.0000000000000013e+00 +9.1008359280406257e+00 +0.0000000000000000e+00 +2.9999999521417613e+00 -3.0937866806169517e-04 +0.0000000000000000e+00 +9.9999995214241855e-01
3.1000000000000014e+00 +9.1008044745613770e+00 +0.0000000000000000e+00 +3.0999999471947111e+00 -3.1969091088527045e-04 +0.0000000000000000e+00 +9.9999994889885924e-01
3.2000000000000015e+00 +9.1007719898596662e+00 +0.0000000000000000e+00 +3.1999999419179885e+00 -3.3000311718668515e-04 +0.0000000000000000e+00 +9.9999994554896965e-01
3.3000000000000016e+00 +9.1007384739391721e+00 +0.0000000000000000e+00 +3.2999999363009604e+00 -3.4031528650987631e-04 +0.0000000000000000e+00 +9.9999994209275100e-01
3.4000000000000017e+00 +9.1007039268036074e+00 +0.0000000000000000e+00 +3.3999999303329944e+00 -3.5062741853489739e-04 +0.0000000000000000e+00 +9.9999993853020464e-01
3.5000000000000018e+00 +9.1006683484567148e+00 +0.0000000000000000e+00 +3.4999999240034572e+00 -3.6093951307792060e-04 +0.0000000000000000e+00 +9.9999993486133165e-01
3.6000000000000019e+00 +9.1006317389022442e+00 +0.0000000000000000e+00 +3.5999999173017163e+00 -3.7125157009123942e-04 +0.0000000000000000e+00 +9.9999993108613328e-01
3.7000000000000020e+00 +9.1005940981439455e+00 +0.0000000000000000e+00 +3.6999999102171395e+00 -3.8156358966327092e-04 +0.0000000000000000e+00 +9.9999992720461062e-01
3.8000000000000020e+00 +9.1005554261855526e+00 +0.0000000000000000e+00 +3.7999999027390943e+00 -3.9187557201855798e-04 +0.0000000000000000e+00 +9.9999992321676479e-01
3.9000000000000021e+00 +9.1005157230307709e+00 +0.0000000000000000e+00 +3.8999998948569483e+00 -4.0218751751777156e-04 +0.0000000000000000e+00 +9.9999991912259678e-01
4.0000000000000018e+00 +9.1004749886832617e+00 +0.0000000000000000e+00 +3.9999998865600697e+00 -4.1249942665771289e-04 +0.0000000000000000e+00 +9.9999991492210760e-01
4.1000000000000014e+00 +9.1004332231466307e+00 +0.0000000000000000e+00 +4.0999998778378259e+00 -4.2281130007131566e-04 +0.0000000000000000e+00 +9.9999991061529803e-01
4.2000000000000011e+00 +9.1003904264244131e+00 +0.0000000000000000e+00 +4.1999998686795852e+00 -4.3312313852764800e-04 +0.0000000000000000e+00 +9.9999990620216883e-01
4.3000000000000007e+00 +9.1003465985200602e+00 +0.0000000000000000e+00 +4.2999998590747159e+00 -4.4343494293191466e-04 +0.0000000000000000e+00 +9.9999990168272068e-01
4.4000000000000004e+00 +9.1003017394369277e+00 +0.0000000000000000e+00 +4.3999998490125858e+00 -4.5374671432545880e-04 +0.0000000000000000e+00 +9.9999989705695413e-01
4.5000000000000000e+00 +9.1002558491782573e+00 +0.0000000000000000e+00 +4.4999998384825632e+00 -4.6405845388576415e-04 +0.0000000000000000e+00 +9.9999989232486974e-01
4.5999999999999996e+00 +9.1002089277471683e+00 +0.0000000000000000e+00 +4.5999998274740159e+00 -4.7437016291808668e-04 +0.0000000000000000e+00 +9.9999988748646784e-01
4.6999999999999993e+00 +9.1001609751466468e+00 +0.0000000000000000e+00 +4.6999998159763123e+00 -4.8468184276338495e-04 +0.0000000000000000e+00 +9.9999988254174865e-01
4.7999999999999989e+00 +9.1001119913795456e+00 +0.0000000000000000e+00 +4.7999998039788210e+00 -4.9499349470624721e-04 +0.0000000000000000e+00 +9.9999987749071251e-01
4.8999999999999986e+00 +9.1000619764485950e+00 +0.0000000000000000e+00 +4.8999997914709104e+00 -5.0530511996651800e-04 +0.0000000000000000e+00 +9.9999987233335963e-01
4.9999999999999982e+00 +9.1000109303564045e+00 +0.0000000000000000e+00 +4.9999997784419490e+00 -5.1561671969929440e-04 +0.0000000000000000e+00 +9.9999986706969024e-01
5.0999999999999979e+00 +9.0999588531054698e+00 +0.0000000000000000e+00 +5.0999997648813045e+00 -5.2592829499492220e-04 +0.0000000000000000e+00 +9.9999986169970456e-01
5.1999999999999975e+00 +9.0999057446981855e+00 +0.0000000000000000e+00 +5.1999997507783462e+00 -5.3623984687899140e-04 +0.0000000000000000e+00 +9.9999985622340282e-01
5.2999999999999972e+00 +9.0998516051368430e+00 +0.0000000000000000e+00 +5.2999997361224418e+00 -5.4655137631233193e-04 +0.0000000000000000e+00 +9.9999985064078523e-01
5.3999999999999968e+00 +9.0997964344236415e+00 +0.0000000000000000e+00 +5.3999997209029598e+00 -5.5686288419100837e-04 +0.0000000000000000e+00 +9.9999984495185190e-01
5.4999999999999964e+00 +9.0997402325606949e+00 +0.0000000000000000e+00 +5.4999997051092686e+00 -5.6717437134631496e-04 +0.0000000000000000e+00 +9.9999983915660318e-01
5.5999999999999961e+00 +9.0996829995500370e+00 +0.0000000000000000e+00 +5.5999996887307368e+00 -5.7748583854477006e-04 +0.0000000000000000e+00 +9.9999983325503916e-01
5.6999999999999957e+00 +9.0996247353936273e+00 +0.0000000000000000e+00 +5.6999996717567329e+00 -5.8779728648811040e-04 +0.0000000000000000e+00 +9.9999982724715997e-01
5.7999999999999954e+00 +9.0995654400933592e+00 +0.0000000000000000e+00 +5.7999996541766254e+00 -5.9810871581328460e-04 +0.0000000000000000e+00 +9.9999982113296593e-01
5.8999999999999950e+00 +9.0995051136510661e+00 +0.0000000000000000e+00 +5.8999996359797828e+00 -6.0842012709244695e-04 +0.0000000000000000e+00 +9.9999981491245726e-01
5.9999999999999947e+00 +9.0994437560685260e+00 +0.0000000000000000e+00 +5.9999996171555736e+00 -6.1873152083295085e-04 +0.0000000000000000e+00 +9.9999980858563420e-01
6.0999999999999943e+00 +9.0993813673474691e+00 +0.0000000000000000e+00 +6.0999995976933663e+00 -6.2904289747734126e-04 +0.0000000000000000e+00 +9.9999980215249695e-01
6.1999999999999940e+00 +9.0993179474895864e+00 +0.0000000000000000e+00 +6.1999995775825294e+00 -6.3935425740334773e-04 +0.0000000000000000e+00 +9.9999979561304586e-01
6.2999999999999936e+00 +9.0992534964965337e+00 +0.0000000000000000e+00 +6.2999995568124314e+00 -6.4966560092387642e-04 +0.0000000000000000e+00 +9.9999978896728114e-01
6.3999999999999932e+00 +9.0991880143699397e+00 +0.0000000000000000e+00 +6.3999995353724417e+00 -6.5997692828700244e-04 +0.0000000000000000e+00 +9.9999978221520325e-01
6.4999999999999929e+00 +9.0991215011114086e+00 +0.0000000000000000e+00 +6.4999995132519288e+00 -6.7028823967596105e-04 +0.0000000000000000e+00 +9.9999977535681250e-01
6.5999999999999925e+00 +9.0990539567225319e+00 +0.0000000000000000e+00 +6.5999994904402612e+00 -6.8059953521258372e-04 +0.0000000000000000e+00 +9.9999976839210936e-01
6.6999999999999922e+00 +9.0989853812048906e+00 +0.0000000000000000e+00 +6.6999994669268075e+00 -6.9091081499517669e-04 +0.0000000000000000e+00 +9.9999976132109425e-01
6.7999999999999918e+00 +9.0989157745600551e+00 +0.0000000000000000e+00 +6.7999994427009369e+00 -7.0122207913640342e-04 +0.0000000000000000e+00 +9.9999975414376752e-01
6.8999999999999915e+00 +9.0988451367895813e+00 +0.0000000000000000e+00 +6.8999994177520181e+00 -7.1153332776672585e-04 +0.0000000000000000e+00 +9.9999974686012960e-01
6.9999999999999911e+00 +9.0987734678950147e+00 +0.0000000000000000e+00 +6.9999993920694195e+00 -7.2184456103440125e-04 +0.0000000000000000e+00 +9.9999973947018084e-01
7.0999999999999908e+00 +9.0987007678778813e+00 +0.0000000000000000e+00 +7.0999993656425104e+00 -7.3215577910547931e-04 +0.0000000000000000e+00 +9.9999973197392156e-01
7.1999999999999904e+00 +9.0986270367396944e+00 +0.0000000000000000e+00 +7.1999993384606604e+00 -7.4246698216379886e-04 +0.0000000000000000e+00 +9.9999972437135209e-01
7.2999999999999901e+00 +9.0985522744819427e+00 +0.0000000000000000e+00 +7.2999993105132379e+00 -7.5277817041098465e-04 +0.0000000000000000e+00 +9.9999971666247278e-01
7.3999999999999897e+00 +9.0984764811060987e+00 +0.0000000000000000e+00 +7.3999992817896114e+00 -7.6308934406644385e-04 +0.0000000000000000e+00 +9.9999970884728395e-01
7.4999999999999893e+00 +9.0983996566136085e+00 +0.0000000000000000e+00 +7.4999992522791512e+00 -7.7340050336736292e-04 +0.0000000000000000e+00 +9.9999970092578583e-01
7.5999999999999890e+00 +9.0983218010058948e+00 +0.0000000000000000e+00 +7.5999992219712249e+00 -7.8371164856870382e-04 +0.0000000000000000e+00 +9.9999969289797863e-01
7.6999999999999886e+00 +9.0982429142843557e+00 +0.0000000000000000e+00 +7.6999991908552028e+00 -7.9402277994320076e-04 +0.0000000000000000e+00 +9.9999968476386258e-01
7.7999999999999883e+00 +9.0981629964503572e+00 +0.0000000000000000e+00 +7.7999991589204534e+00 -8.0433389778135648e-04 +0.0000000000000000e+00 +9.9999967652343791e-01
7.8999999999999879e+00 +9.0980820475052404e+00 +0.0000000000000000e+00 +7.8999991261563460e+00 -8.1464500239143863e-04 +0.0000000000000000e+00 +9.9999966817670483e-01
7.9999999999999876e+00 +9.0980000674503092e+00 +0.0000000000000000e+00 +7.9999990925522502e+00 -8.2495609409947567e-04 +0.0000000000000000e+00 +9.9999965972366334e-01
8.0999999999999872e+00 +9.0979170562868390e+00 +0.0000000000000000e+00 +8.0999990580975343e+00 -8.3526717324925348e-04 +0.0000000000000000e+00 +9.9999965116431366e-01
8.1999999999999869e+00 +9.0978330140160661e+00 +0.0000000000000000e+00 +8.1999990227815687e+00 -8.4557824020231121e-04 +0.0000000000000000e+00 +9.9999964249865581e-01
8.2999999999999865e+00 +9.0977479406391915e+00 +0.0000000000000000e+00 +8.2999989865937227e+00 -8.5588929533793724e-04 +0.0000000000000000e+00 +9.9999963372668987e-01
8.3999999999999861e+00 +9.0976618361573784e+00 +0.0000000000000000e+00 +8.3999989495233631e+00 -8.6620033905316556e-04 +0.0000000000000000e+00 +9.9999962484841587e-01
8.4999999999999858e+00 +9.0975747005717480e+00 +0.0000000000000000e+00 +8.4999989115598620e+00 -8.7651137176277113e-04 +0.0000000000000000e+00 +9.9999961586383368e-01
8.5999999999999854e+00 +9.0974865338833784e+00 +0.0000000000000000e+00 +8.5999988726925860e+00 -8.8682239389918530e-04 +0.0000000000000000e+00 +9.9999960677294342e-01
8.6999999999999851e+00 +9.0973973360933051e+00 +0.0000000000000000e+00 +8.6999988329109055e+00 -8.9713340591160656e-04 +0.0000000000000000e+00 +9.9999959757574497e-01
8.7999999999999847e+00 +9.0973071072025178e+00 +0.0000000000000000e+00 +8.7999987922041907e+00 -9.0744440826511245e-04 +0.0000000000000000e+00 +9.9999958827223812e-01
8.8999999999999844e+00 +9.0972158472119578e+00 +0.0000000000000000e+00 +8.8999987505618101e+00 -9.1775540144057861e-04 +0.0000000000000000e+00 +9.9999957886242286e-01
8.9999999999999840e+00 +9.0971235561225186e+00 +0.0000000000000000e+00 +8.9999987079731323e+00 -9.2806638593467773e-04 +0.0000000000000000e+00 +9.9999956934629886e-01
9.0999999999999837e+00 +9.0970302339350422e+00 +0.0000000000000000e+00 +9.0999986644275257e+00 -9.3837736225987922e-04 +0.0000000000000000e+00 +9.9999955972386601e-01
9.1999999999999833e+00 +9.0969358806503209e+00 +0.0000000000000000e+00 +9.1999986199143606e+00 -9.4868833094444844e-04 +0.0000000000000000e+00 +9.9999954999512408e-01
9.2999999999999829e+00 +9.0968404962690901e+00 +0.0000000000000000e+00 +9.2999985744230056e+00 -9.5899929253244606e-04 +0.0000000000000000e+00 +9.9999954016007275e-01
9.3999999999999826e+00 +9.0967440807920319e+00 +0.0000000000000000e+00 +9.3999985279428309e+00 -9.6931024758372764e-04 +0.0000000000000000e+00 +9.9999953021871169e-01
9.4999999999999822e+00 +9.0966466342197716e+00 +0.0000000000000000e+00 +9.4999984804632049e+00 -9.7962119667394272e-04 +0.0000000000000000e+00 +9.9999952017104043e-01
9.5999999999999819e+00 +9.0965481565528759e+00 +0.0000000000000000e+00 +9.5999984319734963e+00 -9.8993214039453498e-04 +0.0000000000000000e+00 +9.9999951001705867e-01
9.6999999999999815e+00 +9.0964486477918509e+00 +0.0000000000000000e+00 +9.6999983824630736e+00 -1.0002430793527410e-03 +0.0000000000000000e+00 +9.9999949975676594e-01
9.7999999999999812e+00 +9.0963481079371427e+00 +0.0000000000000000e+00 +9.7999983319213051e+00 -1.0105540141715902e-03 +0.0000000000000000e+00 +9.9999948939016181e-01
9.8999999999999808e+00 +9.0962465369891330e+00 +0.0000000000000000e+00 +9.8999982803375612e+00 -1.0208649454899047e-03 +0.0000000000000000e+00 +9.9999947891724572e-01
9.9999999999999805e+00 +9.0961439349481399e+00 +0.0000000000000000e+00 +9.9999982277012105e+00 -1.0311758739622984e-03 +0.0000000000000000e+00 +9.9999946833801712e-01
1.0099999999999980e+01 +9.0960403018144138e+00 +0.0000000000000000e+00 +1.0099998174001621e+01 -1.0414868002591772e-03 +0.0000000000000000e+00 +9.9999945765247533e-01
1.0199999999999980e+01 +9.0959356375881377e+00 +0.0000000000000000e+00 +1.0199998119228162e+01 -1.0517977250667377e-03 +0.0000000000000000e+00 +9.9999944686061970e-01
1.0299999999999979e+01 +9.0958299422694271e+00 +0.0000000000000000e+00 +1.0299998063370202e+01 -1.0621086490869680e-03 +0.0000000000000000e+00 +9.9999943596244956e-01
1.0399999999999979e+01 +9.0957232158583228e+00 +0.0000000000000000e+00 +1.0399998006417109e+01 -1.0724195730376471e-03 +0.0000000000000000e+00 +9.9999942495796423e-01
1.0499999999999979e+01 +9.0956154583547963e+00 +0.0000000000000000e+00 +1.0499997948358251e+01 -1.0827304976523441e-03 +0.0000000000000000e+00 +9.9999941384716284e-01
1.0599999999999978e+01 +9.0955066697587448e+00 +0.0000000000000000e+00 +1.0599997889182998e+01 -1.0930414236767286e-03 +0.0000000000000000e+00 +9.9999940263004450e-01
1.0699999999999978e+01 +9.0953968500699904e+00 +0.0000000000000000e+00 +1.0699997828880717e+01 -1.1033523518279723e-03 +0.0000000000000000e+00 +9.9999939130660842e-01
1.0799999999999978e+01 +9.0952859992882864e+00 +0.0000000000000000e+00 +1.0799997767440775e+01 -1.1136632827541491e-03 +0.0000000000000000e+00 +9.9999937987685383e-01
1.0899999999999977e+01 +9.0951741174133272e+00 +0.0000000000000000e+00 +1.0899997704852543e+01 -1.1239742170305418e-03 +0.0000000000000000e+00 +9.9999936834078007e-01
1.0999999999999977e+01 +9.0950612044447521e+00 +0.0000000000000000e+00 +1.0999997641105388e+01 -1.1342851551596389e-03 +0.0000000000000000e+00 +9.9999935669838635e-01
1.1099999999999977e+01 +9.0949472603821526e+00 +0.0000000000000000e+00 +1.1099997576188677e+01 -1.1445960975711323e-03 +0.0000000000000000e+00 +9.9999934494967202e-01
1.1199999999999976e+01 +9.0948322852250829e+00 +0.0000000000000000e+00 +1.1199997510091778e+01 -1.1549070446219148e-03 +0.0000000000000000e+00 +9.9999933309463662e-01
1.1299999999999976e+01 +9.0947162789730633e+00 +0.0000000000000000e+00 +1.1299997442804059e+01 -1.1652179965960772e-03 +0.0000000000000000e+00 +9.9999932113327961e-01
1.1399999999999975e+01 +9.0945992416255912e+00 +0.0000000000000000e+00 +1.1399997374314889e+01 -1.1755289537049057e-03 +0.0000000000000000e+00 +9.9999930906560064e-01
1.1499999999999975e+01 +9.0944811731821460e+00 +0.0000000000000000e+00 +1.1499997304613636e+01 -1.1858399160868797e-03 +0.0000000000000000e+00 +9.9999929689159939e-01
1.1599999999999975e+01 +9.0943620736421966e+00 +0.0000000000000000e+00 +1.1599997233689665e+01 -1.1961508838076679e-03 +0.0000000000000000e+00 +9.9999928461127552e-01
1.1699999999999974e+01 +9.0942419430052066e+00 +0.0000000000000000e+00 +1.1699997161532346e+01 -1.2064618568601269e-03 +0.0000000000000000e+00 +9.9999927222462892e-01
1.1799999999999974e+01 +9.0941207812706484e+00 +0.0000000000000000e+00 +1.1799997088131047e+01 -1.2167728351642978e-03 +0.0000000000000000e+00 +9.9999925973165960e-01
