# multipoles
# s[mm] polynom_b[n=0][T/m^n] polynom_b[n=1][T/m^n] polynom_b[n=2][T/m^n] polynom_b[n=3][T/m^n] polynom_b[n=4][T/m^n] polynom_b[n=5][T/m^n] polynom_b[n=6][T/m^n] 
+0.0000000000000000e+00 -1.0325690126918308e+00 +2.2757040432231568e+00 +2.0996214791783874e+01 +5.7210846343118385e+02 -8.4643178133090296e+03 -3.2449661263203504e+06 +5.8920323202917449e+07 
-1.0000000000000001e-01 -1.0325693774730753e+00 +2.2757228751990506e+00 +2.1018839697880125e+01 +5.6506385336024550e+02 -9.5423618547472888e+03 -3.1865714236960392e+06 +6.5891202396098033e+07 
-2.0000000000000001e-01 -1.0325697705187957e+00 +2.2757776742650933e+00 +2.1043806601567763e+01 +5.5728440736631205e+02 -1.0698181062121928e+04 -3.1245856488580424e+06 +7.3319621863205343e+07 
-3.0000000000000004e-01 -1.0325701854665514e+00 +2.2758709516042415e+00 +2.1070694297916305e+01 +5.4871975714998825e+02 -1.1919357040622928e+04 -3.0587721420291606e+06 +8.1131269556874678e+07 
-4.0000000000000002e-01 -1.0325706159542396e+00 +2.2760052184388391e+00 +2.1099081610950627e+01 +5.3931953326375822e+02 -1.3193471831926387e+04 -2.9888942361877579e+06 +8.9251835172795743e+07 
-5.0000000000000000e-01 -1.0325710556200975e+00 +2.2761829860391756e+00 +2.1128547392024256e+01 +5.2903336473818035e+02 -1.4508107862883076e+04 -2.9147152539730030e+06 +9.7607009828122079e+07 
-5.9999999999999998e-01 -1.0325714981026912e+00 +2.2764067657173324e+00 +2.1158670516134478e+01 +5.1781087908699351e+02 -1.5850847844768803e+04 -2.8359985066546272e+06 +1.0612248547192842e+08 
-6.9999999999999996e-01 -1.0325719370410058e+00 +2.2766790688353629e+00 +2.1189029891280455e+01 +5.0560170192221062e+02 -1.7209274933418714e+04 -2.7525072909043143e+06 +1.1472395557784174e+08 
-7.9999999999999993e-01 -1.0325723660743658e+00 +2.2770024067882675e+00 +2.1219204445915491e+01 +4.9235545730821246e+02 -1.8570972460202982e+04 -2.6640048898865920e+06 +1.2333711375519961e+08 
-8.9999999999999991e-01 -1.0325727788425572e+00 +2.2773792910183226e+00 +2.1248773143527625e+01 +4.7802176718191322e+02 -1.9923524193871297e+04 -2.5702545688596047e+06 +1.3188765492992420e+08 
-9.9999999999999989e-01 -1.0325731689857784e+00 +2.2778122330118098e+00 +2.1277314972591054e+01 +4.6255025131033568e+02 -2.1254514113253685e+04 -2.4710195739652487e+06 +1.4030127413924867e+08 
-1.0999999999999999e+00 -1.0325735301446897e+00 +2.2783037442890945e+00 +2.1304408952445339e+01 +4.4589052741369642e+02 -2.2551526507358227e+04 -2.3660631319046402e+06 +1.4850366695344594e+08 
-1.2000000000000000e+00 -1.0325738559603854e+00 +2.2788563364156982e+00 +2.1329634126517586e+01 +4.2799221070741697e+02 -2.3802145813858733e+04 -2.2551484463270027e+06 +1.5642052859471250e+08 
-1.3000000000000000e+00 -1.0325741400745194e+00 +2.2794725209930085e+00 +2.1352569576912423e+01 +4.0880491400084463e+02 -2.4993956876466989e+04 -2.1380386973395175e+06 +1.6397755508148503e+08 
-1.4000000000000001e+00 -1.0325743761292048e+00 +2.2801548096610014e+00 +2.1372794408831435e+01 +3.8827824749189210e+02 -2.6114544620990637e+04 -2.0144970393935798e+06 +1.7110044158909884e+08 
-1.5000000000000002e+00 -1.0325745577670937e+00 +2.2809057141009719e+00 +2.1389887759614243e+01 +3.6636181850890733e+02 -2.7151494209667322e+04 -1.8842865986987620e+06 +1.7771488311414632e+08 
-1.6000000000000003e+00 -1.0325746796131476e+00 +2.2817259623903743e+00 +2.1403480900329193e+01 +3.4304173310265332e+02 -2.8094194444919791e+04 -1.7473449879152239e+06 +1.8375833510896716e+08 
-1.7000000000000004e+00 -1.0325747400821070e+00 +2.2826091073991881e+00 +2.1413427244041038e+01 +3.1845266456629474e+02 -2.8939537020058633e+04 -1.6043266595008532e+06 +1.8921662762844199e+08 
-1.8000000000000005e+00 -1.0325747385025938e+00 +2.2835468974401647e+00 +2.1419639346570939e+01 +2.9276707835147357e+02 -2.9686367323190920e+04 -1.4560700130393738e+06 +1.9408805278652909e+08 
-1.9000000000000006e+00 -1.0325746742029798e+00 +2.2845310808318735e+00 +2.1422029741352549e+01 +2.6615743927776151e+02 -3.0333530389653533e+04 -1.3034134414271491e+06 +1.9837090117851815e+08 
-2.0000000000000004e+00 -1.0325745465111422e+00 +2.2855534058932894e+00 +2.1420510912661090e+01 +2.3879621176834254e+02 -3.0879870430731466e+04 -1.1471953327959373e+06 +2.0206345976000836e+08 
-2.1000000000000005e+00 -1.0325743547544313e+00 +2.2866056209432926e+00 +2.1414995296974773e+01 +2.1085585991997496e+02 -3.1324230910173177e+04 -9.8825407143780007e+05 +2.0516401236695325e+08 
-2.2000000000000006e+00 -1.0325740982595575e+00 +2.2876794742943583e+00 +2.1405395272775234e+01 +1.8250884777301764e+02 -3.1665454386733960e+04 -8.2742803996860830e+05 +2.0767083908348149e+08 
-2.3000000000000007e+00 -1.0325737763525511e+00 +2.2887667142471892e+00 +2.1391623160295271e+01 +1.5392763952369168e+02 -3.1902382559516212e+04 -6.6555562107859296e+05 +2.0958221661541706e+08 
-2.4000000000000008e+00 -1.0325733883585368e+00 +2.2898590890899642e+00 +2.1373591198168597e+01 +1.2528469963952726e+02 -3.2033855867559116e+04 -5.0347519882163539e+05 +2.1089641652111161e+08 
-2.5000000000000009e+00 -1.0325729336017442e+00 +2.2909483470872267e+00 +2.1351211548081935e+01 +9.6752493252560939e+01 -3.2058713614024171e+04 -3.4202516145614372e+05 +2.1161170591735807e+08 
-2.6000000000000010e+00 -1.0325724114053898e+00 +2.2920262364855528e+00 +2.1324396285909980e+01 +6.8503486041461116e+01 -3.1975793852590883e+04 -1.8204390124344389e+05 +2.1172634711057878e+08 
-2.7000000000000011e+00 -1.0325718210915418e+00 +2.2930845055003646e+00 +2.1293057389141932e+01 +4.0710144722412267e+01 -3.1783933189258132e+04 -2.4369817957021543e+04 +2.1123859678149956e+08 
-2.8000000000000012e+00 -1.0325711619810118e+00 +2.2941149023150214e+00 +2.1257106726598622e+01 +1.3544937132683257e+01 -3.1481966623407759e+04 +1.3015868010350314e+05 +2.1014670534803116e+08 
-2.9000000000000012e+00 -1.0325704333933543e+00 +2.2951091750807477e+00 +2.1216456064978139e+01 -1.2819667701916780e+01 -3.1068727729282688e+04 +2.8070317519446928e+05 +2.0844891800252166e+08 
-3.0000000000000013e+00 -1.0325696346466258e+00 +2.2960590719043905e+00 +2.1171017041052806e+01 -3.8211199117349459e+01 -3.0543048158959973e+04 +4.2642523688709835e+05 +2.0614347245439443e+08 
-3.1000000000000014e+00 -1.0325687650574094e+00 +2.2969563408511693e+00 +2.1120701171294030e+01 -6.2457184842681357e+01 -2.9903757877856213e+04 +5.6648642175976117e+05 +2.0322860020774499e+08 
-3.2000000000000015e+00 -1.0325678239406573e+00 +2.2977927299344021e+00 +2.1065419835177078e+01 -8.5385150607252584e+01 -2.9149684886633015e+04 +7.0004827049138932e+05 +1.9970252536877722e+08 
-3.3000000000000016e+00 -1.0325668106095827e+00 +2.2985599871174047e+00 +2.1005084266765557e+01 -1.0682262013499064e+02 -2.8279655106192218e+04 +8.2627230730323447e+05 +1.9556346423815525e+08 
-3.4000000000000017e+00 -1.0325657243755890e+00 +2.2992498603040095e+00 +2.0939605551147761e+01 -1.2659711478969899e+02 -2.7292492357748222e+04 +9.4432003732098104e+05 +1.9080962536498252e+08 
-3.5000000000000018e+00 -1.0325645645481445e+00 +2.2998540973412513e+00 +2.0868894612534980e+01 -1.4453615355844587e+02 -2.6187018176559170e+04 +1.0533529456849585e+06 +1.8543920877138686e+08 
-3.6000000000000019e+00 -1.0325633310547180e+00 +2.3003665550499561e+00 +2.0792919527264836e+01 -1.6051009330458271e+02 -2.4963417338097981e+04 +1.1527347736161444e+06 +1.7945741720351398e+08 
-3.7000000000000020e+00 -1.0325620265217204e+00 +2.3007894823383488e+00 +2.0711817636489624e+01 -1.7455841334122528e+02 -2.3626124326818168e+04 +1.2426255431540501e+06 +1.7289193125271618e+08 
-3.8000000000000020e+00 -1.0325606543009902e+00 +2.3011272197111330e+00 +2.0625753077403740e+01 -1.8676239370638723e+02 -2.2180325774205452e+04 +1.3233814629429346e+06 +1.6577462823350719e+08 
-3.9000000000000021e+00 -1.0325592177445222e+00 +2.3013841077041213e+00 +2.0534889992608889e+01 -1.9720331464789513e+02 -2.0631208369511271e+04 +1.3953587380412249e+06 +1.5813738588297015e+08 
-4.0000000000000018e+00 -1.0325577202045104e+00 +2.3015644868916469e+00 +2.0439392534595015e+01 -2.0596245691512229e+02 -1.8983958926186078e+04 +1.4589135714826235e+06 +1.5001208264371943e+08 
-4.1000000000000014e+00 -1.0325561650334063e+00 +2.3016726978803645e+00 +2.0339424869485828e+01 -2.1312110148586265e+02 -1.7243764426597758e+04 +1.5144021622007841e+06 +1.4143059782122135e+08 
-4.2000000000000011e+00 -1.0325545555839952e+00 +2.3017130813155378e+00 +2.0235151185139806e+01 -2.1876052974197611e+02 -1.5415812166945074e+04 +1.5621807058387084e+06 +1.3242481226206619e+08 
-4.3000000000000007e+00 -1.0325528952094198e+00 +2.3016899778821398e+00 +2.0126735691049095e+01 -2.2296202342537586e+02 -1.3505289729406664e+04 +1.6026053940599908e+06 +1.2302660816477355e+08 
-4.4000000000000004e+00 -1.0325511872632747e+00 +2.3016077283101457e+00 +2.0014342628361362e+01 -2.2580686476401939e+02 -1.1517385161360406e+04 +1.6360324150033542e+06 +1.1326786991796152e+08 
-4.5000000000000000e+00 -1.0325494350995996e+00 +2.3014706733749266e+00 +1.9898136265337691e+01 -2.2737633641527214e+02 -9.4572868634473307e+03 +1.6628179525480003e+06 +1.0318048351361582e+08 
-4.5999999999999996e+00 -1.0325476420730340e+00 +2.3012831538957834e+00 +1.9778280915327542e+01 -2.2775172140094233e+02 -7.3301839181636060e+03 +1.6833181856728834e+06 +9.2796338088431850e+07 
-4.6999999999999993e+00 -1.0325458115387738e+00 +2.3010495107504703e+00 +1.9654940928403278e+01 -2.2701430345398543e+02 -5.1412659098225940e+03 +1.6978892900466106e+06 +8.2147325023279324e+07 
-4.7999999999999989e+00 -1.0325439468526545e+00 +2.3007740848635141e+00 +1.9528280699232166e+01 -2.2524536665659446e+02 -2.8957230567580332e+03 +1.7068874356565294e+06 +7.1265338544049993e+07 
-4.8999999999999986e+00 -1.0325420513712527e+00 +2.3004612172198344e+00 +1.9398464677393246e+01 -2.2252619577184669e+02 -5.9874638889876155e+02 +1.7106687883432580e+06 +6.0182276526242800e+07 
-4.9999999999999982e+00 -1.0325401284519025e+00 +2.3001152488580026e+00 +1.9265657366670023e+01 -2.1893807600195888e+02 +1.7444722864963742e+03 +1.7095895080657243e+06 +4.8930040292654209e+07 
-5.0999999999999979e+00 -1.0325381814527363e+00 +2.2997405208807820e+00 +1.9130023328630461e+01 -2.1456229326046252e+02 +4.1287403267284808e+03 +1.7040057501735357e+06 +3.7540534877646960e+07 
-5.1999999999999975e+00 -1.0325362137327425e+00 +2.2993413744523048e+00 +1.8991727185567221e+01 -2.0948013401443015e+02 +6.5488642304519517e+03 +1.6942736640717476e+06 +2.6045669062099710e+07 
-5.2999999999999972e+00 -1.0325342286519008e+00 +2.2989221508064372e+00 +1.8850933637022376e+01 -2.0377288551640819e+02 +8.9996493275440516e+03 +1.6807493943328173e+06 +1.4477356853311516e+07 
-5.3999999999999968e+00 -1.0325322295711179e+00 +2.2984871912404259e+00 +1.8707807447700695e+01 -1.9752183554126253e+02 +1.1475900035339413e+04 +1.6637890787333131e+06 +2.8675162101642960e+06 
-5.4999999999999964e+00 -1.0325302198523407e+00 +2.2980408371114072e+00 +1.8562513457346672e+01 -1.9080827226622574e+02 +1.3972419710607885e+04 +1.6437488488374024e+06 -8.7519302125974670e+06 
-5.5999999999999961e+00 -1.0325282040403974e+00 +2.2975871148470652e+00 +1.8415269764026831e+01 -1.8370943714591274e+02 +1.6483876461037482e+04 +1.6209807810161302e+06 -2.0350088437964443e+07 
-5.6999999999999957e+00 -1.0325261917415285e+00 +2.2971288816121143e+00 +1.8266575135959748e+01 -1.7629104800995762e+02 +1.9003209523314781e+04 +1.5958471069429070e+06 -3.1895411859732203e+07 
-5.7999999999999954e+00 -1.0325241939125074e+00 +2.2966687212242767e+00 +1.8117015381321487e+01 -1.6861708222455417e+02 +2.1522642221558621e+04 +1.5687194464212586e+06 -4.3355082070150785e+07 
-5.8999999999999950e+00 -1.0325222215111474e+00 +2.2962092174538240e+00 +1.7967176429593462e+01 -1.6075151902170799e+02 +2.4034395555639174e+04 +1.5399694381772666e+06 -5.4696269408468768e+07 
-5.9999999999999947e+00 -1.0325202854962892e+00 +2.2957529540131052e+00 +1.7817644328566267e+01 -1.5275833891755991e+02 +2.6530688220989992e+04 +1.5099687358545081e+06 -6.5886132926518574e+07 
-6.0999999999999943e+00 -1.0325183968279461e+00 +2.2953025145651771e+00 +1.7669005263353601e+01 -1.4470152413118012e+02 +2.9003736235249849e+04 +1.4790890109835353e+06 -7.6891818579258636e+07 
-6.1999999999999940e+00 -1.0325165664672513e+00 +2.2948604827130916e+00 +1.7521845547791759e+01 -1.3664505837605685e+02 +3.1445753111131937e+04 +1.4477019520939088e+06 -8.7680460073816031e+07 
-6.2999999999999936e+00 -1.0325148053765778e+00 +2.2944294419908347e+00 +1.7376751640751515e+01 -1.2865292674307349e+02 +3.3848949538581124e+04 +1.4161792645074285e+06 -9.8219177340951160e+07 
-6.3999999999999932e+00 -1.0325131245195340e+00 +2.2940119758759883e+00 +1.7234310145001455e+01 -1.2078911621529711e+02 +3.6205533405344628e+04 +1.3848926738007097e+06 -1.0847507663068990e+08 
-6.4999999999999929e+00 -1.0325115348610390e+00 +2.2936106677734371e+00 +1.7095107815564951e+01 -1.1311761530469042e+02 +3.8507709637646993e+04 +1.3542139240366344e+06 -1.1841524975194190e+08 
-6.5999999999999925e+00 -1.0325100473673803e+00 +2.2932281010179913e+00 +1.6959731567563306e+01 -1.0570241429478996e+02 +4.0747680050008697e+04 +1.3245147797095727e+06 -1.2800677336099510e+08 
-6.6999999999999922e+00 -1.0325086730061999e+00 +2.2928668588717369e+00 +1.6828768473668738e+01 -9.8607505261793875e+01 +4.2917643393646249e+04 +1.2961670261886651e+06 -1.3721670919213694e+08 
-6.7999999999999918e+00 -1.0325074227466142e+00 +2.2925295245175961e+00 +1.6702805779070683e+01 -9.1896882054276176e+01 +4.5009795066519589e+04 +1.2695424701193613e+06 -1.4601210266309178e+08 
-6.8999999999999915e+00 -1.0325063075591967e+00 +2.2922186810611866e+00 +1.6582430899086326e+01 -8.5634540476225823e+01 +4.7016327161157802e+04 +1.2450129409073596e+06 -1.5435998311470127e+08 
-6.9999999999999911e+00 -1.0325053384160829e+00 +2.2919369115240626e+00 +1.6468231431554607e+01 -7.9884478207029019e+01 +4.8929428227299497e+04 +1.2229502906249308e+06 -1.6222736267474520e+08 
-7.0999999999999908e+00 -1.0325045262909436e+00 +2.2916867988446761e+00 +1.6360795153925647e+01 -7.4710694976468986e+01 +5.0741283323637159e+04 +1.2037263954942664e+06 -1.6958123649899310e+08 
-7.1999999999999904e+00 -1.0325038821590968e+00 +2.2914709258650623e+00 +1.6260710036720290e+01 -7.0177192325012442e+01 +5.2444073760933374e+04 +1.1877131549644109e+06 -1.7638858154767117e+08 
-7.2999999999999901e+00 -1.0325034169975189e+00 +2.2912918753446561e+00 +1.6168564244166976e+01 -6.6347974111178857e+01 +5.4029977093044625e+04 +1.1752824949986362e+06 -1.8261635655270681e+08 
-7.3999999999999897e+00 -1.0325031417849253e+00 +2.2911522299434117e+00 +1.6084946144635012e+01 -6.3287046190515383e+01 +5.5491166910963475e+04 +1.1668063667480552e+06 -1.8823150101780018e+08 
-7.4999999999999893e+00 -1.0325030675018296e+00 +2.2910545722110984e+00 +1.6010444316782745e+01 -6.1058415522265868e+01 +5.6819812783368216e+04 +1.1626567334206998e+06 -1.9320093571740788e+08 
-7.5999999999999890e+00 -1.0325032012945492e+00 +2.2910003242172778e+00 +1.5945468430896858e+01 -5.9696597141312523e+01 +5.8010195585407513e+04 +1.1630367336573272e+06 -1.9750033192402074e+08 
-7.6999999999999886e+00 -1.0325035342463142e+00 +2.2909860997942828e+00 +1.5889719351276229e+01 -5.9113623800104229e+01 +5.9064334302605865e+04 +1.1674650897088186e+06 -2.0113491063929814e+08 
-7.7999999999999883e+00 -1.0325040532579091e+00 +2.2910072562266039e+00 +1.5842725644715930e+01 -5.9189309598273631e+01 +5.9985931923845979e+04 +1.1752838415717555e+06 -2.0411561322722664e+08 
-7.8999999999999879e+00 -1.0325047452282259e+00 +2.2910591509146352e+00 +1.5804015664785414e+01 -5.9803467367162234e+01 +6.0778695108261010e+04 +1.1858350117442068e+06 -2.0645339747084942e+08 
-7.9999999999999876e+00 -1.0325055970540982e+00 +2.2911371414529094e+00 +1.5773117521298413e+01 -6.0835911268929273e+01 +6.1446334903378571e+04 +1.1984606183011462e+06 -2.0815924115420336e+08 
-8.0999999999999872e+00 -1.0325065956302055e+00 +2.2912365856369079e+00 +1.5749559068496906e+01 -6.2166456802529822e+01 +6.1992566968518833e+04 +1.2125026744230301e+06 -2.0924414312448460e+08 
-8.1999999999999869e+00 -1.0325077278490169e+00 +2.2913528414717153e+00 +1.5732867898618490e+01 -6.3674920906260823e+01 +6.2421111688940866e+04 +1.2273031886334836e+06 -2.0971912380998781e+08 
-8.2999999999999865e+00 -1.0325089806007066e+00 +2.2914812671728986e+00 +1.5722571331880014e+01 -6.5241121806472165e+01 +6.2735694362880648e+04 +1.2422041634577422e+06 -2.0959522610238269e+08 
-8.3999999999999861e+00 -1.0325103407730580e+00 +2.2916172211780252e+00 +1.5718196405364420e+01 -6.6744879197068300e+01 +6.2940045401849951e+04 +1.2565475960924400e+06 -2.0888351627714717e+08 
-8.4999999999999858e+00 -1.0325117952514375e+00 +2.2917560621517641e+00 +1.5719269870582430e+01 -6.8066014201224974e+01 +6.3037900372062315e+04 +1.2696754776937605e+06 -2.0759508417966756e+08 
-8.5999999999999854e+00 -1.0325133309186385e+00 +2.2918931489900705e+00 +1.5725318173308398e+01 -6.9084349346476472e+01 +6.3033000378327131e+04 +1.2809297928769039e+06 -2.0574104505001777e+08 
-8.6999999999999851e+00 -1.0325149346548717e+00 +2.2920238408345246e+00 +1.5735867454797498e+01 -6.9679708795962739e+01 +6.2929092024028003e+04 +1.2896525205852559e+06 -2.0333253928852949e+08 
-8.7999999999999847e+00 -1.0325165933376830e+00 +2.2921434970630150e+00 +1.5750443540228607e+01 -6.9731917923542042e+01 +6.2729927635197419e+04 +1.2951856312343581e+06 -2.0038073353209755e+08 
-8.8999999999999844e+00 -1.0325182938418274e+00 +2.2922474773201396e+00 +1.5768571925212225e+01 -6.9120804031639082e+01 +6.2439265502956434e+04 +1.2968710904690814e+06 -1.9689682177005947e+08 
-8.9999999999999840e+00 -1.0325200230392397e+00 +2.2923311414964633e+00 +1.5789777771147115e+01 -6.7726195563934041e+01 +6.2060869972227694e+04 +1.2940508541206799e+06 -1.9289202576499966e+08 
-9.0999999999999837e+00 -1.0325217677989480e+00 +2.2923898497570026e+00 +1.5813585896370560e+01 -6.5427922788619938e+01 +6.1598511599739868e+04 +1.2860668718157338e+06 -1.8837759577976742e+08 
-9.1999999999999833e+00 -1.0325235149869534e+00 +2.2924189625356943e+00 +1.5839520760819106e+01 -6.2105817456127063e+01 +6.1055967439853019e+04 +1.2722610845274907e+06 -1.8336481191666126e+08 
-9.2999999999999829e+00 -1.0325252514662477e+00 +2.2924138405497025e+00 +1.5867106469086679e+01 -5.7639713054909258e+01 +6.0437020983160546e+04 +1.2519754256652093e+06 -1.7786498382066631e+08 
-9.3999999999999826e+00 -1.0325269640966273e+00 +2.2923698447962866e+00 +1.5895866748154813e+01 -5.1909444543137326e+01 +5.9745462569319512e+04 +1.2245518190648998e+06 -1.7188945261110333e+08 
-9.4999999999999822e+00 -1.0325286397348410e+00 +2.2922823366679492e+00 +1.5925324981279616e+01 -4.4794851264968372e+01 +5.8985088627820238e+04 +1.1893321863253277e+06 -1.6544958772072515e+08 
-9.5999999999999819e+00 -1.0325302667862801e+00 +2.2921480612048977e+00 +1.5955070178628025e+01 -3.6212720855722111e+01 +5.8159389241120873e+04 +1.1458489699914383e+06 -1.5855811033461446e+08 
-9.6999999999999815e+00 -1.0325318398686494e+00 +2.2919696149600362e+00 +1.5984789009947526e+01 -2.6241091960811158e+01 +5.7275122671915567e+04 +1.0944874596166606e+06 -1.5125666930917528e+08 
-9.7999999999999812e+00 -1.0325333551495872e+00 +2.2917511834253550e+00 +1.6014147369983775e+01 -1.5003304880649903e+01 +5.6341127342603955e+04 +1.0358776540503147e+06 -1.4360089818593392e+08 
-9.8999999999999808e+00 -1.0325348087974797e+00 +2.2914969521223463e+00 +1.6042811122770377e+01 -2.6227028389834657e+00 +5.5366244863009473e+04 +9.7064957863189222e+05 -1.3564645467484638e+08 
-9.9999999999999805e+00 -1.0325361969816542e+00 +2.2912111062532738e+00 +1.6070446168205702e+01 +1.0777381982024924e+01 +5.4359318002321976e+04 +8.9943320159114012e+05 -1.2744900926918179e+08 
-1.0099999999999980e+01 -1.0325375158725758e+00 +2.2908978306789458e+00 +1.6096718465899794e+01 +2.5073629096031031e+01 +5.3329190272307751e+04 +8.2285843055062415e+05 -1.1906424341681997e+08 
