# multipoles
# s[mm] polynom_b[n=0][T/m^n] polynom_b[n=1][T/m^n] polynom_b[n=2][T/m^n] polynom_b[n=3][T/m^n] polynom_b[n=4][T/m^n] polynom_b[n=5][T/m^n] polynom_b[n=6][T/m^n] 
-0.0000000000000000e+00 -1.0310372869138551e+00 +2.3091366086456269e+00 +1.7201063948288308e+01 -5.3496625237147850e+02 +5.7750082738397607e+04 +3.6103117073661815e+06 -2.4171982372524300e+08 
-1.0005104645227200e-01 -1.0310353347550252e+00 +2.3089616697557744e+00 +1.6795334443658966e+01 -5.3224836986352648e+02 +6.4520612577495202e+04 +3.6005961344126952e+06 -2.6994028155473757e+08 
-2.0010209290454301e-01 -1.0310332554128063e+00 +2.3087784688266932e+00 +1.6387853327302039e+01 -5.2933441260051427e+02 +7.1289318624020088e+04 +3.5895341100221965e+06 -2.9813102522068876e+08 
-3.0015313935681498e-01 -1.0310310660208495e+00 +2.3085885917940479e+00 +1.5979517596864186e+01 -5.2624907074551356e+02 +7.8044945388890890e+04 +3.5772049279833450e+06 -3.2625633418427354e+08 
-4.0020418580908601e-01 -1.0310287837126506e+00 +2.3083936245754297e+00 +1.5571224223052171e+01 -5.2301703321020830e+02 +8.4776238018146265e+04 +3.5636878737579472e+06 -3.5428049140344977e+08 
-5.0025523226135804e-01 -1.0310264256215800e+00 +2.3081951530506761e+00 +1.5163870152053168e+01 -5.1966298716223321e+02 +9.1471942273324981e+04 +3.5490622221596162e+06 -3.8216778333013242e+08 
-6.0030627871362996e-01 -1.0310240088807650e+00 +2.3079947630475584e+00 +1.4758352289682323e+01 -5.1621161767169031e+02 +9.8120804869574335e+04 +3.5334072357898587e+06 -4.0988250164467609e+08 
-7.0035732516590099e-01 -1.0310215506232518e+00 +2.3077940403193820e+00 +1.4355567517920163e+01 -5.1268760716564452e+02 +1.0471157317194331e+05 +3.5168021624391959e+06 -4.3738894185279310e+08 
-8.0040837161817302e-01 -1.0310190679819098e+00 +2.3075945705309975e+00 +1.3956412680845578e+01 -5.0911563508920983e+02 +1.1123299549436808e+05 +3.4993262335985671e+06 -4.6465140482100540e+08 
-9.0045941807044405e-01 -1.0310165780894511e+00 +2.3073979392415787e+00 +1.3561784586797248e+01 -5.0552037748951017e+02 +1.1767382108489676e+05 +3.4810586626271326e+06 -4.9163419679416263e+08 
-1.0005104645227201e+00 -1.0310140980784321e+00 +2.3072057318803898e+00 +1.3172580004526552e+01 -5.0192650637186159e+02 +1.2402280022611794e+05 +3.4620786414335412e+06 -5.1830162996968508e+08 
-1.1005615109749900e+00 -1.0310116450812656e+00 +2.3070195337357067e+00 +1.2789695664505063e+01 -4.9835868947745189e+02 +1.3026868422729203e+05 +3.4424653397924420e+06 -5.4461802252530563e+08 
-1.2006125574272599e+00 -1.0310092362302854e+00 +2.3068409299330384e+00 +1.2414028262484857e+01 -4.9484158972634509e+02 +1.3640022538677856e+05 +3.4222979025933491e+06 -5.7054769854438889e+08 
-1.3006636038795301e+00 -1.0310068886575345e+00 +2.3066715054186182e+00 +1.2046474433480338e+01 -4.9139986481330089e+02 +1.4240617751736470e+05 +3.4016554480391005e+06 -5.9605499061815953e+08 
-1.4007146503318000e+00 -1.0310046194950735e+00 +2.3065128449369183e+00 +1.1687930785960814e+01 -4.8805816663087649e+02 +1.4827529530933441e+05 +3.3806170647763144e+06 -6.2110423687076426e+08 
-1.5007656967840699e+00 -1.0310024458747089e+00 +2.3063665330265199e+00 +1.1339293867703969e+01 -4.8484114128349324e+02 +1.5399633501507450e+05 +3.3592618128714398e+06 -6.4565978431241846e+08 
-1.6008167432363500e+00 -1.0310003829086500e+00 +2.3062337434434399e+00 +1.1001350591317424e+01 -4.8176713231037070e+02 +1.5955913459215284e+05 +3.3376511976469983e+06 -6.6968656457423604e+08 
-1.7008677896886200e+00 -1.0309984378793706e+00 +2.3061140103793876e+00 +1.0674476163373370e+01 -4.7882804019781338e+02 +1.6495745135462892e+05 +3.3157611329919854e+06 -6.9315048727081192e+08 
-1.8009188361408901e+00 -1.0309966161718191e+00 +2.3060064585828313e+00 +1.0358949271367468e+01 -4.7600884999868276e+02 +1.7018592481404167e+05 +3.2935424187158439e+06 -7.1601737455357218e+08 
-1.9009698825931600e+00 -1.0309949231709190e+00 +2.3059102126555588e+00 +1.0055048590798997e+01 -4.7329454242666873e+02 +1.7523919481781317e+05 +3.2709458283814513e+06 -7.3825305048976207e+08 
-2.0010209290454299e+00 -1.0309933642614615e+00 +2.3058243970573109e+00 +9.7630527756102534e+00 -4.7067009398624811e+02 +1.8011190169831685e+05 +3.2479221095678895e+06 -7.5982334165397537e+08 
-2.1010719754977001e+00 -1.0309919448282101e+00 +2.3057481361036594e+00 +9.4832404700236417e+00 -4.6812047694275191e+02 +1.8479868602635010e+05 +3.2244219832851528e+06 -7.8069407586180520e+08 
-2.2011230219499698e+00 -1.0309906702559042e+00 +2.3056805539616581e+00 +9.2158903145708226e+00 -4.6563065918134720e+02 +1.8929418846760347e+05 +3.2003961426444720e+06 -8.0083108137964308e+08 
-2.3011740684022501e+00 -1.0309895459291980e+00 +2.3056207746592947e+00 +8.9612809374993354e+00 -4.6318560451427686e+02 +1.9359304992663462e+05 +3.1757952542415322e+06 -8.2020018752113199e+08 
-2.4012251148545198e+00 -1.0309885772327521e+00 +2.3055679220756504e+00 +8.7196909677324843e+00 -4.6077027240059056e+02 +1.9768991127108072e+05 +3.1505699560364718e+06 -8.3876722322593009e+08 
-2.5012761613067900e+00 -1.0309877695511898e+00 +2.3055211199500683e+00 +8.4913990321454484e+00 -4.5836961821477189e+02 +2.0157941335828369e+05 +3.1246708584447582e+06 -8.5649801708429432e+08 
-2.6013272077590601e+00 -1.0309871282691274e+00 +2.3054794918716777e+00 +8.2766837622040175e+00 -4.5596859296511172e+02 +2.0525619688661667e+05 +3.0980485422930298e+06 -8.7335839653646648e+08 
-2.7013782542113298e+00 -1.0309866587711567e+00 +2.3054421612870999e+00 +8.0758237899544589e+00 -4.5355214351542884e+02 +2.0871490244708478e+05 +3.0706535595788052e+06 -8.8931418801900887e+08 
-2.8014293006636000e+00 -1.0309863664419252e+00 +2.3054082514986067e+00 +7.8890977632489303e+00 -4.5110521256088833e+02 +2.1195017020327333e+05 +3.0424364329461823e+06 -9.0433121532784581e+08 
-2.9014803471158799e+00 -1.0309862566660590e+00 +2.3053768856625361e+00 +7.7167843362586552e+00 -4.4861273857598468e+02 +2.1495664004980866e+05 +3.0133476548678558e+06 -9.1837530027833641e+08 
-3.0015313935681500e+00 -1.0309863348281989e+00 +2.3053471867926256e+00 +7.5591621751101457e+00 -4.4605965592832331e+02 +2.1772895148555044e+05 +2.9833376878686361e+06 -9.3141226201843369e+08 
-3.1015824400204202e+00 -1.0309866063130126e+00 +2.3053182777532424e+00 +7.4165099631435067e+00 -4.4343089469209349e+02 +2.2026174347971467e+05 +2.9523569629872274e+06 -9.4340791626646161e+08 
-3.2016334864726899e+00 -1.0309870765052875e+00 +2.3052892812651824e+00 +7.2891064115686603e+00 -4.4071138083243471e+02 +2.2254965424636955e+05 +2.9203558803778221e+06 -9.5432807414233124e+08 
-3.3016845329249600e+00 -1.0309877507897711e+00 +2.3052593199059386e+00 +7.1772302425101042e+00 -4.3788603622101374e+02 +2.2458732154838013e+05 +2.8872848089620806e+06 -9.6413854353470325e+08 
-3.4017355793772301e+00 -1.0309886345512997e+00 +2.3052275161063678e+00 +7.0811602084805232e+00 -4.3493977854614121e+02 +2.2636938229191900e+05 +2.8530940854283464e+06 -9.7280512704047453e+08 
-3.5017866258295101e+00 -1.0309897331747571e+00 +2.3051929921419121e+00 +7.0011750858758104e+00 -4.3185752083169859e+02 +2.2789047265676773e+05 +2.8177340090008681e+06 -9.8029362271323550e+08 
-3.6018376722817802e+00 -1.0309910488184824e+00 +2.3051550296864591e+00 +6.9373348766318657e+00 -4.2862786103639729e+02 +2.2914888903916773e+05 +2.7811752909763972e+06 -9.8658805138453674e+08 
-3.7018887187340499e+00 -1.0309925714672961e+00 +2.3051135809290786e+00 +6.8888716133248353e+00 -4.2525644523096537e+02 +2.3015680439397707e+05 +2.7434948803314809e+06 -9.9174169041595674e+08 
-3.8019397651863200e+00 -1.0309942882352294e+00 +2.3050687729724109e+00 +6.8548212947855607e+00 -4.2175370465106141e+02 +2.3092968766005713e+05 +2.7048018952840203e+06 -9.9582434036044443e+08 
-3.9019908116385902e+00 -1.0309961862365069e+00 +2.3050207330081651e+00 +6.8342199549322924e+00 -4.1813007294810319e+02 +2.3148300692108288e+05 +2.6652054687084132e+06 -9.9890579711481249e+08 
-4.0020418580908599e+00 -1.0309982525855137e+00 +2.3049695883026931e+00 +6.8261036619657567e+00 -4.1439598571355600e+02 +2.3183222941718981e+05 +2.6248147453642171e+06 -1.0010558519573389e+09 
-4.1020929045431300e+00 -1.0310004743968413e+00 +2.3049154662366522e+00 +6.8295085245302021e+00 -4.1056188163922457e+02 +2.3199282140013910e+05 +2.5837388888773140e+06 -1.0023442907790241e+09 
-4.2021439509954099e+00 -1.0310028387852872e+00 +2.3048584943050527e+00 +6.8434706906529836e+00 -4.0663820250979239e+02 +2.3198024815736047e+05 +2.5420870818978949e+06 -1.0028408942167053e+09 
-4.3021949974476801e+00 -1.0310053328658781e+00 +2.3047988001310875e+00 +6.8670263528632072e+00 -4.0263539358360765e+02 +2.3180997389388765e+05 +2.4999685284927120e+06 -1.0026154370274230e+09 
-4.4022460438999502e+00 -1.0310079437538837e+00 +2.3047365114817691e+00 +6.8992117506374120e+00 -3.9856390405248993e+02 +2.3149746167517506e+05 +2.4574924570774413e+06 -1.0017376877956805e+09 
-4.5022970903522204e+00 -1.0310106585647998e+00 +2.3046717562872701e+00 +6.9390631706691410e+00 -3.9443418756751703e+02 +2.3105817341289393e+05 +2.4147681236207820e+06 -1.0002774088380672e+09 
-4.6023481368044896e+00 -1.0310134644143849e+00 +2.3046046626435475e+00 +6.9856169475195555e+00 -3.9025670233693154e+02 +2.3050756984109984e+05 +2.3719048124484280e+06 -9.9830435606116152e+08 
-4.7023991832567598e+00 -1.0310163484186849e+00 +2.3045353588359458e+00 +7.0379094735144800e+00 -3.8604191177275123e+02 +2.2986111031006253e+05 +2.3290118401941089e+06 -9.9588827793162501e+08 
-4.8024502297090397e+00 -1.0310192976940404e+00 +2.3044639733491348e+00 +7.0949771964482462e+00 -3.8180028479473174e+02 +2.2913425282236346e+05 +2.2861985578039824e+06 -9.9309891562975836e+08 
-4.9025012761613098e+00 -1.0310222993571114e+00 +2.3043906348808210e+00 +7.1558566240664536e+00 -3.7754229620309366e+02 +2.2834245393988627e+05 +2.2435743528672569e+06 -9.9000600258653879e+08 
-5.0025523226135800e+00 -1.0310253405248009e+00 +2.3043154723518278e+00 +7.2195843180658130e+00 -3.7327842695131369e+02 +2.2750116887791449e+05 +2.2012486514091473e+06 -9.8667926487663603e+08 
-5.1026033690658501e+00 -1.0310284083144263e+00 +2.3042386149304885e+00 +7.2851969124145990e+00 -3.6901916487481088e+02 +2.2662585115150054e+05 +2.1593309223763365e+06 -9.8318841952508175e+08 
-5.2026544155181202e+00 -1.0310314898435633e+00 +2.3041601920335002e+00 +7.3517310975532517e+00 -3.6477500467117034e+02 +2.2573195286194494e+05 +2.1179306776597025e+06 -9.7960317583027983e+08 
-5.3027054619703904e+00 -1.0310345722302070e+00 +2.3040803333474744e+00 +7.4182236396092787e+00 -3.6055644855337567e+02 +2.2483492431390559e+05 +2.0771574761745350e+06 -9.7599323349801445e+08 
-5.4027565084226703e+00 -1.0310376425927099e+00 +2.3039991688430574e+00 +7.4837113752928968e+00 -3.5637400661118488e+02 +2.2395021411330553e+05 +2.0371209260980401e+06 -9.7242828310991526e+08 
-5.5028075548749404e+00 -1.0310406880499532e+00 +2.3039168288241614e+00 +7.5472312367992451e+00 -3.5223819750135743e+02 +2.2309326871867667e+05 +1.9979306869267505e+06 -9.6897800413550305e+08 
-5.6028586013272097e+00 -1.0310436975848638e+00 +2.3038334280790727e+00 +7.6079933923016165e+00 -3.4815673721865676e+02 +2.2227683127137407e+05 +1.9596686091950997e+06 -9.6570038899798942e+08 
-5.7029096477794798e+00 -1.0310466666741323e+00 +2.3037489519580130e+00 +7.6657954590458939e+00 -3.4412613536881003e+02 +2.2150455953339886e+05 +1.9223079923533504e+06 -9.6261380744190300e+08 
-5.8029606942317500e+00 -1.0310495922055338e+00 +2.3036633413981495e+00 +7.7205591597155427e+00 -3.4014013699135012e+02 +2.2077821141761183e+05 +1.8857955358487207e+06 -9.5972824106251180e+08 
-5.9030117406840201e+00 -1.0310524710666700e+00 +2.3035765373715762e+00 +7.7722061880088509e+00 -3.3619248828521575e+02 +2.2009954547247122e+05 +1.8500779482131689e+06 -9.5705367482845247e+08 
-6.0030627871363000e+00 -1.0310553001450828e+00 +2.3034884808838818e+00 +7.8206582213775988e+00 -3.3227693658347869e+02 +2.1947032065140465e+05 +1.8151019472991943e+06 -9.5460009605680978e+08 
-6.1031138335885702e+00 -1.0310580763280830e+00 +2.3033991129730844e+00 +7.8658368997169932e+00 -3.2838723035598485e+02 +2.1889229672782571e+05 +1.7808142604946347e+06 -9.5237749641981518e+08 
-6.2031648800408403e+00 -1.0310607965028771e+00 +2.3033083747160257e+00 +7.9076638406257338e+00 -3.2451711938194268e+02 +2.1836723401304049e+05 +1.7471616257817966e+06 -9.5039587063796246e+08 
-6.3032159264931096e+00 -1.0310634575564308e+00 +2.3032162072226705e+00 +7.9460606207472102e+00 -3.2066035461964447e+02 +2.1789689372670252e+05 +1.7140907911620822e+06 -9.4866521829376566e+08 
-6.4032669729453797e+00 -1.0310660563755989e+00 +2.3031225516417431e+00 +7.9809487933273138e+00 -3.1681068838558559e+02 +2.1748303765934345e+05 +1.6815485158375234e+06 -9.4719554222565043e+08 
-6.5033180193976499e+00 -1.0310685898469854e+00 +2.3030273491559208e+00 +8.0122498665645363e+00 -3.1296187421348878e+02 +2.1712742860779021e+05 +1.6494815694543507e+06 -9.4599685067633629e+08 
-6.6033690658499298e+00 -1.0310710548569837e+00 +2.3029305409879868e+00 +8.0398853122747145e+00 -3.0910766705743680e+02 +2.1683183021017839e+05 +1.6178367334856216e+06 -9.4507915651381636e+08 
-6.7034201123021999e+00 -1.0310734482917989e+00 +2.3028320683995878e+00 +8.0637765644779709e+00 -3.0524182326070343e+02 +2.1659800698827175e+05 +1.5865608011151471e+06 -9.4445247748838317e+08 
-6.8034711587544701e+00 -1.0310757670373827e+00 +2.3027318726897157e+00 +8.0838450111710340e+00 -3.0135810054568896e+02 +2.1642772450742553e+05 +1.5556005773668285e+06 -9.4412683700964224e+08 
-6.9035222052067402e+00 -1.0310780079794772e+00 +2.3026298951937005e+00 +8.1000120019610726e+00 -2.9745025795973862e+02 +2.1632274924481552e+05 +1.5249028788440174e+06 -9.4411226356954527e+08 
-7.0035732516590103e+00 -1.0310801680035533e+00 +2.3025260772929803e+00 +8.1121988356747128e+00 -2.9351205622201593e+02 +2.1628484883368318e+05 +1.4944145359697049e+06 -9.4441879193424416e+08 
-7.1036242981112796e+00 -1.0310822439948160e+00 +2.3024203604045077e+00 +8.1203267623689133e+00 -2.8953725738629072e+02 +2.1631579203760167e+05 +1.4640823910676951e+06 -9.4505646306858087e+08 
-7.2036753445635497e+00 -1.0310842328382368e+00 +2.3023126859884075e+00 +8.1243169882155026e+00 -2.8551962509745329e+02 +2.1641734865642872e+05 +1.4338533000239264e+06 -9.4603532369418895e+08 
-7.3037263910158297e+00 -1.0310861314184354e+00 +2.3022029955476491e+00 +8.1240906554801668e+00 -2.8145292460010774e+02 +2.1659128993069121e+05 +1.4036741324650915e+06 -9.4736542828675318e+08 
-7.4037774374680998e+00 -1.0310879366198145e+00 +2.3020912306240833e+00 +8.1195688644954203e+00 -2.7733092262648705e+02 +2.1683938812257611e+05 +1.3734917712494577e+06 -9.4905683709196544e+08 
-7.5038284839203699e+00 -1.0310896453265628e+00 +2.3019773328540158e+00 +8.1106726635576045e+00 -2.7314739128685324e+02 +2.1716341643461885e+05 +1.3432531370909563e+06 -9.5111961511521804e+08 
-7.6038795303726401e+00 -1.0310912567285051e+00 +2.3018612809456802e+00 +8.0974425733883582e+00 -2.6889933106676460e+02 +2.1756305324996167e+05 +1.3129243922271195e+06 -9.5355378563362229e+08 
-7.7039305768249102e+00 -1.0310927783215156e+00 +2.3017431588187818e+00 +8.0803542238993931e+00 -2.6459195314250479e+02 +2.1803049175492878e+05 +1.2825157322444315e+06 -9.5632365347086787e+08 
-7.8039816232771804e+00 -1.0310942194742501e+00 +2.3016230676636766e+00 +8.0599828075734390e+00 -2.6023157793305847e+02 +2.1855622938888392e+05 +1.2520416173262564e+06 -9.5938542251907003e+08 
-7.9040326697294496e+00 -1.0310955895553580e+00 +2.3015011084873298e+00 +8.0369035158217983e+00 -2.5582452092439223e+02 +2.1913076370441224e+05 +1.2215164771523650e+06 -9.6269529737752068e+08 
-8.0040837161817304e+00 -1.0310968979334931e+00 +2.3013773821054841e+00 +8.0116915427997242e+00 -2.5137709252008045e+02 +2.1974459230360057e+05 +1.1909547103942512e+06 -9.6620948309830642e+08 
-8.1041347626340006e+00 -1.0310981539773019e+00 +2.3012519891394310e+00 +7.9849220817361575e+00 -2.4689559796439758e+02 +2.2038821291601783e+05 +1.1603706841759258e+06 -9.6988418557698500e+08 
-8.2041858090862707e+00 -1.0310993670554476e+00 +2.3011250300134471e+00 +7.9571703302583980e+00 -2.4238633728470106e+02 +2.2105212329469246e+05 +1.1297787336913846e+06 -9.7367561104823148e+08 
-8.3042368555385409e+00 -1.0311005465365521e+00 +2.3009966049412358e+00 +7.9290114810825907e+00 -2.3785560490438957e+02 +2.2172682140651729e+05 +1.0991931598368934e+06 -9.7753996702384496e+08 
-8.4042879019908092e+00 -1.0311017017892703e+00 +2.3008668139223993e+00 +7.9010207327587008e+00 -2.3330968956327135e+02 +2.2240280522256441e+05 +1.0686282287050404e+06 -9.8143346127837312e+08 
-8.5043389484430794e+00 -1.0311028421822230e+00 +2.3007357567410813e+00 +7.8737732819117880e+00 -2.2875487427856623e+02 +2.2307057287560040e+05 +1.0380981712411839e+06 -9.8531230262445748e+08 
-8.6043899948953602e+00 -1.0311039770840698e+00 +2.3006035329472829e+00 +7.8478443285647232e+00 -2.2419743584551696e+02 +2.2372062255906034e+05 +1.0076171803093497e+06 -9.8913270042869425e+08 
-8.7044410413476303e+00 -1.0311051158634350e+00 +2.3004702418623717e+00 +7.8238090717386006e+00 -2.1964364497216459e+02 +2.2434345262015515e+05 +9.7719941134150780e+05 -9.9285086507743049e+08 
-8.8044920877999004e+00 -1.0311062678889320e+00 +2.3003359825664087e+00 +7.8022427093665137e+00 -2.1509976596477804e+02 +2.2492956155714864e+05 +9.4685898049829225e+05 -9.9642300795011532e+08 
-8.9045431342521706e+00 -1.0311074425292175e+00 +2.3002008538942866e+00 +7.7837204462044438e+00 -2.1057205660595568e+02 +2.2546944788026076e+05 +9.1660996382442454e+05 -9.9980534078465736e+08 
-9.0045941807044407e+00 -1.0311086491529047e+00 +2.3000649544248817e+00 +7.7688174828049288e+00 -2.0606676785475412e+02 +2.2595361032319599e+05 +8.8646639544183982e+05 -1.0029540766881632e+09 
-9.1046452271567109e+00 -1.0311098971286043e+00 +2.2999283824794414e+00 +7.7581090216617286e+00 -2.0159014382185703e+02 +2.2637254772600217e+05 +8.5644226733687089e+05 -1.0058254295734134e+09 
-9.2046962736089899e+00 -1.0311111958249513e+00 +2.2997912361168784e+00 +7.7521702676475828e+00 -1.9714842165169759e+02 +2.2671675904016462e+05 +8.2655152859980194e+05 -1.0083756142194695e+09 
-9.3047473200612600e+00 -1.0311125546105497e+00 +2.2996536131144198e+00 +7.7515764249319945e+00 -1.9274783096272512e+02 +2.2697674337941891e+05 +7.9680808208558743e+05 -1.0105608464871217e+09 
-9.4047983665135302e+00 -1.0311139828540250e+00 +2.2995156109812496e+00 +7.7569027003611595e+00 -1.8839459427070810e+02 +2.2714299996827892e+05 +7.6722578679586167e+05 -1.0123373431094620e+09 
-9.5048494129658003e+00 -1.0311154899232760e+00 +2.2993773268542146e+00 +7.7687242279228874e+00 -1.8409492326692992e+02 +2.2720602967895789e+05 +7.3781844325327605e+05 -1.0136613286410589e+09 
-9.6049004594180705e+00 -1.0311170817855586e+00 +2.2992390009591763e+00 +7.7873980436825114e+00 -1.7985730823066692e+02 +2.2715967383775886e+05 +7.0861738788418612e+05 -1.0145034183388687e+09 
-9.7049515058703406e+00 -1.0311187529517556e+00 +2.2991014041402149e+00 +7.8125554645801412e+00 -1.7569929627294422e+02 +2.2700869126711815e+05 +6.7972549017400574e+05 -1.0148815485087932e+09 
-9.8050025523226108e+00 -1.0311204955186282e+00 +2.2989654282920431e+00 +7.8436762681203289e+00 -1.7164060838319014e+02 +2.2676008321262148e+05 +6.5126396904209105e+05 -1.0148234974036548e+09 
-9.9050535987748898e+00 -1.0311223015836264e+00 +2.2988319655765674e+00 +7.8802403138357802e+00 -1.6770097142559678e+02 +2.2642084929263816e+05 +6.2335407371454057e+05 -1.0143570354777503e+09 
-1.0005104645227201e+01 -1.0311241632448216e+00 +2.2987019084361648e+00 +7.9217275363335391e+00 -1.6390011830584868e+02 +2.2599798762421109e+05 +5.9611708273653244e+05 -1.0135099258243101e+09 
-1.0105155691679400e+01 -1.0311260726010218e+00 +2.2985761495908372e+00 +7.9676179586649232e+00 -1.6025778783207031e+02 +2.2549849455073642e+05 +5.6967430297305179e+05 -1.0123099228300498e+09 
