# multipoles
# s[mm] polynom_b[n=0][T/m^n] polynom_b[n=1][T/m^n] polynom_b[n=2][T/m^n] polynom_b[n=3][T/m^n] polynom_b[n=4][T/m^n] polynom_b[n=5][T/m^n] polynom_b[n=6][T/m^n] 
+0.0000000000000000e+00 -1.0352145149330396e+00 +2.2861212608447929e+00 +2.5001022283120776e+01 +1.9661332703642688e+02 -1.1350338707904943e+05 -3.7347756021385820e+05 +5.9802414695201588e+08 
+1.0000000000000001e-01 -1.0352157272036491e+00 +2.2857498576363775e+00 +2.4995955761472153e+01 +2.0195912710126490e+02 -1.1377966756984820e+05 -4.1187152956062165e+05 +5.9970281532544339e+08 
+2.0000000000000001e-01 -1.0352168257511971e+00 +2.2853719413285409e+00 +2.4982484094935614e+01 +2.0763507538779805e+02 -1.1394169097494484e+05 -4.5189386175857228e+05 +6.0092900361927807e+08 
+3.0000000000000004e-01 -1.0352177989819649e+00 +2.2849868314513184e+00 +2.4959843234005636e+01 +2.1366668727791705e+02 -1.1397669660468315e+05 -4.9357820556417399e+05 +6.0164760610546303e+08 
+4.0000000000000002e-01 -1.0352186353021624e+00 +2.2845938476139827e+00 +2.4927269122757995e+01 +2.2007947644600577e+02 -1.1387192380477049e+05 -5.3695820183144603e+05 +6.0180351782958663e+08 
+5.0000000000000000e-01 -1.0352193231181288e+00 +2.2841923095207171e+00 +2.4883997727112632e+01 +2.2689895439178963e+02 -1.1361461254728858e+05 -5.8206748070439044e+05 +6.0134163760146892e+08 
+5.9999999999999998e-01 -1.0352198549497111e+00 +2.2837819596782385e+00 +2.4829504156521526e+01 +2.3413691310566736e+02 -1.1319540273657648e+05 -6.2888488564634242e+05 +6.0022057182442701e+08 
+6.9999999999999996e-01 -1.0352202397823806e+00 +2.2833642345432636e+00 +2.4764219092294788e+01 +2.4175015736768179e+02 -1.1261848092356292e+05 -6.7716940632144373e+05 +5.9845357321822047e+08 
+7.9999999999999993e-01 -1.0352204907210238e+00 +2.2829409949100250e+00 +2.4688811878954368e+01 +2.4968171348991518e+02 -1.1189140772727055e+05 -7.2662487630811252e+05 +5.9606751434484875e+08 
+8.9999999999999991e-01 -1.0352206208706480e+00 +2.2825141016304489e+00 +2.4603951879000743e+01 +2.5787460606160107e+02 -1.1102174425222777e+05 -7.7695511898358481e+05 +5.9308927060173404e+08 
+9.9999999999999989e-01 -1.0352206433364439e+00 +2.2820854156165247e+00 +2.4510308480524635e+01 +2.6627185772481027e+02 -1.1001705221638329e+05 -8.2786394569942087e+05 +5.8954572076716340e+08 
+1.0999999999999999e+00 -1.0352205712237350e+00 +2.2816567978193985e+00 +2.4408551090005499e+01 +2.7481648963601896e+02 -1.0888489379847029e+05 -8.7905515796379198e+05 +5.8546374621100199e+08 
+1.2000000000000000e+00 -1.0352204176381101e+00 +2.2812301092330620e+00 +2.4299349149086925e+01 +2.8345152119760627e+02 -1.0763283194181856e+05 -9.3023254534125212e+05 +5.8087023228045154e+08 
+1.3000000000000000e+00 -1.0352201956853044e+00 +2.2808072108789235e+00 +2.4183372118390139e+01 +2.9211997034955016e+02 -1.0626843003054873e+05 -9.8109988661647716e+05 +5.7579206669797432e+08 
+1.4000000000000001e+00 -1.0352199184713515e+00 +2.2803899637997649e+00 +2.4061289496359350e+01 +3.0076485359962675e+02 -1.0479925222818149e+05 -1.0313609494811031e+06 +5.7025614109754217e+08 
+1.5000000000000002e+00 -1.0352195991024882e+00 +2.2799802290523825e+00 +2.3933770806512992e+01 +3.0932918608456549e+02 -1.0323286322329575e+05 -1.0807194903687118e+06 +5.6428934976735997e+08 
+1.6000000000000003e+00 -1.0352192506852693e+00 +2.2795798676984282e+00 +2.3801485612162434e+01 +3.1775598165557426e+02 -1.0157682849343357e+05 -1.1288792543544304e+06 +5.5791859083818936e+08 
+1.7000000000000004e+00 -1.0352188863265517e+00 +2.2791907407941085e+00 +2.3665103512900988e+01 +3.2598825305851506e+02 -9.9838714219831512e+04 -1.1755439757855122e+06 +5.5117076581231892e+08 
+1.8000000000000005e+00 -1.0352185191335286e+00 +2.2788147093844890e+00 +2.3525294148679496e+01 +3.3396901192310713e+02 -9.8026087348206085e+04 -1.2204173776315593e+06 +5.4407277978545511e+08 
+1.9000000000000006e+00 -1.0352181622137113e+00 +2.2784536345005422e+00 +2.3382727197333907e+01 +3.4164126870287140e+02 -9.6146515529591736e+04 -1.2632031706372222e+06 +5.3665154111736143e+08 
+2.0000000000000004e+00 -1.0352178286750042e+00 +2.2781093771349261e+00 +2.3238072383263759e+01 +3.4894803321960819e+02 -9.4207567267486666e+04 -1.3036050559604077e+06 +5.2893396205961019e+08 
+2.1000000000000005e+00 -1.0352175316256877e+00 +2.2777837982528029e+00 +2.3091999474430782e+01 +3.5583231419826961e+02 -9.2216811842906303e+04 -1.3413267219430441e+06 +5.2094695833564311e+08 
+2.2000000000000006e+00 -1.0352172841744494e+00 +2.2774787587740293e+00 +2.2945178286255395e+01 +3.6223711962611975e+02 -9.0181819373708990e+04 -1.3760718456759362e+06 +5.1271744936029285e+08 
+2.3000000000000007e+00 -1.0352170994304382e+00 +2.2771961195603811e+00 +2.2798278687610011e+01 +3.6810545696864330e+02 -8.8110160913214058e+04 -1.4075440937296848e+06 +5.0427235865160245e+08 
+2.4000000000000008e+00 -1.0352169905031992e+00 +2.2769377414175485e+00 +2.2651970591929004e+01 +3.7338033297159581e+02 -8.6009408263298625e+04 -1.4354471205217210e+06 +4.9563861287301975e+08 
+2.5000000000000009e+00 -1.0352169705028518e+00 +2.2767054850818829e+00 +2.2506923980096499e+01 +3.7800475386817578e+02 -8.3887134401910342e+04 -1.4594845690247880e+06 +4.8684314381894982e+08 
+2.6000000000000010e+00 -1.0352170509714727e+00 +2.2765007164936040e+00 +2.2363796567079966e+01 +3.8193406460812980e+02 -8.1751566658317126e+04 -1.4794229456772150e+06 +4.7791689856576347e+08 
+2.7000000000000011e+00 -1.0352172370361503e+00 +2.2763227405011932e+00 +2.2223192479186487e+01 +3.8517536808173298e+02 -7.9613533696123632e+04 -1.4952897808364911e+06 +4.6890685458538347e+08 
+2.8000000000000012e+00 -1.0352175321857509e+00 +2.2761703257430690e+00 +2.2085701641461828e+01 +3.8774931914916277e+02 -7.7484518438092695e+04 -1.5071802830259225e+06 +4.5986402357342738e+08 
+2.9000000000000012e+00 -1.0352179399092323e+00 +2.2760422407024299e+00 +2.1951914000048834e+01 +3.8967657742200345e+02 -7.5376004289938384e+04 -1.5151896891348944e+06 +4.5083941970997137e+08 
+3.0000000000000013e+00 -1.0352184636957242e+00 +2.2759372536902829e+00 +2.1822419532786093e+01 +3.9097780789058913e+02 -7.3299475350566412e+04 -1.5194132687295559e+06 +4.4188406070829695e+08 
+3.1000000000000014e+00 -1.0352191070344245e+00 +2.2758541328317552e+00 +2.1697808235942368e+01 +3.9167368145564541e+02 -7.1266416151570840e+04 -1.5199463276025921e+06 +4.3304896654692537e+08 
+3.2000000000000015e+00 -1.0352198734146165e+00 +2.2757916460615819e+00 +2.1578670128751391e+01 +3.9178487517825266e+02 -6.9288311762879894e+04 -1.5168842096463863e+06 +4.2438516002889115e+08 
+3.3000000000000016e+00 -1.0352207663257003e+00 +2.2757485611004147e+00 +2.1465595257197226e+01 +3.9133207310501439e+02 -6.7376647861112928e+04 -1.5103223021238807e+06 +4.1594366709526193e+08 
+3.4000000000000017e+00 -1.0352217892570730e+00 +2.2757236454503702e+00 +2.1359173680195696e+01 +3.9033596651507963e+02 -6.5542910476307123e+04 -1.5003560375183346e+06 +4.0777551564714783e+08 
+3.5000000000000018e+00 -1.0352229456982187e+00 +2.2757156663748961e+00 +2.1259995481579971e+01 +3.8881725463997435e+02 -6.3798586224876708e+04 -1.4870808981782449e+06 +3.9993173666836238e+08 
+3.6000000000000019e+00 -1.0352242391386433e+00 +2.2757233908978929e+00 +2.1168650763152634e+01 +3.8679664481384145e+02 -6.2155162182433160e+04 -1.4705924176289674e+06 +3.9246336363221669e+08 
+3.7000000000000020e+00 -1.0352256730678462e+00 +2.2757455857705486e+00 +2.1085729641601144e+01 +3.8429485356688633e+02 -6.0624125829337536e+04 -1.4509861873857395e+06 +3.8542143225551301e+08 
+3.8000000000000020e+00 -1.0352272509753730e+00 +2.2757810174848112e+00 +2.1011822255680681e+01 +3.8133260636101039e+02 -5.9216965193310883e+04 -1.4283578558477494e+06 +3.7885698119340628e+08 
+3.9000000000000021e+00 -1.0352289763507154e+00 +2.2758284522351522e+00 +2.0947518755698542e+01 +3.7793063881619389e+02 -5.7945168658740404e+04 -1.4028031358464744e+06 +3.7282105115692705e+08 
+4.0000000000000018e+00 -1.0352308526833571e+00 +2.2758866559232609e+00 +2.0893409308823404e+01 +3.7410969673267994e+02 -5.6820225067292842e+04 -1.3744178053035222e+06 +3.6736468539160275e+08 
+4.1000000000000014e+00 -1.0352328834627276e+00 +2.2759543941378242e+00 +2.0850084094609677e+01 +3.6989053676904945e+02 -5.5853623642000843e+04 -1.3432977115098271e+06 +3.6253892934216142e+08 
+4.2000000000000011e+00 -1.0352350721782102e+00 +2.2760304321426252e+00 +2.0818133307017089e+01 +3.6529392694151574e+02 -5.5056854025828070e+04 -1.3095387745451711e+06 +3.5839483083280808e+08 
+4.3000000000000007e+00 -1.0352374223191083e+00 +2.2761135348632484e+00 +2.0798147151352808e+01 +3.6034064713272693e+02 -5.4441406241893645e+04 -1.2732369906738393e+06 +3.5498343993496674e+08 
+4.4000000000000004e+00 -1.0352399373746453e+00 +2.2762024668770526e+00 +2.0790715844131217e+01 +3.5505148949773422e+02 -5.4018770679935486e+04 -1.2344884350941675e+06 +3.5235580886712337e+08 
+4.5000000000000000e+00 -1.0352426208339507e+00 +2.2762959923890329e+00 +2.0796429612053284e+01 +3.4944725936410373e+02 -5.3800438074345875e+04 -1.1933892669982996e+06 +3.5056299195268822e+08 
+4.5999999999999996e+00 -1.0352454730797680e+00 +2.2763929124945417e+00 +2.0815606052074973e+01 +3.4355223852076841e+02 -5.3793136905183259e+04 -1.1500645955163657e+06 +3.4963533797170192e+08 
+4.6999999999999993e+00 -1.0352484817736083e+00 +2.2764923122161802e+00 +2.0847427171775067e+01 +3.3740121278341883e+02 -5.3983864149635003e+04 -1.1047447841675836e+06 +3.4951769503907484e+08 
+4.7999999999999989e+00 -1.0352516313144327e+00 +2.2765933831627643e+00 +2.0890778180736298e+01 +3.3103074980813125e+02 -5.4354478487821289e+04 -1.0576840432450292e+06 +3.5013271714315832e+08 
+4.8999999999999986e+00 -1.0352549061008356e+00 +2.2766953171797581e+00 +2.0944544229243885e+01 +3.2447740999722902e+02 -5.4886837385172097e+04 -1.0091365392093828e+06 +3.5140305247266406e+08 
+4.9999999999999982e+00 -1.0352582905310668e+00 +2.2767973063653613e+00 +2.1007610414462551e+01 +3.1777774586992172e+02 -5.5562797223671274e+04 -9.5935638964786276e+05 +3.5325134400295615e+08 
+5.0999999999999979e+00 -1.0352617690029542e+00 +2.2768985430835404e+00 +2.1078861766759125e+01 +3.1096830164810223e+02 -5.6364213008097264e+04 -9.0859766067717294e+05 +3.5560022800712788e+08 
+5.1999999999999975e+00 -1.0352653259138827e+00 +2.2769982199858934e+00 +2.1157183248651318e+01 +3.0408561259243641e+02 -5.7272938361725726e+04 -8.5711436291501008e+05 +3.5837233409243280e+08 
+5.2999999999999972e+00 -1.0352689456608595e+00 +2.2770955300308042e+00 +2.1241459760650017e+01 +2.9716620439079770e+02 -5.8270825615273214e+04 -8.0516044768649188e+05 +3.6149028556532735e+08 
+5.3999999999999968e+00 -1.0352726126403551e+00 +2.2771896665052438e+00 +2.1330576120422069e+01 +2.9024659250201984e+02 -5.9339725405758451e+04 -7.5298980306349695e+05 +3.6487669751888329e+08 
+5.4999999999999964e+00 -1.0352763112483558e+00 +2.2772798230374849e+00 +2.1423417069188968e+01 +2.8336328173390598e+02 -6.0461486793628006e+04 -7.0085625117041485e+05 +3.6845417738370860e+08 
+5.5999999999999961e+00 -1.0352800258803416e+00 +2.2773651936261263e+00 +2.1518867266956303e+01 +2.7655276537787682e+02 -6.1617957159968013e+04 -6.4901354301079526e+05 +3.7214532441501790e+08 
+5.6999999999999957e+00 -1.0352837409312585e+00 +2.2774449726469244e+00 +2.1615811288794433e+01 +2.6985152497044152e+02 -6.2790982130657649e+04 -5.9771535688378802e+05 +3.7587272932364035e+08 
+5.7999999999999954e+00 -1.0352874407954540e+00 +2.2775183548874285e+00 +2.1713133615788855e+01 +2.6329602923494303e+02 -6.3962405396703369e+04 -5.4721529199486505e+05 +3.7955897340728116e+08 
+5.8999999999999950e+00 -1.0352911098667015e+00 +2.2775845355532311e+00 +2.1809718636062140e+01 +2.5692273387923910e+02 -6.5114068718925686e+04 -4.9776686714486626e+05 +3.8312662854141694e+08 
+5.9999999999999947e+00 -1.0352947325381952e+00 +2.2776427102913095e+00 +2.1904450644883461e+01 +2.5076808087246937e+02 -6.6227811933608100e+04 -4.4962351630624046e+05 +3.8649825722084290e+08 
+6.0999999999999943e+00 -1.0352982932024128e+00 +2.2776920752165157e+00 +2.1996213825533381e+01 +2.4486849763713309e+02 -6.7285472573029052e+04 -4.0303858373308787e+05 +3.8959641072085583e+08 
+6.1999999999999940e+00 -1.0353017762512442e+00 +2.2777318269203612e+00 +2.2083892263642408e+01 +2.3926039675676247e+02 -6.8268886127838821e+04 -3.5826532207943569e+05 +3.9234363032382709e+08 
+6.2999999999999936e+00 -1.0353051660758108e+00 +2.2777611624944569e+00 +2.2166369925477916e+01 +2.3398017525991918e+02 -6.9159885634571940e+04 -3.1555688804332196e+05 +3.9466244536380124e+08 
+6.3999999999999932e+00 -1.0353084470666321e+00 +2.2777792795512206e+00 +2.2242530676385215e+01 +2.2906421397798499e+02 -6.9940302013805136e+04 -2.7516633844339178e+05 +3.9647537481189328e+08 
+6.4999999999999929e+00 -1.0353116036133883e+00 +2.2777853762538411e+00 +2.2311258251513539e+01 +2.2454887640500388e+02 -7.0591963543650403e+04 -2.3734662395371433e+05 +3.9770492477542365e+08 
+6.5999999999999925e+00 -1.0353146236497006e+00 +2.2777790759655927e+00 +2.2371671045000788e+01 +2.2045661130221603e+02 -7.1100472093817254e+04 -2.0226667417161440e+05 +3.9828961326287651e+08 
+6.6999999999999922e+00 -1.0353175099710836e+00 +2.2777616443599560e+00 +2.2423889751393919e+01 +2.1675595074604857e+02 -7.1467392396600058e+04 -1.6976262869400467e+05 +3.9823502816873729e+08 
+6.7999999999999918e+00 -1.0353202692707264e+00 +2.2777347425819063e+00 +2.2468303321125248e+01 +2.1340230511064672e+02 -7.1698534306692542e+04 -1.3958746552385742e+05 +3.9756443465339702e+08 
+6.8999999999999915e+00 -1.0353229082424125e+00 +2.2777000316504377e+00 +2.2505300769474179e+01 +2.1035108754958574e+02 -7.1799708718424299e+04 -1.1149417284965371e+05 +3.9630110190363920e+08 
+6.9999999999999911e+00 -1.0353254335804798e+00 +2.2776591724739617e+00 +2.2535271167764140e+01 +2.0755771388578407e+02 -7.1776727398426941e+04 -8.5235751361907198e+04 +3.9446830253906411e+08 
+7.0999999999999908e+00 -1.0353278519798155e+00 +2.2776138258481056e+00 +2.2558603642448137e+01 +2.0497760268660679e+02 -7.1635402963719913e+04 -6.0565214693887952e+04 +3.9208931248669285e+08 
+7.1999999999999904e+00 -1.0353301701359225e+00 +2.2775656524344310e+00 +2.2575687383259382e+01 +2.0256617584025210e+02 -7.1381549031715243e+04 -3.7235592622289252e+04 +3.8918741167148638e+08 
+7.2999999999999901e+00 -1.0353323947449107e+00 +2.2775163127680429e+00 +2.2586911641554192e+01 +2.0027885833311711e+02 -7.1020980182012558e+04 -1.4999929746600066e+04 +3.8578588380834633e+08 
+7.3999999999999897e+00 -1.0353345325035550e+00 +2.2774674672505535e+00 +2.2592665737963294e+01 +1.9807107845097212e+02 -7.0559512098170977e+04 +6.3887133755995919e+03 +3.8190801705541193e+08 
+7.4999999999999893e+00 -1.0353365901092941e+00 +2.2774207761300862e+00 +2.2593339060757906e+01 +1.9589826834606984e+02 -7.0002961527740539e+04 +2.7177256998202552e+04 +3.7757710379356855e+08 
+7.5999999999999890e+00 -1.0353385742602477e+00 +2.2773778995127012e+00 +2.2589321068327592e+01 +1.9371586367714153e+02 -6.9357146323459587e+04 +4.7612604383040431e+04 +3.7281644079496676e+08 
+7.6999999999999886e+00 -1.0353404916552447e+00 +2.2773404973380509e+00 +2.2581001292133390e+01 +1.9147930433366415e+02 -6.8627885494746995e+04 +6.7941637566624049e+04 +3.6764932944632918e+08 
+7.7999999999999883e+00 -1.0353423489939031e+00 +2.2773102293918122e+00 +2.2568769346479005e+01 +1.8914403403104029e+02 -6.7820999386371011e+04 +8.8411219867408130e+04 +3.6209907657174647e+08 
+7.8999999999999879e+00 -1.0353441529765757e+00 +2.2772887552819290e+00 +2.2553014921501187e+01 +1.8666550101783668e+02 -6.6942309542471237e+04 +1.0926819174250816e+05 +3.5618899376940298e+08 
+7.9999999999999876e+00 -1.0353459103043874e+00 +2.2772777344450517e+00 +2.2534127786959015e+01 +1.8399915785520818e+02 -6.5997638766431264e+04 +1.3075937219925845e+05 +3.4994239765252888e+08 
+8.0999999999999872e+00 -1.0353476276793352e+00 +2.2772788261303529e+00 +2.2512497804810021e+01 +1.8110046188874821e+02 -6.4992811358416504e+04 +1.5313155607088565e+05 +3.4338261096720076e+08 
+8.1999999999999869e+00 -1.0353493118042105e+00 +2.2772936894013367e+00 +2.2488514918807969e+01 +1.7792487517596129e+02 -6.3933652909732322e+04 +1.7663151452091828e+05 +3.3653296158476561e+08 
+8.2999999999999865e+00 -1.0353509693826779e+00 +2.2773239831202199e+00 +2.2462569164631436e+01 +1.7442786493870724e+02 -6.2825990492289966e+04 +2.0150599243412542e+05 +3.2941678338274807e+08 
+8.3999999999999861e+00 -1.0353526071193113e+00 +2.2773713659510868e+00 +2.2435050673555605e+01 +1.7056490344522763e+02 -6.1675652720250277e+04 +2.2800170921912868e+05 +3.2205741650976837e+08 
+8.4999999999999858e+00 -1.0353542317195492e+00 +2.2774374963460629e+00 +2.2406349664530936e+01 +1.6629146796784599e+02 -6.0488469617717041e+04 +2.5636536359979698e+05 +3.1447820712995523e+08 
+8.5999999999999854e+00 -1.0353558489935553e+00 +2.2775235446808471e+00 +2.2376817241304639e+01 +1.6157652563031817e+02 -5.9270155903965555e+04 +2.8677346461829555e+05 +3.0670397336721158e+08 
+8.6999999999999851e+00 -1.0353574610075416e+00 +2.2776285716470368e+00 +2.2346678616688870e+01 +1.5645043689815068e+02 -5.8027022825522778e+04 +3.1906825179886178e+05 +2.9877125337292075e+08 
+8.7999999999999847e+00 -1.0353590688494261e+00 +2.2777510590898080e+00 +2.2316136080737785e+01 +1.5096123151404441e+02 -5.6765842929566352e+04 +3.5299241823680938e+05 +2.9072131777444887e+08 
+8.8999999999999844e+00 -1.0353606736066034e+00 +2.2778894888208820e+00 +2.2285391870558463e+01 +1.4515694462918870e+02 -5.5493388312056733e+04 +3.8828860486263386e+05 +2.8259543706313944e+08 
+8.9999999999999840e+00 -1.0353622763658656e+00 +2.2780423427185332e+00 +2.2254648148642818e+01 +1.3908561242075305e+02 -5.4216429933543943e+04 +4.2469942885053082e+05 +2.7443487751774603e+08 
+9.0999999999999837e+00 -1.0353638782133709e+00 +2.2782081027235641e+00 +2.2224106999230536e+01 +1.3279527229165910e+02 -5.2941737563751907e+04 +4.6196748194589972e+05 +2.6628090098985502e+08 
+9.1999999999999833e+00 -1.0353654802345900e+00 +2.2783852508471969e+00 +2.2193970420988588e+01 +1.2633396274122669e+02 -5.1676079646112856e+04 +4.9983533064896066e+05 +2.5817476428489840e+08 
+9.2999999999999829e+00 -1.0353670835143236e+00 +2.2785722691721721e+00 +2.2164440330711344e+01 +1.1974972341043623e+02 -5.0426223385869911e+04 +5.3804551545021660e+05 +2.5015771963866344e+08 
+9.3999999999999826e+00 -1.0353686891366849e+00 +2.2787676398502286e+00 +2.2135718560456183e+01 +1.1309059525238970e+02 -4.9198934700800179e+04 +5.7634054928261810e+05 +2.4227101450973105e+08 
+9.4999999999999822e+00 -1.0353702981850679e+00 +2.2789698451090556e+00 +2.2108006853397406e+01 +1.0640462042436104e+02 -4.8000978148269089e+04 +6.1446291760096303e+05 +2.3455589126196301e+08 
+9.5999999999999819e+00 -1.0353719117420985e+00 +2.2791773672553117e+00 +2.2081506859296994e+01 +9.9739842270582869e+01 -4.6839116860913222e+04 +6.5215507799984748e+05 +2.2705358693011162e+08 
+9.6999999999999815e+00 -1.0353735308896839e+00 +2.2793886886655725e+00 +2.2056420139547427e+01 +9.3144305691521197e+01 -4.5720112642305532e+04 +6.8915945748408115e+05 +2.1980533368662348e+08 
+9.7999999999999812e+00 -1.0353751567089284e+00 +2.2796022918078309e+00 +2.2032948157434667e+01 +8.6666056596807948e+01 -4.4650725794188002e+04 +7.2521845514525939e+05 +2.1285235806397882e+08 
+9.8999999999999808e+00 -1.0353767902801039e+00 +2.2798166592219560e+00 +2.2011292274504335e+01 +8.0353142566400351e+01 -4.3637715058159716e+04 +7.6007443777653307e+05 +2.0623588072037768e+08 
+9.9999999999999805e+00 -1.0353784326827147e+00 +2.2800302735351550e+00 +2.1991653758782935e+01 +7.4253612492669063e+01 -4.2687837781789378e+04 +7.9346974140525772e+05 +1.9999711727059603e+08 
+1.0099999999999980e+01 -1.0353800849954062e+00 +2.2802416174611277e+00 +2.1974233774044713e+01 +6.8415516697073357e+01 -4.1807849727381028e+04 +8.2514667007199349e+05 +1.9417727742033911e+08 
