# multipoles
# s[mm] polynom_b[n=0][T/m^n] polynom_b[n=1][T/m^n] polynom_b[n=2][T/m^n] polynom_b[n=3][T/m^n] polynom_b[n=4][T/m^n] polynom_b[n=5][T/m^n] polynom_b[n=6][T/m^n] 
+0.0000000000000000e+00 -1.0339477833883122e+00 +2.2912871495993770e+00 +2.7216491861072175e+01 -1.5342015290807285e+02 -1.3647483563146749e+05 +1.1490086889443817e+06 +7.0018681606972671e+08 
-1.0000000000000001e-01 -1.0339449014569555e+00 +2.2912042050744890e+00 +2.7317289998359559e+01 -1.5688706850073436e+02 -1.3909611243147531e+05 +1.1708206700421872e+06 +7.1356179637149787e+08 
-2.0000000000000001e-01 -1.0339418697694731e+00 +2.2911150646792535e+00 +2.7409196841658236e+01 -1.6020756455647219e+02 -1.4157905976494166e+05 +1.1919804213101096e+06 +7.2633279928784621e+08 
-3.0000000000000004e-01 -1.0339386982803864e+00 +2.2910196705503307e+00 +2.7492771369691567e+01 -1.6337733983812672e+02 -1.4393240857470955e+05 +1.2124355413231712e+06 +7.3853997721371329e+08 
-4.0000000000000002e-01 -1.0339353969441281e+00 +2.2909179648774445e+00 +2.7568572550593167e+01 -1.6639209447891619e+02 -1.4616488961249072e+05 +1.2321336364776089e+06 +7.5022348165451181e+08 
-5.0000000000000000e-01 -1.0339319757151011e+00 +2.2908098899155780e+00 +2.7637159349533011e+01 -1.6924753037138117e+02 -1.4828523357707669e+05 +1.2510223232864439e+06 +7.6142346386196482e+08 
-5.9999999999999998e-01 -1.0339284445476300e+00 +2.2906953879683680e+00 +2.7699090721835955e+01 -1.7193935076657692e+02 -1.5030217098129433e+05 +1.2690492261978325e+06 +7.7218007420244849e+08 
-6.9999999999999996e-01 -1.0339248133959535e+00 +2.2905744013900109e+00 +2.7754925612393404e+01 -1.7446326037442606e+02 -1.5222443213465039e+05 +1.2861619782393521e+06 +7.8253346205726206e+08 
-7.9999999999999993e-01 -1.0339210922142172e+00 +2.2904468725802452e+00 +2.7805222953422419e+01 -1.7681496529302245e+02 -1.5406074709239820e+05 +1.3023082207479689e+06 +7.9252377556113994e+08 
-8.9999999999999991e-01 -1.0339172909565431e+00 +2.2903127439799222e+00 +2.7850541673410564e+01 -1.7899017293253570e+02 -1.5581984582171874e+05 +1.3174356029994376e+06 +8.0219116238525152e+08 
-9.9999999999999989e-01 -1.0339134195768747e+00 +2.2901719580631954e+00 +2.7891440677927523e+01 -1.8098459184873639e+02 -1.5751045783444165e+05 +1.3314917813449148e+06 +8.1157576798238850e+08 
-1.0999999999999999e+00 -1.0339094880290960e+00 +2.2900244573432929e+00 +2.7928478862331076e+01 -1.8279393197139663e+02 -1.5914131241476996e+05 +1.3444244206305472e+06 +8.2071773664095354e+08 
-1.2000000000000000e+00 -1.0339055062669904e+00 +2.2898701843587714e+00 +2.7962215108202948e+01 -1.8441390427295420e+02 -1.6072113855413653e+05 +1.3561811923977286e+06 +8.2965721117860317e+08 
-1.3000000000000000e+00 -1.0339014842442169e+00 +2.2897090816720675e+00 +2.7993208278774002e+01 -1.8584022077604786e+02 -1.6225866485169632e+05 +1.3667097749938567e+06 +8.3843433244058836e+08 
-1.4000000000000001e+00 -1.0338974319143286e+00 +2.2895410918710217e+00 +2.8022017221763619e+01 -1.8706859467222151e+02 -1.6376261957156833e+05 +1.3759578543988422e+06 +8.4708923958287597e+08 
-1.5000000000000002e+00 -1.0338933592307451e+00 +2.2893661575556563e+00 +2.8049200764507408e+01 -1.8809473998393014e+02 -1.6524173053218037e+05 +1.3838731223376885e+06 +8.5566206949944901e+08 
-1.6000000000000003e+00 -1.0338892747794821e+00 +2.2891843499064826e+00 +2.8075245061906216e+01 -1.8891747569599647e+02 -1.6670341661195719e+05 +1.3904292600604545e+06 +8.6418630810837412e+08 
-1.7000000000000004e+00 -1.0338851817092134e+00 +2.2889962617547672e+00 +2.8100347749582429e+01 -1.8954868230245916e+02 -1.6814989447116081e+05 +1.3957092238461152e+06 +8.7266880084797180e+08 
-1.8000000000000005e+00 -1.0338810818177619e+00 +2.2888026182328125e+00 +2.8124634923674531e+01 -1.9000367018727763e+02 -1.6958208896443466e+05 +1.3998246736610238e+06 +8.8110972305349433e+08 
-1.9000000000000006e+00 -1.0338769769029519e+00 +2.2886041444567025e+00 +2.8148232676883421e+01 -1.9029774957237345e+02 -1.7100092486484328e+05 +1.4028872693782328e+06 +8.8950924956732929e+08 
-2.0000000000000004e+00 -1.0338728687626015e+00 +2.2884015655303940e+00 +2.8171267098548668e+01 -1.9044623058613132e+02 -1.7240732687480011e+05 +1.4050086709865285e+06 +8.9786755481410408e+08 
-2.1000000000000005e+00 -1.0338687591945719e+00 +2.2881956065361249e+00 +2.8193864279654967e+01 -1.9046442303717456e+02 -1.7380221972004653e+05 +1.4063005374543273e+06 +9.0618481323601067e+08 
-2.2000000000000006e+00 -1.0338646499967683e+00 +2.2879869925288614e+00 +2.8216150313434667e+01 -1.9036763622373712e+02 -1.7518652816388535e+05 +1.4068745255419894e+06 +9.1446119935901034e+08 
-2.3000000000000007e+00 -1.0338605429671095e+00 +2.2877764485270293e+00 +2.8238251290794427e+01 -1.9017117868709065e+02 -1.7656117692241064e+05 +1.4068422884452818e+06 +9.2269688739102554e+08 
-2.4000000000000008e+00 -1.0338564399036356e+00 +2.2875646995153476e+00 +2.8260293314800926e+01 -1.8989035829083039e+02 -1.7792709094508924e+05 +1.4063154762604267e+06 +9.3089205255912709e+08 
-2.5000000000000009e+00 -1.0338523426044421e+00 +2.2873524704339459e+00 +2.8282402490526263e+01 -1.8954048191312688e+02 -1.7928519521781110e+05 +1.4054057342286012e+06 +9.3904687015760636e+08 
-2.6000000000000010e+00 -1.0338482528676620e+00 +2.2871404861714724e+00 +2.8304704923791316e+01 -1.8913685525266317e+02 -1.8063641474344907e+05 +1.4042247016416856e+06 +9.4716151545698857e+08 
-2.7000000000000011e+00 -1.0338441724916416e+00 +2.2869294715668835e+00 +2.8327326743756071e+01 -1.8869478287980493e+02 -1.8198167498244724e+05 +1.4028840121460706e+06 +9.5523616582468474e+08 
-2.8000000000000012e+00 -1.0338401032747326e+00 +2.2867201513903748e+00 +2.8350394074304955e+01 -1.8822956768440727e+02 -1.8332190129266010e+05 +1.4014952905413087e+06 +9.6327099800634778e+08 
-2.9000000000000012e+00 -1.0338360470154673e+00 +2.2865132503585097e+00 +2.8374033057982132e+01 -1.8775651134508186e+02 -1.8465801940270941e+05 +1.4001701556239636e+06 +9.7126619042259789e+08 
-3.0000000000000013e+00 -1.0338320055125174e+00 +2.2863094931054619e+00 +2.8398369850263503e+01 -1.8729091345851137e+02 -1.8599095530066066e+05 +1.3990202150163099e+06 +9.7922192262237859e+08 
-3.1000000000000014e+00 -1.0338279805647017e+00 +2.2861096041974052e+00 +2.8423530619710998e+01 -1.8684807199385321e+02 -1.8732163523650443e+05 +1.3981570679381199e+06 +9.8713837528693390e+08 
-3.2000000000000015e+00 -1.0338239739709998e+00 +2.2859143081120266e+00 +2.8449641549412803e+01 -1.8644328268970310e+02 -1.8865098574937621e+05 +1.3976923016813679e+06 +9.9501573035082090e+08 
-3.3000000000000016e+00 -1.0338199875305545e+00 +2.2857243292451970e+00 +2.8476828838476887e+01 -1.8609183925849879e+02 -1.8997993370901060e+05 +1.3977374928420661e+06 +1.0028541712270987e+09 
-3.4000000000000017e+00 -1.0338160230427453e+00 +2.2855403918949397e+00 +2.8505218709357230e+01 -1.8580903291406966e+02 -1.9130940644473053e+05 +1.3984042045726965e+06 +1.0106538833852607e+09 
-3.5000000000000018e+00 -1.0338120823071315e+00 +2.2853632202620555e+00 +2.8534937401585506e+01 -1.8561015239598495e+02 -1.9264033163460344e+05 +1.3998039862628002e+06 +1.0184150537945269e+09 
-3.6000000000000019e+00 -1.0338081669924932e+00 +2.2851933442298793e+00 +2.8566078544278461e+01 -1.8550606369073444e+02 -1.9397329974729827e+05 +1.4020142426449065e+06 +1.0261367838134180e+09 
-3.7000000000000020e+00 -1.0338042782146886e+00 +2.2850305217423323e+00 +2.8598609521059426e+01 -1.8548921875913351e+02 -1.9530766306303343e+05 +1.4049716408410110e+06 +1.0338149144592310e+09 
-3.8000000000000020e+00 -1.0338004169424220e+00 +2.2848743181723696e+00 +2.8632466977423118e+01 -1.8554724791339169e+02 -1.9664248973179728e+05 +1.4085762219160702e+06 +1.0414447337981650e+09 
-3.9000000000000021e+00 -1.0337965841442918e+00 +2.2847242988742220e+00 +2.8667587541723201e+01 -1.8566778113184702e+02 -1.9797684756567774e+05 +1.4127280263269406e+06 +1.0490215283968035e+09 
-4.0000000000000018e+00 -1.0337927807888396e+00 +2.2845800291922651e+00 +2.8703907832688060e+01 -1.8583844839657147e+02 -1.9930980417728043e+05 +1.4173270964143348e+06 +1.0565405839471550e+09 
-4.1000000000000014e+00 -1.0337890078445131e+00 +2.2844410744586092e+00 +2.8741364452458502e+01 -1.8604687959311661e+02 -2.0064042683310714e+05 +1.4222734757842924e+06 +1.0639971845450286e+09 
-4.2000000000000011e+00 -1.0337852662796838e+00 +2.2843069999942558e+00 +2.8779893990902941e+01 -1.8628070457153669e+02 -2.0196778254911141e+05 +1.4274672098212927e+06 +1.0713866131955163e+09 
-4.3000000000000007e+00 -1.0337815570626050e+00 +2.2841773711113067e+00 +2.8819433019064892e+01 -1.8652755318678371e+02 -2.0329093795639178e+05 +1.4328083459021705e+06 +1.0787041511584301e+09 
-4.4000000000000004e+00 -1.0337778811614551e+00 +2.2840517531152047e+00 +2.8859918095513255e+01 -1.8677505536734350e+02 -2.0460895942594446e+05 +1.4381969338729363e+06 +1.0859450785642190e+09 
-4.5000000000000000e+00 -1.0337742395442877e+00 +2.2839297113018513e+00 +2.8901285759193414e+01 -1.8701084104468839e+02 -2.0592091292576163e+05 +1.4435330257409806e+06 +1.0931046737282429e+09 
-4.5999999999999996e+00 -1.0337706331790124e+00 +2.2838108109636663e+00 +2.8943472527555940e+01 -1.8722254031491127e+02 -2.0722586398996133e+05 +1.4487166766307738e+06 +1.1001782130308998e+09 
-4.6999999999999993e+00 -1.0337670630334257e+00 +2.2836946173916211e+00 +2.8986414900541138e+01 -1.8739778349111933e+02 -2.0852287778978396e+05 +1.4536479451393327e+06 +1.1071609712500093e+09 
-4.7999999999999989e+00 -1.0337635300752119e+00 +2.2835806958656417e+00 +2.9030049360222268e+01 -1.8752420084056152e+02 -2.0981101912643816e+05 +1.4582268919028714e+06 +1.1140482215423152e+09 
-4.8999999999999986e+00 -1.0337600352718952e+00 +2.2834686116729079e+00 +2.9074312365421648e+01 -1.8758942309944521e+02 -2.1108935233134450e+05 +1.4623535826159331e+06 +1.1208352349875963e+09 
-4.9999999999999982e+00 -1.0337565795908445e+00 +2.2833579300925271e+00 +2.9119140351564422e+01 -1.8758108103948814e+02 -2.1235694125453877e+05 +1.4659280856027703e+06 +1.1275172805197506e+09 
-5.0999999999999979e+00 -1.0337531639992690e+00 +2.2832482164073338e+00 +2.9164469730778951e+01 -1.8748680579311585e+02 -2.1361284927354142e+05 +1.4688504737201973e+06 +1.1340896250023448e+09 
-5.1999999999999975e+00 -1.0337497894642147e+00 +2.2831390358997874e+00 +2.9210236890851458e+01 -1.8729422875496931e+02 -2.1485613926420224e+05 +1.4710208239036282e+06 +1.1405475330754967e+09 
-5.2999999999999972e+00 -1.0337464569525798e+00 +2.2830299538610048e+00 +2.9256378198261579e+01 -1.8699098182036235e+02 -2.1608587366943830e+05 +1.4723392185542083e+06 +1.1468862675268817e+09 
-5.3999999999999968e+00 -1.0337431674310387e+00 +2.2829205355769941e+00 +2.9302829987147842e+01 -1.8656469700492946e+02 -2.1730111427382028e+05 +1.4727057434382748e+06 +1.1531010881871731e+09 
-5.4999999999999964e+00 -1.0337399218661174e+00 +2.2828103463519756e+00 +2.9349528570366161e+01 -1.8600300732531929e+02 -2.1850092244788681e+05 +1.4720204946113550e+06 +1.1591872533239868e+09 
-5.5999999999999961e+00 -1.0337367206954509e+00 +2.2826991464194459e+00 +2.9396342725518046e+01 -1.8529967629232095e+02 -2.1968320499545347e+05 +1.4702249392960910e+06 +1.1651355058300233e+09 
-5.6999999999999957e+00 -1.0337335622837180e+00 +2.2825875265434119e+00 +2.9442863412025247e+01 -1.8447358136679219e+02 -2.2084095049801670e+05 +1.4674229210168908e+06 +1.1709163458769584e+09 
-5.7999999999999954e+00 -1.0337304444849167e+00 +2.2824763005435331e+00 +2.9488609537704509e+01 -1.8355014246048751e+02 -2.2196583050364384e+05 +1.4637590077938235e+06 +1.1764946279553785e+09 
-5.8999999999999950e+00 -1.0337273651533263e+00 +2.2823662823675055e+00 +2.9533100043191148e+01 -1.8255478375578159e+02 -2.2304951713316844e+05 +1.4593777918505275e+06 +1.1818352091636899e+09 
-5.9999999999999947e+00 -1.0337243221435959e+00 +2.2822582860934673e+00 +2.9575853914079971e+01 -1.8151293371104782e+02 -2.2408368332417458e+05 +1.4544238895066190e+06 +1.1869029503986046e+09 
-6.0999999999999943e+00 -1.0337213133106891e+00 +2.2821531259343630e+00 +2.9616390174342527e+01 -1.8045002521235199e+02 -2.2506000270486061e+05 +1.4490419420167813e+06 +1.1916627157447674e+09 
-6.1999999999999940e+00 -1.0337183365099505e+00 +2.2820516162425757e+00 +2.9654227894884713e+01 -1.7939149569771033e+02 -2.2597014976285104e+05 +1.4433766161478700e+06 +1.1960793733004181e+09 
-6.2999999999999936e+00 -1.0337153895970876e+00 +2.2819545715100591e+00 +2.9688886190980959e+01 -1.7836278718493242e+02 -2.2680579978286754e+05 +1.4375726042967797e+06 +1.2001177948348496e+09 
-6.3999999999999932e+00 -1.0337124704282061e+00 +2.2818628063859157e+00 +2.9719884227488201e+01 -1.7738934678181587e+02 -2.2755862895947628e+05 +1.4317746273381121e+06 +1.2037428563636672e+09 
-6.4999999999999929e+00 -1.0337095768597993e+00 +2.2817771356757914e+00 +2.9746741216665004e+01 -1.7649662668567225e+02 -2.2822031434415060e+05 +1.4261274345580002e+06 +1.2069194378661888e+09 
-6.5999999999999925e+00 -1.0337067067488102e+00 +2.2816983743454364e+00 +2.9768976427125907e+01 -1.7571008428102530e+02 -2.2878253401971754e+05 +1.4207758040892133e+06 +1.2096124241182382e+09 
-6.6999999999999922e+00 -1.0337038579525681e+00 +2.2816273375316714e+00 +2.9786109174808548e+01 -1.7505518248176301e+02 -2.2923696692381371e+05 +1.4158645448505664e+06 +1.2117867038441272e+09 
-6.7999999999999918e+00 -1.0337010283289094e+00 +2.2815648405426812e+00 +2.9797658839292186e+01 -1.7455738973997671e+02 -2.2957529316448816e+05 +1.4115384964899952e+06 +1.2134071712268636e+09 
-6.8999999999999915e+00 -1.0336982157360750e+00 +2.2815116988685666e+00 +2.9803144850486895e+01 -1.7424218035566307e+02 -2.2978919375895435e+05 +1.4079425310766960e+06 +1.2144387246422346e+09 
-6.9999999999999911e+00 -1.0336954180328370e+00 +2.2814687281874009e+00 +2.9802086704891721e+01 -1.7413503467417470e+02 -2.2987035095150649e+05 +1.4052215541885300e+06 +1.2148462681952531e+09 
-7.0999999999999908e+00 -1.0336926330784075e+00 +2.2814367443676100e+00 +2.9794003953559926e+01 -1.7426143915863344e+02 -2.2981044796995286e+05 +1.4035205052450483e+06 +1.2145947105148139e+09 
-7.1999999999999904e+00 -1.0336898587325567e+00 +2.2814165634754633e+00 +2.9778416218115591e+01 -1.7464688660942701e+02 -2.2960116934442421e+05 +1.4029843586537451e+06 +1.2136489663142374e+09 
-7.2999999999999901e+00 -1.0336870928555530e+00 +2.2814090017801516e+00 +2.9754843182557874e+01 -1.7531687632819856e+02 -2.2923420073985838e+05 +1.4037581247110639e+06 +1.2119739555532944e+09 
-7.3999999999999897e+00 -1.0336843333081931e+00 +2.2814148757605270e+00 +2.9722804596886128e+01 -1.7629691430995513e+02 -2.2870122902700512e+05 +1.4059868505841480e+06 +1.2095346037857225e+09 
-7.4999999999999893e+00 -1.0336815779519151e+00 +2.2814350021268681e+00 +2.9681820295580330e+01 -1.7761251352900163e+02 -2.2799394261081063e+05 +1.4098156216781042e+06 +1.2062958436834178e+09 
-7.5999999999999890e+00 -1.0336788260782872e+00 +2.2814698944455247e+00 +2.9631602400569420e+01 -1.7928009273972870e+02 -2.2710729870985917e+05 +1.4153425466623541e+06 +1.2022365882169120e+09 
-7.6999999999999886e+00 -1.0336760824371685e+00 +2.2815186372253198e+00 +2.9572625797209508e+01 -1.8127642665706952e+02 -2.2604946169677255e+05 +1.4224702619176069e+06 +1.1973924065326030e+09 
-7.7999999999999883e+00 -1.0336733530876372e+00 +2.2815799004786710e+00 +2.9505557173006647e+01 -1.8356745307960662e+02 -2.2483197984275944e+05 +1.4310504099148819e+06 +1.1918134073665309e+09 
-7.8999999999999879e+00 -1.0336706440882959e+00 +2.2816523539567095e+00 +2.9431063169157653e+01 -1.8611910224296199e+02 -2.2346640071739521e+05 +1.4409345937391790e+06 +1.1855496959670472e+09 
-7.9999999999999876e+00 -1.0336679614972515e+00 +2.2817346671723184e+00 +2.9349810372086807e+01 -1.8889729714740602e+02 -2.2196427101981835e+05 +1.4519743743798693e+06 +1.1786513736265471e+09 
-8.0999999999999872e+00 -1.0336653113720600e+00 +2.2818255093835091e+00 +2.9262465308040387e+01 -1.9186795304054982e+02 -2.2033713648727347e+05 +1.4640212676661205e+06 +1.1711685372613776e+09 
-8.1999999999999869e+00 -1.0336626997696978e+00 +2.2819235495838979e+00 +2.9169694439080295e+01 -1.9499697711637464e+02 -2.1859654182097770e+05 +1.4769267425018130e+06 +1.1631512790587113e+09 
-8.2999999999999865e+00 -1.0336601327466208e+00 +2.2820274565022043e+00 +2.9072164171121461e+01 -1.9825026849002191e+02 -2.1675403084677071e+05 +1.4905422207322672e+06 +1.1546496872510722e+09 
-8.3999999999999861e+00 -1.0336576163586393e+00 +2.2821358985812559e+00 +2.8970540838392651e+01 -2.0159371755674607e+02 -2.1482114622731050e+05 +1.5047190733662741e+06 +1.1457138447597766e+09 
-8.4999999999999858e+00 -1.0336551566609913e+00 +2.2822475439786674e+00 +2.8865490713570136e+01 -2.0499320599833450e+02 -2.1280942965877504e+05 +1.5193086206388942e+06 +1.1363938301277707e+09 
-8.5999999999999854e+00 -1.0336527597082563e+00 +2.2823610605541336e+00 +2.8757679996110006e+01 -2.0841460637845142e+02 -2.1073042165488354e+05 +1.5341621295849062e+06 +1.1267397165039363e+09 
-8.6999999999999851e+00 -1.0336504315543822e+00 +2.2824751158596186e+00 +2.8647774817249353e+01 -2.1182378185607035e+02 -2.0859566165193325e+05 +1.5491308124252320e+06 +1.1168015721565106e+09 
-8.7999999999999847e+00 -1.0336481782526012e+00 +2.2825883771351672e+00 +2.8536441228576688e+01 -2.1518658602262872e+02 -2.0641668778997110e+05 +1.5640658255498563e+06 +1.1066294594200571e+09 
-8.8999999999999844e+00 -1.0336460058555090e+00 +2.2826995112902879e+00 +2.8424345213391671e+01 -2.1846886234741135e+02 -2.0420503714369159e+05 +1.5788182662890535e+06 +1.0962734358230610e+09 
-8.9999999999999840e+00 -1.0336439204149439e+00 +2.2828071849053915e+00 +2.8312152670887222e+01 -2.2163644419589926e+02 -2.0197224542072960e+05 +1.5932391730125679e+06 +1.0857835526411748e+09 
-9.0999999999999837e+00 -1.0336419279820428e+00 +2.2829100642196423e+00 +2.8200529424322710e+01 -2.2465515446544893e+02 -1.9972984712791408e+05 +1.6071795230173892e+06 +1.0752098557093041e+09 
-9.1999999999999833e+00 -1.0336400346071350e+00 +2.2830068151174814e+00 +2.8090141207229514e+01 -2.2749080515131644e+02 -1.9748937531139096e+05 +1.6204902299288122e+06 +1.0646023841802135e+09 
-9.2999999999999829e+00 -1.0336382463398677e+00 +2.2830961031253385e+00 +2.7981653680376937e+01 -2.3010919724488627e+02 -1.9526236188953355e+05 +1.6330221431411654e+06 +1.0540111721266353e+09 
-9.3999999999999826e+00 -1.0336365692289990e+00 +2.2831765933985064e+00 +2.7875732405225914e+01 -2.3247612033050032e+02 -1.9306033714947631e+05 +1.6446260454524420e+06 +1.0434862461425623e+09 
-9.4999999999999822e+00 -1.0336350093223829e+00 +2.2832469506494975e+00 +2.7773042835602183e+01 -2.3455734986941010e+02 -1.9089482949668830e+05 +1.6551526294837510e+06 +1.0330776232901994e+09 
-9.5999999999999819e+00 -1.0336335707488791e+00 +2.2833061011954756e+00 +2.7674095250444442e+01 -2.3632495743940416e+02 -1.8877482655373626e+05 +1.6644748146766722e+06 +1.0228240101228108e+09 
-9.6999999999999815e+00 -1.0336322503065190e+00 +2.2833541409881701e+00 +2.7578795344870539e+01 -2.3777909397299388e+02 -1.8669935275557893e+05 +1.6725693120613697e+06 +1.0127208838207290e+09 
-9.7999999999999812e+00 -1.0336310430312241e+00 +2.2833914888803459e+00 +2.7486898635959250e+01 -2.3892756929399746e+02 -1.8466492844810584e+05 +1.6794406961759531e+06 +1.0027531207900527e+09 
-9.8999999999999808e+00 -1.0336299439589929e+00 +2.2834185638365430e+00 +2.7398160636645379e+01 -2.3977819541786491e+02 -1.8266807380456635e+05 +1.6850935462702082e+06 +9.9290559753486443e+08 
-9.9999999999999805e+00 -1.0336289481259677e+00 +2.2834357849459010e+00 +2.7312336867239331e+01 -2.4033878765704722e+02 -1.8070530901409365e+05 +1.6895324632775891e+06 +9.8316319066924763e+08 
-1.0099999999999980e+01 -1.0336280505683215e+00 +2.2834435714288301e+00 +2.7229182841660393e+01 -2.4061716478196601e+02 -1.7877315401849942e+05 +1.6927620707445070e+06 +9.7351077567363346e+08 
