# field on trajectory
# s[mm] rx[mm] ry[mm] rz[mm] bx[T] by[T] bz[T]
0.0000000000000000e+00 +9.0449999999999999e+00 +0.0000000000000000e+00 +0.0000000000000000e+00 -1.2138394815232316e-15 -1.0302299910803274e+00 -2.1938877598762680e-14
1.0000000000000001e-01 +9.0449994852413500e+00 +0.0000000000000000e+00 +9.9999999998233488e-02 -1.1878908853412526e-15 -1.0302299922517211e+00 -2.1485403945137920e-14
2.0000000000000001e-01 +9.0449979409653967e+00 +0.0000000000000000e+00 +1.9999999998586793e-01 -1.1161784729897280e-15 -1.0302299957718588e+00 -2.0225242767848807e-14
3.0000000000000004e-01 +9.0449953671721381e+00 +0.0000000000000000e+00 +2.9999999995230420e-01 -1.0079057034735565e-15 -1.0302300016496715e+00 -1.8315833681579252e-14
4.0000000000000002e-01 +9.0449917638615691e+00 +0.0000000000000000e+00 +3.9999999988694335e-01 -8.7227909896422988e-16 -1.0302300098940924e+00 -1.5914668078107337e-14
5.0000000000000000e-01 +9.0449871310336807e+00 +0.0000000000000000e+00 +4.9999999977918624e-01 -7.1850641593326117e-16 -1.0302300205140520e+00 -1.3179258164962953e-14
5.9999999999999998e-01 +9.0449814686884622e+00 +0.0000000000000000e+00 +5.9999999961843387e-01 -5.5579481625665712e-16 -1.0302300335184833e+00 -1.0267106003217346e-14
6.9999999999999996e-01 +9.0449747768259030e+00 +0.0000000000000000e+00 +6.9999999939408708e-01 -3.9334903821413788e-16 -1.0302300489163163e+00 -7.3356725420916914e-15
7.9999999999999993e-01 +9.0449670554459871e+00 +0.0000000000000000e+00 +7.9999999909554687e-01 -2.4036956730669099e-16 -1.0302300667164808e+00 -4.5423466480782622e-15
8.9999999999999991e-01 +9.0449583045486985e+00 +0.0000000000000000e+00 +8.9999999871221426e-01 -1.0605080681630010e-16 -1.0302300869279060e+00 -2.0444141262667734e-15
9.9999999999999989e-01 +9.0449485241340160e+00 +0.0000000000000000e+00 +9.9999999823349006e-01 +4.2075196863368665e-19 -1.0302301095595205e+00 +9.7326843581262109e-19
1.0999999999999999e+00 +9.0449377142019198e+00 +0.0000000000000000e+00 +1.0999999976487753e+00 +7.2245632544315951e-17 -1.0302301346142717e+00 +1.4758452353279306e-15
1.2000000000000000e+00 +9.0449258747523853e+00 +0.0000000000000000e+00 +1.1999999969474708e+00 +1.1214084230258120e-16 -1.0302301620711931e+00 +2.4184222790788293e-15
1.3000000000000000e+00 +9.0449130057853875e+00 +0.0000000000000000e+00 +1.2999999961189777e+00 +1.2520134346674416e-16 -1.0302301919033396e+00 +2.9059526631295186e-15
1.4000000000000001e+00 +9.0448991073008962e+00 +0.0000000000000000e+00 +1.3999999951526967e+00 +1.1652097545194356e-16 -1.0302302240837704e+00 +3.0156653591551457e-15
1.5000000000000002e+00 +9.0448841792988830e+00 +0.0000000000000000e+00 +1.4999999940380289e+00 +9.1191558533005713e-17 -1.0302302585855454e+00 +2.8247548058795648e-15
1.6000000000000003e+00 +9.0448682217793124e+00 +0.0000000000000000e+00 +1.5999999927643751e+00 +5.4301997310656311e-17 -1.0302302953817293e+00 +2.4103656618306895e-15
1.7000000000000004e+00 +9.0448512347421506e+00 +0.0000000000000000e+00 +1.6999999913211363e+00 +1.0937383938439193e-17 -1.0302303344453903e+00 +1.8495775509027929e-15
1.8000000000000005e+00 +9.0448332181873603e+00 +0.0000000000000000e+00 +1.7999999896977135e+00 -3.3821898927496400e-17 -1.0302303757496001e+00 +1.2193897995869028e-15
1.9000000000000006e+00 +9.0448141721149025e+00 +0.0000000000000000e+00 +1.8999999878835074e+00 -7.4901075493411848e-17 -1.0302304192674356e+00 +5.9670616473412063e-16
2.0000000000000004e+00 +9.0447940965247362e+00 +0.0000000000000000e+00 +1.9999999858679192e+00 -1.0723187454557701e-16 -1.0302304649719811e+00 +5.8319550713633254e-17
2.1000000000000005e+00 +9.0447729914168153e+00 +0.0000000000000000e+00 +2.0999999836403496e+00 -1.2691691720629963e-16 -1.0302305128562332e+00 -3.3527245396017269e-16
2.2000000000000006e+00 +9.0447508567910972e+00 +0.0000000000000000e+00 +2.1999999811901998e+00 -1.3471783961710333e-16 -1.0302305629928372e+00 -5.8833494866713384e-16
2.3000000000000007e+00 +9.0447276926475322e+00 +0.0000000000000000e+00 +2.2999999785068703e+00 -1.3255952947530259e-16 -1.0302306154743448e+00 -7.2129771302174612e-16
2.4000000000000008e+00 +9.0447034989860704e+00 +0.0000000000000000e+00 +2.3999999755797625e+00 -1.2236564476937464e-16 -1.0302306703933053e+00 -7.5456903710248493e-16
2.5000000000000009e+00 +9.0446782758066604e+00 +0.0000000000000000e+00 +2.4999999723982769e+00 -1.0605837801483138e-16 -1.0302307278422629e+00 -7.0853162813638070e-16
2.6000000000000010e+00 +9.0446520231092471e+00 +0.0000000000000000e+00 +2.5999999689518147e+00 -8.5558220375907818e-17 -1.0302307879137591e+00 -6.0353851381965840e-16
2.7000000000000011e+00 +9.0446247408937737e+00 +0.0000000000000000e+00 +2.6999999652297766e+00 -6.2783725662757362e-17 -1.0302308507003293e+00 -4.5990894196973550e-16
2.8000000000000012e+00 +9.0445964291601797e+00 +0.0000000000000000e+00 +2.7999999612215634e+00 -3.9651274193815918e-17 -1.0302309162945040e+00 -2.9792427620322675e-16
2.9000000000000012e+00 +9.0445670879084030e+00 +0.0000000000000000e+00 +2.8999999569165764e+00 -1.8074836513019915e-17 -1.0302309847888067e+00 -1.3782388733498667e-16
3.0000000000000013e+00 +9.0445367171383779e+00 +0.0000000000000000e+00 +2.9999999523042162e+00 +3.4263048464296629e-20 -1.0302310562757557e+00 +1.9895980743454835e-19
3.1000000000000014e+00 +9.0445053168500351e+00 +0.0000000000000000e+00 +3.0999999473738837e+00 +1.3198109982515062e-17 -1.0302311307776419e+00 +1.0026627473995855e-16
3.2000000000000015e+00 +9.0444728870433053e+00 +0.0000000000000000e+00 +3.1999999421149803e+00 +2.1662780794794500e-17 -1.0302312080358753e+00 +1.6359284657154209e-16
3.3000000000000016e+00 +9.0444394277181139e+00 +0.0000000000000000e+00 +3.2999999365169064e+00 +2.6104695996688490e-17 -1.0302312877216282e+00 +1.9565471925516811e-16
3.4000000000000017e+00 +9.0444049388743846e+00 +0.0000000000000000e+00 +3.3999999305690629e+00 +2.7199737623075759e-17 -1.0302313695060545e+00 +2.0191784574683469e-16
3.5000000000000018e+00 +9.0443694205120408e+00 +0.0000000000000000e+00 +3.4999999242608508e+00 +2.5623189902911159e-17 -1.0302314530602872e+00 +1.8783699056528504e-16
3.6000000000000019e+00 +9.0443328726310011e+00 +0.0000000000000000e+00 +3.5999999175816710e+00 +2.2049679881120339e-17 -1.0302315380554361e+00 +1.5885463098068184e-16
3.7000000000000020e+00 +9.0442952952311852e+00 +0.0000000000000000e+00 +3.6999999105209245e+00 +1.7153117988909548e-17 -1.0302316241625884e+00 +1.2039985675021707e-16
3.8000000000000020e+00 +9.0442566883125117e+00 +0.0000000000000000e+00 +3.7999999030680116e+00 +1.1606638559581771e-17 -1.0302317110528052e+00 +7.7887268318430450e-17
3.9000000000000021e+00 +9.0442170518748970e+00 +0.0000000000000000e+00 +3.8999998952123338e+00 +6.0825402869581263e-18 -1.0302317983971234e+00 +3.6715873400160944e-17
4.0000000000000018e+00 +9.0441763859182576e+00 +0.0000000000000000e+00 +3.9999998869432916e+00 +1.2522266235007056e-18 -1.0302318858665502e+00 +2.2679818638791817e-18
4.1000000000000014e+00 +9.0441346904425117e+00 +0.0000000000000000e+00 +4.0999998782502862e+00 -2.3533845747869817e-18 -1.0302319732739309e+00 -2.1299831963212801e-17
4.2000000000000011e+00 +9.0440919654475760e+00 +0.0000000000000000e+00 +4.1999998691227178e+00 -4.7621204789139879e-18 -1.0302320609995557e+00 -3.4673995602733686e-17
4.3000000000000007e+00 +9.0440482109333669e+00 +0.0000000000000000e+00 +4.2999998595499882e+00 -6.1412977554781411e-18 -1.0302321495656026e+00 -3.9747228677129601e-17
4.4000000000000004e+00 +9.0440034268998009e+00 +0.0000000000000000e+00 +4.3999998495214978e+00 -6.6580838878744873e-18 -1.0302322394942769e+00 -3.8408472091241722e-17
4.5000000000000000e+00 +9.0439576133467927e+00 +0.0000000000000000e+00 +4.4999998390266471e+00 -6.4794850896282056e-18 -1.0302323313078132e+00 -3.2542598606102787e-17
4.5999999999999996e+00 +9.0439107702742554e+00 +0.0000000000000000e+00 +4.5999998280548375e+00 -5.7723341977690337e-18 -1.0302324255284765e+00 -2.4030122914267789e-17
4.6999999999999993e+00 +9.0438628976820983e+00 +0.0000000000000000e+00 +4.6999998165954695e+00 -4.7032785453624764e-18 -1.0302325226785667e+00 -1.4746911194375594e-17
4.7999999999999989e+00 +9.0438139955702308e+00 +0.0000000000000000e+00 +4.7999998046379444e+00 -3.4387678123127593e-18 -1.0302326232804171e+00 -6.5638901226330049e-18
4.8999999999999986e+00 +9.0437640639385570e+00 +0.0000000000000000e+00 +4.8999997921716627e+00 -2.1450418535511134e-18 -1.0302327278564003e+00 -1.3467553188775227e-18
4.9999999999999982e+00 +9.0437131027869793e+00 +0.0000000000000000e+00 +4.9999997791860258e+00 -9.8811850372357021e-19 -1.0302328369289278e+00 -9.5567920487823490e-19
5.0999999999999979e+00 +9.0436611121153927e+00 +0.0000000000000000e+00 +5.0999997656704332e+00 -9.9692392508273324e-20 -1.0302329508717669e+00 -6.6892163204498286e-18
5.1999999999999975e+00 +9.0436080919236890e+00 +0.0000000000000000e+00 +5.1999997516142873e+00 +5.2506440482223774e-19 -1.0302330694639994e+00 -1.7619050938501994e-17
5.2999999999999972e+00 +9.0435540422117544e+00 +0.0000000000000000e+00 +5.2999997370069876e+00 +9.2510064772250385e-19 -1.0302331923360815e+00 -3.2261588508576192e-17
5.3999999999999968e+00 +9.0434989629794735e+00 +0.0000000000000000e+00 +5.3999997218379354e+00 +1.1393771565445811e-18 -1.0302333191185353e+00 -4.9134433651069145e-17
5.4999999999999964e+00 +9.0434428542267238e+00 +0.0000000000000000e+00 +5.4999997060965322e+00 +1.2068670177905643e-18 -1.0302334494419534e+00 -6.6756461905691492e-17
5.5999999999999961e+00 +9.0433857159533826e+00 +0.0000000000000000e+00 +5.5999996897721775e+00 +1.1665557799542889e-18 -1.0302335829369993e+00 -8.3647891657600262e-17
5.6999999999999957e+00 +9.0433275481593220e+00 +0.0000000000000000e+00 +5.6999996728542728e+00 +1.0574416396196421e-18 -1.0302337192344122e+00 -9.8330356247558485e-17
5.7999999999999954e+00 +9.0432683508444107e+00 +0.0000000000000000e+00 +5.7999996553322193e+00 +9.1853561748269339e-19 -1.0302338579650074e+00 -1.0932697627245613e-16
5.8999999999999950e+00 +9.0432081240085189e+00 +0.0000000000000000e+00 +5.8999996371954175e+00 +7.8886172396457931e-19 -1.0302339987596829e+00 -1.1516243208254949e-16
5.9999999999999947e+00 +9.0431468676515099e+00 +0.0000000000000000e+00 +5.9999996184332680e+00 +7.0745711408118220e-19 -1.0302341412494169e+00 -1.1436303648177788e-16
6.0999999999999943e+00 +9.0430845817732486e+00 +0.0000000000000000e+00 +6.0999995990351712e+00 +7.0832951573928909e-19 -1.0302342851630326e+00 -1.0595109426873473e-16
6.1999999999999940e+00 +9.0430212663735983e+00 +0.0000000000000000e+00 +6.1999995789905284e+00 +8.0530634178620993e-19 -1.0302344306203790e+00 -9.0927151514359332e-17
6.2999999999999936e+00 +9.0429569214524204e+00 +0.0000000000000000e+00 +6.2999995582887403e+00 +1.0071222834438549e-18 -1.0302345778389137e+00 -7.0785921400410785e-17
6.3999999999999932e+00 +9.0428915470095745e+00 +0.0000000000000000e+00 +6.3999995369192071e+00 +1.3224541413557553e-18 -1.0302347270359171e+00 -4.7021798362638050e-17
6.4999999999999929e+00 +9.0428251430449187e+00 +0.0000000000000000e+00 +6.4999995148713303e+00 +1.7599183615527552e-18 -1.0302348784284834e+00 -2.1128842262384165e-17
6.5999999999999925e+00 +9.0427577095583072e+00 +0.0000000000000000e+00 +6.5999994921345104e+00 +2.3280685764579019e-18 -1.0302350322335136e+00 +5.3992375095565883e-18
6.6999999999999922e+00 +9.0426892465495960e+00 +0.0000000000000000e+00 +6.6999994686981479e+00 +3.0353931510803949e-18 -1.0302351886677077e+00 +3.1069097998843978e-17
6.7999999999999918e+00 +9.0426197540186344e+00 +0.0000000000000000e+00 +6.7999994445516441e+00 +3.8903127345486088e-18 -1.0302353479475568e+00 +5.4387778725275300e-17
6.8999999999999915e+00 +9.0425492319652694e+00 +0.0000000000000000e+00 +6.8999994196843994e+00 +4.9011778171324238e-18 -1.0302355102893368e+00 +7.3862717794266168e-17
6.9999999999999911e+00 +9.0424776803893483e+00 +0.0000000000000000e+00 +6.9999993940858145e+00 +6.0762662929053431e-18 -1.0302356759090985e+00 +8.8001768084150036e-17
7.0999999999999908e+00 +9.0424050992907130e+00 +0.0000000000000000e+00 +7.0999993677452897e+00 +7.3951406467869797e-18 -1.0302358449193798e+00 +9.5704906592921976e-17
7.1999999999999904e+00 +9.0423314886692019e+00 +0.0000000000000000e+00 +7.1999993406522265e+00 +8.7227629444808668e-18 -1.0302360170194564e+00 +9.7439170710974241e-17
7.2999999999999901e+00 +9.0422568485246497e+00 +0.0000000000000000e+00 +7.2999993127960252e+00 +9.8954876070452310e-18 -1.0302361918053995e+00 +9.4063243093373976e-17
7.3999999999999897e+00 +9.0421811788568913e+00 +0.0000000000000000e+00 +7.3999992841660864e+00 +1.0749714554829137e-17 -1.0302363688733940e+00 +8.6435693954470458e-17
7.4999999999999893e+00 +9.0421044796657561e+00 +0.0000000000000000e+00 +7.4999992547518106e+00 +1.1121890977338250e-17 -1.0302365478197468e+00 +7.5414976572504980e-17
7.5999999999999890e+00 +9.0420267509510754e+00 +0.0000000000000000e+00 +7.5999992245425991e+00 +1.0848513102962406e-17 -1.0302367282408862e+00 +6.1859422774718704e-17
7.6999999999999886e+00 +9.0419479927126769e+00 +0.0000000000000000e+00 +7.6999991935278524e+00 +9.7661279685563427e-18 -1.0302369097333723e+00 +4.6627238402448004e-17
7.7999999999999883e+00 +9.0418682049503865e+00 +0.0000000000000000e+00 +7.7999991616969711e+00 +7.7113351888638130e-18 -1.0302370918938977e+00 +3.0576498755695943e-17
7.8999999999999879e+00 +9.0417873876640300e+00 +0.0000000000000000e+00 +7.8999991290393554e+00 +4.5207887257760464e-18 -1.0302372743192956e+00 +1.4565144016668039e-17
7.9999999999999876e+00 +9.0417055408534353e+00 +0.0000000000000000e+00 +7.9999990955444060e+00 +3.1198657414887738e-20 -1.0302374566065418e+00 -5.4902534823986957e-19
8.0999999999999872e+00 +9.0416226645184281e+00 +0.0000000000000000e+00 +8.0999990612015242e+00 -5.8269268484390633e-18 -1.0302376385222414e+00 -1.4053092167952615e-17
8.1999999999999869e+00 +9.0415387586588363e+00 +0.0000000000000000e+00 +8.1999990260001105e+00 -1.2748075184576293e-17 -1.0302378205110811e+00 -2.5813182573480940e-17
8.2999999999999865e+00 +9.0414538232744857e+00 +0.0000000000000000e+00 +8.2999989899295645e+00 -2.0333000220462894e-17 -1.0302380031873646e+00 -3.5840107484817884e-17
8.3999999999999861e+00 +9.0413678583652040e+00 +0.0000000000000000e+00 +8.3999989529792884e+00 -2.8182474748188654e-17 -1.0302381871655284e+00 -4.4144594198771185e-17
8.4999999999999858e+00 +9.0412808639308153e+00 +0.0000000000000000e+00 +8.4999989151386810e+00 -3.5897291215373514e-17 -1.0302383730601423e+00 -5.0737283738215190e-17
8.5999999999999854e+00 +9.0411928399711439e+00 +0.0000000000000000e+00 +8.5999988763971444e+00 -4.3078262464406436e-17 -1.0302385614859151e+00 -5.5628728208341452e-17
8.6999999999999851e+00 +9.0411037864860102e+00 +0.0000000000000000e+00 +8.6999988367440793e+00 -4.9326222478150828e-17 -1.0302387530576960e+00 -5.8829388160053747e-17
8.7999999999999847e+00 +9.0410137034752331e+00 +0.0000000000000000e+00 +8.7999987961688859e+00 -5.4242027132252835e-17 -1.0302389483904784e+00 -6.0349629960656748e-17
8.8999999999999844e+00 +9.0409225909386262e+00 +0.0000000000000000e+00 +8.8999987546609649e+00 -5.7426554954188106e-17 -1.0302391480994053e+00 -6.0199723171985527e-17
8.9999999999999840e+00 +9.0408304488759992e+00 +0.0000000000000000e+00 +8.9999987122097149e+00 -5.8480707889182382e-17 -1.0302393527997711e+00 -5.8389837936124737e-17
9.0999999999999837e+00 +9.0407372772871568e+00 +0.0000000000000000e+00 +9.0999986688045382e+00 -5.7140814118432301e-17 -1.0302395628959082e+00 -5.4978746555986301e-17
9.1999999999999833e+00 +9.0406430761719001e+00 +0.0000000000000000e+00 +9.1999986244348371e+00 -5.3684842602286695e-17 -1.0302397779476420e+00 -5.0219993883865166e-17
9.2999999999999829e+00 +9.0405478455300230e+00 +0.0000000000000000e+00 +9.2999985790900102e+00 -4.8526163402983986e-17 -1.0302399973033463e+00 -4.4415872798839770e-17
9.3999999999999826e+00 +9.0404515853613177e+00 +0.0000000000000000e+00 +9.3999985327594580e+00 -4.2078131381946245e-17 -1.0302402203110257e+00 -3.7868730724264716e-17
9.4999999999999822e+00 +9.0403542956655709e+00 +0.0000000000000000e+00 +9.4999984854325810e+00 -3.4754085655943730e-17 -1.0302404463183030e+00 -3.0880971061212458e-17
9.5999999999999819e+00 +9.0402559764425678e+00 +0.0000000000000000e+00 +9.5999984370987796e+00 -2.6967349045185465e-17 -1.0302406746724109e+00 -2.3755054610168914e-17
9.6999999999999815e+00 +9.0401566276920899e+00 +0.0000000000000000e+00 +9.6999983877474545e+00 -1.9131227513176365e-17 -1.0302409047201788e+00 -1.6793500980749055e-17
9.7999999999999812e+00 +9.0400562494139187e+00 +0.0000000000000000e+00 +9.7999983373680060e+00 -1.1659009598180611e-17 -1.0302411358080283e+00 -1.0298889989198317e-17
9.8999999999999808e+00 +9.0399548416078339e+00 +0.0000000000000000e+00 +9.8999982859498363e+00 -4.9639658361302088e-18 -1.0302413672819570e+00 -4.5738630434445626e-18
9.9999999999999805e+00 +9.0398524042736135e+00 +0.0000000000000000e+00 +9.9999982334823443e+00 +5.4065182518100980e-19 -1.0302415984875328e+00 +7.8875484533740790e-20
1.0099999999999980e+01 +9.0397489374110389e+00 +0.0000000000000000e+00 +1.0099998179954930e+01 +4.5424022306782864e-18 -1.0302418289887596e+00 +3.4350767817500361e-18
1.0199999999999980e+01 +9.0396444410198900e+00 +0.0000000000000000e+00 +1.0199998125356995e+01 +7.1320450303555878e-18 -1.0302420592250627e+00 +5.5845687637556540e-18
1.0299999999999979e+01 +9.0395389150999481e+00 +0.0000000000000000e+00 +1.0299998069677939e+01 +8.5011435593320203e-18 -1.0302422898551709e+00 +6.6957690477334202e-18
1.0399999999999979e+01 +9.0394323596509931e+00 +0.0000000000000000e+00 +1.0399998012907162e+01 +8.8412607408436433e-18 -1.0302425215383009e+00 +6.9371698927653196e-18
1.0499999999999979e+01 +9.0393247746728065e+00 +0.0000000000000000e+00 +1.0499997955034065e+01 +8.3439589364558886e-18 -1.0302427549341708e+00 +6.4773399363732280e-18
1.0599999999999978e+01 +9.0392161601651644e+00 +0.0000000000000000e+00 +1.0599997896048050e+01 +7.2007997902871041e-18 -1.0302429907030162e+00 +5.4849259242518422e-18
1.0699999999999978e+01 +9.0391065161278430e+00 +0.0000000000000000e+00 +1.0699997835938516e+01 +5.6033440671354274e-18 -1.0302432295055961e+00 +4.1286544330700665e-18
1.0799999999999978e+01 +9.0389958425606167e+00 +0.0000000000000000e+00 +1.0799997774694864e+01 +3.7431514843999421e-18 -1.0302434720032096e+00 +2.5773335862163166e-18
1.0899999999999977e+01 +9.0388841394632529e+00 +0.0000000000000000e+00 +1.0899997712306494e+01 +1.8117805376877602e-18 -1.0302437188577067e+00 +9.9985476236350315e-19
1.0999999999999977e+01 +9.0387714068355187e+00 +0.0000000000000000e+00 +1.0999997648762806e+01 +7.8831999813540086e-22 -1.0302439707314994e+00 -4.3480570327112302e-19
1.1099999999999977e+01 +9.0386576446771727e+00 +0.0000000000000000e+00 +1.1099997584053201e+01 -1.5300591758652851e-18 -1.0302442280679371e+00 -1.5905141334842264e-18
1.1199999999999976e+01 +9.0385428529879714e+00 +0.0000000000000000e+00 +1.1199997518167077e+01 -2.7481685923141195e-18 -1.0302444904319503e+00 -2.4628511162254562e-18
1.1299999999999976e+01 +9.0384270317676627e+00 +0.0000000000000000e+00 +1.1299997451093837e+01 -3.6527531069878876e-18 -1.0302447571683317e+00 -3.0804525662297644e-18
1.1399999999999975e+01 +9.0383101810159943e+00 +0.0000000000000000e+00 +1.1399997382822882e+01 -4.2430395832753300e-18 -1.0302450276213011e+00 -3.4720976942835032e-18
1.1499999999999975e+01 +9.0381923007327067e+00 +0.0000000000000000e+00 +1.1499997313343609e+01 -4.5182687475897953e-18 -1.0302453011344888e+00 -3.6667121429122227e-18
1.1599999999999975e+01 +9.0380733909175408e+00 +0.0000000000000000e+00 +1.1599997242645422e+01 -4.4776953585456929e-18 -1.0302455770509251e+00 -3.6933711137344280e-18
1.1699999999999974e+01 +9.0379534515702318e+00 +0.0000000000000000e+00 +1.1699997170717719e+01 -4.1205883679033591e-18 -1.0302458547130273e+00 -3.5813024863432183e-18
1.1799999999999974e+01 +9.0378324826905168e+00 +0.0000000000000000e+00 +1.1799997097549902e+01 -3.4462310731499402e-18 -1.0302461334625859e+00 -3.3598899285793405e-18
