# field on trajectory
# s[mm] rx[mm] ry[mm] rz[mm] bx[T] by[T] bz[T]
0.0000000000000000e+00 +9.0449999999999999e+00 +0.0000000000000000e+00 +0.0000000000000000e+00 -2.9673330550332144e-21 -1.0296001887736979e+00 -4.8466013859195306e-10
1.0000000000000001e-01 +9.0449994855560316e+00 +0.0000000000000000e+00 +9.9999999998235667e-02 -2.3858387824127722e-19 -1.0296002042503420e+00 -4.7459100563534693e-10
2.0000000000000001e-01 +9.0449979422241107e+00 +0.0000000000000000e+00 +1.9999999998588519e-01 -8.4369585369875353e-19 -1.0296002476294737e+00 -4.4670368708915852e-10
3.0000000000000004e-01 +9.0449953700041945e+00 +0.0000000000000000e+00 +2.9999999995236254e-01 -1.6656952586101885e-18 -1.0296003143351724e+00 -4.0447965870265698e-10
4.0000000000000002e-01 +9.0449917688962174e+00 +0.0000000000000000e+00 +3.9999999988708157e-01 -2.5519721748074079e-18 -1.0296003997917740e+00 -3.5140161803401841e-10
5.0000000000000000e-01 +9.0449871389000958e+00 +0.0000000000000000e+00 +4.9999999977945619e-01 -3.3499148878824950e-18 -1.0296004994237296e+00 -2.9095275381165520e-10
5.9999999999999998e-01 +9.0449814800157302e+00 +0.0000000000000000e+00 +5.9999999961890027e-01 -3.9069100083343194e-18 -1.0296006086554532e+00 -2.2661601528395363e-10
6.9999999999999996e-01 +9.0449747922430124e+00 +0.0000000000000000e+00 +6.9999999939482760e-01 -4.0703425927580538e-18 -1.0296007229111821e+00 -1.6187338152710682e-10
7.9999999999999993e-01 +9.0449670755818286e+00 +0.0000000000000000e+00 +7.9999999909665220e-01 -3.6875962650851647e-18 -1.0296008376148276e+00 -1.0020513068052436e-10
8.9999999999999991e-01 +9.0449583300320651e+00 +0.0000000000000000e+00 +8.9999999871378789e-01 -2.6060533378814441e-18 -1.0296009481898298e+00 -4.5089109079417332e-11
9.9999999999999989e-01 +9.0449485555936135e+00 +0.0000000000000000e+00 +9.9999999823564856e-01 -6.7309493371058268e-19 -1.0296010500590129e+00 -2.5420163598861742e-19
1.0999999999999999e+00 +9.0449377522663745e+00 +0.0000000000000000e+00 +1.0999999976516481e+00 +2.1644613665759247e-18 -1.0296011397155362e+00 +3.2455235895703465e-11
1.2000000000000000e+00 +9.0449259200502574e+00 +0.0000000000000000e+00 +1.1999999969512003e+00 +5.5620445197976593e-18 -1.0296012179363274e+00 +5.3127911501426125e-11
1.3000000000000000e+00 +9.0449130589451876e+00 +0.0000000000000000e+00 +1.2999999961237190e+00 +9.0756337423721416e-18 -1.0296012865692281e+00 +6.3733435982715443e-11
1.4000000000000001e+00 +9.0448991689510958e+00 +0.0000000000000000e+00 +1.3999999951586182e+00 +1.2261192204603379e-17 -1.0296013474619952e+00 +6.5986763321167577e-11
1.5000000000000002e+00 +9.0448842500679216e+00 +0.0000000000000000e+00 +1.4999999940453117e+00 +1.4674664118769246e-17 -1.0296014024623414e+00 +6.1602032505459334e-11
1.6000000000000003e+00 +9.0448683022956136e+00 +0.0000000000000000e+00 +1.5999999927732134e+00 +1.5871971827802041e-17 -1.0296014534179765e+00 +5.2292207896771320e-11
1.7000000000000004e+00 +9.0448513256341219e+00 +0.0000000000000000e+00 +1.6999999913317372e+00 +1.5409012894635214e-17 -1.0296015021766469e+00 +3.9768719499443614e-11
1.8000000000000005e+00 +9.0448333200833986e+00 +0.0000000000000000e+00 +1.7999999897102967e+00 +1.2841657192289722e-17 -1.0296015505861755e+00 +2.5741103121950827e-11
1.9000000000000006e+00 +9.0448142856433975e+00 +0.0000000000000000e+00 +1.8999999878983060e+00 +7.7257439947730559e-18 -1.0296016004945039e+00 +1.1916640413220342e-11
2.0000000000000004e+00 +9.0447942223140707e+00 +0.0000000000000000e+00 +1.9999999858851789e+00 -3.8292093113535518e-19 -1.0296016537497303e+00 -1.2406579155952593e-18
2.1000000000000005e+00 +9.0447731300953667e+00 +0.0000000000000000e+00 +2.0999999836603291e+00 -1.1694817994074349e-17 -1.0296017113817888e+00 -8.6670742323394598e-12
2.2000000000000006e+00 +9.0447510089872321e+00 +0.0000000000000000e+00 +2.1999999812131708e+00 -2.5485438013235719e-17 -1.0296017711473677e+00 -1.4184639666054354e-11
2.3000000000000007e+00 +9.0447278589896083e+00 +0.0000000000000000e+00 +2.2999999785331178e+00 -4.0796483491225129e-17 -1.0296018299849670e+00 -1.7012597394341149e-11
2.4000000000000008e+00 +9.0447036801024385e+00 +0.0000000000000000e+00 +2.3999999756095836e+00 -5.6669605945244471e-17 -1.0296018848332769e+00 -1.7610339893348214e-11
2.5000000000000009e+00 +9.0446784723256712e+00 +0.0000000000000000e+00 +2.4999999724319824e+00 -7.2146399212656647e-17 -1.0296019326312082e+00 -1.6436655781724900e-11
2.6000000000000010e+00 +9.0446522356592620e+00 +0.0000000000000000e+00 +2.5999999689897280e+00 -8.6268392758846205e-17 -1.0296019703179196e+00 -1.3949633295227338e-11
2.7000000000000011e+00 +9.0446249701031753e+00 +0.0000000000000000e+00 +2.6999999652722342e+00 -9.8077044987554953e-17 -1.0296019948328439e+00 -1.0606563713027004e-11
2.8000000000000012e+00 +9.0445966756573917e+00 +0.0000000000000000e+00 +2.7999999612689148e+00 -1.0661373655387039e-16 -1.0296020031157165e+00 -6.8638447317125608e-12
2.9000000000000012e+00 +9.0445673523219039e+00 +0.0000000000000000e+00 +2.8999999569691837e+00 -1.1091976368004649e-16 -1.0296019921066026e+00 -3.1768837829690902e-12
3.0000000000000013e+00 +9.0445370000967280e+00 +0.0000000000000000e+00 +2.9999999523624545e+00 -1.1003633147433407e-16 -1.0296019587459244e+00 -1.2909300124106269e-18
3.1000000000000014e+00 +9.0445056189818995e+00 +0.0000000000000000e+00 +3.0999999474381417e+00 -1.0335293452056564e-16 -1.0296019019893612e+00 +2.3095829027402236e-12
3.2000000000000015e+00 +9.0444732089774789e+00 +0.0000000000000000e+00 +3.1999999421856584e+00 -9.1652568912034546e-17 -1.0296018288524378e+00 +3.7790832851178030e-12
3.3000000000000016e+00 +9.0444397700835406e+00 +0.0000000000000000e+00 +3.2999999365944190e+00 -7.6066664748144957e-17 -1.0296017483658173e+00 +4.5315402780940683e-12
3.4000000000000017e+00 +9.0444053023001700e+00 +0.0000000000000000e+00 +3.3999999306538373e+00 -5.7726717312464420e-17 -1.0296016695604175e+00 +4.6897549387302299e-12
3.5000000000000018e+00 +9.0443698056274471e+00 +0.0000000000000000e+00 +3.4999999243533271e+00 -3.7764293433745940e-17 -1.0296016014674281e+00 +4.3762630393566137e-12
3.6000000000000019e+00 +9.0443332800654428e+00 +0.0000000000000000e+00 +3.5999999176823025e+00 -1.7311037842897072e-17 -1.0296015531183187e+00 +3.7133091296683763e-12
3.7000000000000020e+00 +9.0442957256142087e+00 +0.0000000000000000e+00 +3.6999999106301771e+00 +2.5013204743275564e-18 -1.0296015335448536e+00 +2.8228205797407787e-12
3.8000000000000020e+00 +9.0442571422737679e+00 +0.0000000000000000e+00 +3.7999999031863649e+00 +2.0540961929138334e-17 -1.0296015517791015e+00 +1.8263816028877932e-12
3.9000000000000021e+00 +9.0442175300441061e+00 +0.0000000000000000e+00 +3.8999998953402799e+00 +3.5675969986252348e-17 -1.0296016168534488e+00 +8.4520725728531713e-13
4.0000000000000018e+00 +9.0441768889251613e+00 +0.0000000000000000e+00 +3.9999998870813358e+00 +4.6774324825391547e-17 -1.0296017378006099e+00 +1.1742527899654529e-16
4.1000000000000014e+00 +9.0441352189168160e+00 +0.0000000000000000e+00 +4.0999998783989460e+00 +5.3018476499585212e-17 -1.0296019198431965e+00 -6.1399290799444046e-13
4.2000000000000011e+00 +9.0440925200188929e+00 +0.0000000000000000e+00 +4.1999998692825251e+00 +5.4849136945343203e-17 -1.0296021529620409e+00 -1.0045093970158280e-12
4.3000000000000007e+00 +9.0440487922311661e+00 +0.0000000000000000e+00 +4.2999998597214866e+00 +5.3021634844225047e-17 -1.0296024233270262e+00 -1.2042803620383989e-12
4.4000000000000004e+00 +9.0440040355533711e+00 +0.0000000000000000e+00 +4.3999998497052442e+00 +4.8291351054390723e-17 -1.0296027171074447e+00 -1.2460621998498022e-12
4.5000000000000000e+00 +9.0439582499852200e+00 +0.0000000000000000e+00 +4.4999998392232117e+00 +4.1413722259210753e-17 -1.0296030204719588e+00 -1.1625124121454493e-12
4.5999999999999996e+00 +9.0439114355264145e+00 +0.0000000000000000e+00 +4.5999998282648020e+00 +3.3144244610897176e-17 -1.0296033195885586e+00 -9.8618262742424448e-13
4.6999999999999993e+00 +9.0438635921766632e+00 +0.0000000000000000e+00 +4.6999998168194299e+00 +2.4238477368944067e-17 -1.0296036006245217e+00 -7.4951161611637914e-13
4.7999999999999989e+00 +9.0438147199356909e+00 +0.0000000000000000e+00 +4.7999998048765082e+00 +1.5452046533165802e-17 -1.0296038497463813e+00 -4.8481829865259011e-13
4.8999999999999986e+00 +9.0437648188032540e+00 +0.0000000000000000e+00 +4.8999997924254508e+00 +7.5406484711198870e-18 -1.0296040531198754e+00 -2.2429474618570504e-13
4.9999999999999982e+00 +9.0437138887791573e+00 +0.0000000000000000e+00 +4.9999997794556723e+00 +1.2600535397024235e-18 -1.0296041969099146e+00 +8.2632514696531580e-19
5.0999999999999979e+00 +9.0436619298632639e+00 +0.0000000000000000e+00 +5.0999997659565857e+00 -2.8286225047648866e-18 -1.0296042721206582e+00 +1.6291709749631840e-13
5.1999999999999975e+00 +9.0436089420555010e+00 +0.0000000000000000e+00 +5.1999997519176047e+00 -4.9431572564690589e-18 -1.0296042891163799e+00 +2.6645437902485971e-13
5.2999999999999972e+00 +9.0435549253558580e+00 +0.0000000000000000e+00 +5.2999997373281431e+00 -5.4960924940961536e-18 -1.0296042631018021e+00 +3.1936355219930007e-13
5.3999999999999968e+00 +9.0434998797643633e+00 +0.0000000000000000e+00 +5.3999997221776148e+00 -4.9000114275102024e-18 -1.0296042092820423e+00 +3.3036339302978141e-13
5.4999999999999964e+00 +9.0434438052810773e+00 +0.0000000000000000e+00 +5.4999997064554345e+00 -3.5675408593951591e-18 -1.0296041428626344e+00 +3.0813869490812802e-13
5.5999999999999961e+00 +9.0433867019060692e+00 +0.0000000000000000e+00 +5.5999996901510150e+00 -1.9113533373614397e-18 -1.0296040790495480e+00 +2.6133838908910681e-13
5.6999999999999957e+00 +9.0433285696394101e+00 +0.0000000000000000e+00 +5.6999996732537701e+00 -3.4416929619698369e-19 -1.0296040330492071e+00 +1.9857366291575744e-13
5.7999999999999954e+00 +9.0432694084811480e+00 +0.0000000000000000e+00 +5.7999996557531146e+00 +7.2124081005554180e-19 -1.0296040200685097e+00 +1.2841607571103285e-13
5.8999999999999950e+00 +9.0432092184313024e+00 +0.0000000000000000e+00 +5.8999996376384614e+00 +8.7205438651528853e-19 -1.0296040553148487e+00 +5.9395672258149406e-14
5.9999999999999947e+00 +9.0431479994898432e+00 +0.0000000000000000e+00 +5.9999996188992242e+00 -3.0460541330746022e-19 -1.0296041539961283e+00 -9.0620845865163719e-19
6.0999999999999943e+00 +9.0430857516566761e+00 +0.0000000000000000e+00 +6.0999995995248177e+00 -3.0883457621387408e-18 -1.0296043268025796e+00 -4.3123155947916554e-14
6.1999999999999940e+00 +9.0430224749316377e+00 +0.0000000000000000e+00 +6.1999995795046550e+00 -7.2254968507180690e-18 -1.0296045663516706e+00 -7.0511802412393445e-14
6.2999999999999936e+00 +9.0429581693144954e+00 +0.0000000000000000e+00 +6.2999995588281497e+00 -1.2329049702104433e-17 -1.0296048607423056e+00 -8.4493077179878559e-14
6.3999999999999932e+00 +9.0428928348049613e+00 +0.0000000000000000e+00 +6.3999995374847156e+00 -1.8011978394935873e-17 -1.0296051980730467e+00 -8.7382596297345696e-14
6.4999999999999929e+00 +9.0428264714027087e+00 +0.0000000000000000e+00 +6.4999995154637666e+00 -2.3887239398485424e-17 -1.0296055664421020e+00 -8.1484854167056412e-14
6.5999999999999925e+00 +9.0427590791073751e+00 +0.0000000000000000e+00 +6.5999994927547156e+00 -2.9567770926762370e-17 -1.0296059539473106e+00 -6.9092716729831784e-14
6.6999999999999922e+00 +9.0426906579185840e+00 +0.0000000000000000e+00 +6.6999994693469764e+00 -3.4666492312202091e-17 -1.0296063486861335e+00 -5.2486913924313989e-14
6.7999999999999918e+00 +9.0426212078359463e+00 +0.0000000000000000e+00 +6.7999994452299628e+00 -3.8796303399487058e-17 -1.0296067387556376e+00 -3.3935531401152243e-14
6.8999999999999915e+00 +9.0425507288590818e+00 +0.0000000000000000e+00 +6.8999994203930877e+00 -4.1570083960043276e-17 -1.0296071122524866e+00 -1.5693501471172266e-14
6.9999999999999911e+00 +9.0424792209876266e+00 +0.0000000000000000e+00 +6.9999993948257648e+00 -4.2600693127757435e-17 -1.0296074572729261e+00 -2.0932665133125216e-18
7.0999999999999908e+00 +9.0424066842212447e+00 +0.0000000000000000e+00 +7.0999993685174081e+00 -4.1629560482147887e-17 -1.0296077643197195e+00 +1.1384459088799300e-14
7.1999999999999904e+00 +9.0423331185596343e+00 +0.0000000000000000e+00 +7.1999993414574304e+00 -3.8912461347572554e-17 -1.0296080335229991e+00 +1.8612022994449484e-14
7.2999999999999901e+00 +9.0422585240025359e+00 +0.0000000000000000e+00 +7.2999993136352455e+00 -3.4833721427374067e-17 -1.0296082674190905e+00 +2.2297576811524943e-14
7.3999999999999897e+00 +9.0421829005497241e+00 +0.0000000000000000e+00 +7.3999992850402672e+00 -2.9777616585458137e-17 -1.0296084685434139e+00 +2.3054711790859933e-14
7.4999999999999893e+00 +9.0421062482010033e+00 +0.0000000000000000e+00 +7.4999992556619093e+00 -2.4128370933643001e-17 -1.0296086394304589e+00 +2.1493495476011251e-14
7.5999999999999890e+00 +9.0420285669562119e+00 +0.0000000000000000e+00 +7.5999992254895847e+00 -1.8270154898611445e-17 -1.0296087826137501e+00 +1.8220334885750345e-14
7.6999999999999886e+00 +9.0419498568152150e+00 +0.0000000000000000e+00 +7.6999991945127073e+00 -1.2587083267950913e-17 -1.0296089006258236e+00 +1.3837839470450355e-14
7.7999999999999883e+00 +9.0418701177779042e+00 +0.0000000000000000e+00 +7.7999991627206908e+00 -7.4632132147660536e-18 -1.0296089959981920e+00 +8.9446838367611613e-15
7.8999999999999879e+00 +9.0417893498441906e+00 +0.0000000000000000e+00 +7.8999991301029491e+00 -3.2825423003468789e-18 -1.0296090712613148e+00 +4.1354702349420046e-15
7.9999999999999876e+00 +9.0417075530140067e+00 +0.0000000000000000e+00 +7.9999990966488950e+00 -4.2900645437608327e-19 -1.0296091289445728e+00 +5.9080322663458096e-19
8.0999999999999872e+00 +9.0416247272873047e+00 +0.0000000000000000e+00 +8.0999990623479423e+00 +8.2138552722112000e-19 -1.0296091722957712e+00 -2.9984406638735135e-15
8.1999999999999869e+00 +9.0415408726640489e+00 +0.0000000000000000e+00 +8.1999990271895058e+00 +6.2410436149997344e-19 -1.0296092074413448e+00 -4.9008738771014541e-15
8.2999999999999865e+00 +9.0414559891442128e+00 +0.0000000000000000e+00 +8.2999989911629992e+00 -7.5758678393216114e-19 -1.0296092412304327e+00 -5.8699338885442530e-15
8.3999999999999861e+00 +9.0413700767277714e+00 +0.0000000000000000e+00 +8.3999989542578355e+00 -3.0605174016410136e-18 -1.0296092805157981e+00 -6.0677916964989939e-15
8.4999999999999858e+00 +9.0412831354146928e+00 +0.0000000000000000e+00 +8.4999989164634275e+00 -6.0216127784365589e-18 -1.0296093321539344e+00 -5.6555273378277361e-15
8.5999999999999854e+00 +9.0411951652049343e+00 +0.0000000000000000e+00 +8.5999988777691900e+00 -9.3778971388398983e-18 -1.0296094030051823e+00 -4.7930929126215996e-15
8.6999999999999851e+00 +9.0411061660984355e+00 +0.0000000000000000e+00 +8.6999988381645359e+00 -1.2866496798159661e-17 -1.0296094999338428e+00 -3.6392755396562762e-15
8.7999999999999847e+00 +9.0410161380951060e+00 +0.0000000000000000e+00 +8.7999987976388798e+00 -1.6224643325392145e-17 -1.0296096298082880e+00 -2.3516602411230172e-15
8.8999999999999844e+00 +9.0409250811948265e+00 +0.0000000000000000e+00 +8.8999987561816347e+00 -1.9189676716161036e-17 -1.0296097995010745e+00 -1.0865927551159463e-15
8.9999999999999840e+00 +9.0408329953974356e+00 +0.0000000000000000e+00 +8.9999987137822135e+00 -2.1499048575910166e-17 -1.0296100158890591e+00 +8.5772565014926360e-19
9.0999999999999837e+00 +9.0407398807027270e+00 +0.0000000000000000e+00 +9.0999986704300309e+00 -2.2943036663897960e-17 -1.0296102829868368e+00 +7.8961587113344102e-16
9.1999999999999833e+00 +9.0406457371104452e+00 +0.0000000000000000e+00 +9.1999986261144997e+00 -2.3522865117273963e-17 -1.0296105933432251e+00 +1.2901220103652556e-15
9.2999999999999829e+00 +9.0405505646202897e+00 +0.0000000000000000e+00 +9.2999985808250347e+00 -2.3292524500152607e-17 -1.0296109366359480e+00 +1.5453247111667629e-15
9.3999999999999826e+00 +9.0404543632319285e+00 +0.0000000000000000e+00 +9.3999985345510471e+00 -2.2306051194905521e-17 -1.0296113025376048e+00 +1.5978505262327056e-15
9.4999999999999822e+00 +9.0403571329450063e+00 +0.0000000000000000e+00 +9.4999984872819514e+00 -2.0617528393058804e-17 -1.0296116807155202e+00 +1.4899940098931615e-15
9.5999999999999819e+00 +9.0402588737591572e+00 +0.0000000000000000e+00 +9.5999984390071607e+00 -1.8281087086390662e-17 -1.0296120608316006e+00 +1.2637077143999808e-15
9.6999999999999815e+00 +9.0401595856740133e+00 +0.0000000000000000e+00 +9.6999983897160877e+00 -1.5350907058227415e-17 -1.0296124325421920e+00 +9.6059216532779488e-16
9.7999999999999812e+00 +9.0400592686892125e+00 +0.0000000000000000e+00 +9.7999983393981474e+00 -1.1881217874936912e-17 -1.0296127854979282e+00 +6.2188581567939324e-16
9.8999999999999808e+00 +9.0399579228044153e+00 +0.0000000000000000e+00 +9.8999982880427506e+00 -7.9262998776195604e-18 -1.0296131093435903e+00 +2.8845497828605904e-16
9.9999999999999805e+00 +9.0398555480193092e+00 +0.0000000000000000e+00 +9.9999982356393122e+00 -3.5404851739920088e-18 -1.0296133937179590e+00 +7.8373609229340346e-19
1.0099999999999980e+01 +9.0397521443336224e+00 +0.0000000000000000e+00 +1.0099998182177245e+01 +1.1872810609134379e-18 -1.0296136316658706e+00 -2.0954383177826238e-16
1.0199999999999980e+01 +9.0396477117471257e+00 +0.0000000000000000e+00 +1.0199998127645964e+01 +6.0298480885757088e-18 -1.0296138298790036e+00 -3.4521130802719230e-16
1.0299999999999979e+01 +9.0395422502596325e+00 +0.0000000000000000e+00 +1.0299998072034880e+01 +1.0725715758911317e-17 -1.0296139984652006e+00 -4.1735769952831562e-16
1.0399999999999979e+01 +9.0394357598709831e+00 +0.0000000000000000e+00 +1.0399998015333408e+01 +1.5013628557637245e-17 -1.0296141475369149e+00 -4.3702500015672826e-16
1.0499999999999979e+01 +9.0393282405810407e+00 +0.0000000000000000e+00 +1.0499997957530962e+01 +1.8632581867006254e-17 -1.0296142872113261e+00 -4.1515548688426280e-16
1.0599999999999978e+01 +9.0392196923896755e+00 +0.0000000000000000e+00 +1.0599997898616953e+01 +2.1321828232110419e-17 -1.0296144276104573e+00 -3.6258900975192555e-16
1.0699999999999978e+01 +9.0391101152967579e+00 +0.0000000000000000e+00 +1.0699997838580797e+01 +2.2820883632842752e-17 -1.0296145788612929e+00 -2.9006027560955516e-16
1.0799999999999978e+01 +9.0389995093021476e+00 +0.0000000000000000e+00 +1.0799997777411907e+01 +2.2869533761606911e-17 -1.0296147510958957e+00 -2.0819612551221487e-16
1.0899999999999977e+01 +9.0388878744056846e+00 +0.0000000000000000e+00 +1.0899997715099696e+01 +2.1207840306866785e-17 -1.0296149544515203e+00 -1.2751280566287120e-16
1.0999999999999977e+01 +9.0387752106071755e+00 +0.0000000000000000e+00 +1.0999997651633578e+01 +1.7576147242625881e-17 -1.0296151990707336e+00 -5.8413231790478577e-17
1.1099999999999977e+01 +9.0386615179063856e+00 +0.0000000000000000e+00 +1.1099997587002965e+01 +1.1846920255407875e-17 -1.0296154917964531e+00 -8.9791763723534777e-18
1.1199999999999976e+01 +9.0385467963030361e+00 +0.0000000000000000e+00 +1.1199997521197272e+01 +4.4201045220418177e-18 -1.0296158262532200e+00 +2.1597823532230931e-17
1.1299999999999976e+01 +9.0384310457968073e+00 +0.0000000000000000e+00 +1.1299997454205910e+01 -4.1727165758297774e-18 -1.0296161927582272e+00 +3.6315517266201846e-17
1.1399999999999975e+01 +9.0383142663873439e+00 +0.0000000000000000e+00 +1.1399997386018294e+01 -1.3400225234246327e-17 -1.0296165816261422e+00 +3.8142625538016065e-17
1.1499999999999975e+01 +9.0381964580742729e+00 +0.0000000000000000e+00 +1.1499997316623835e+01 -2.2731375674778510e-17 -1.0296169831690472e+00 +3.0018104168082039e-17
1.1599999999999975e+01 +9.0380776208572033e+00 +0.0000000000000000e+00 +1.1599997246011949e+01 -3.1635400602045932e-17 -1.0296173876963817e+00 +1.4850406007312013e-17
1.1699999999999974e+01 +9.0379577547357464e+00 +0.0000000000000000e+00 +1.1699997174172047e+01 -3.9581817671049185e-17 -1.0296177855148894e+00 -4.4832590022990810e-18
1.1799999999999974e+01 +9.0378368597095164e+00 +0.0000000000000000e+00 +1.1799997101093542e+01 -4.6040435964468178e-17 -1.0296181669285593e+00 -2.5137665655318727e-17
