# multipoles
# s[mm] polynom_b[n=0][T/m^n] polynom_b[n=1][T/m^n] polynom_b[n=2][T/m^n] polynom_b[n=3][T/m^n] polynom_b[n=4][T/m^n] polynom_b[n=5][T/m^n] polynom_b[n=6][T/m^n] 
+0.0000000000000000e+00 -1.0302299946886517e+00 +2.3015108522206904e+00 +2.0011705230023850e+01 +7.2913355411905044e+01 +3.7920381119366989e+03 +2.3610576667832024e+05 +7.8610168821150744e+06 
+1.0000000000000001e-01 -1.0302299960290811e+00 +2.3015109900228450e+00 +2.0011745824721686e+01 +7.2909207586443642e+01 +3.7911249452411257e+03 +2.3612684874716858e+05 +7.8655641003830126e+06 
+2.0000000000000001e-01 -1.0302300000194526e+00 +2.3015113603871309e+00 +2.0011858710722908e+01 +7.2897903609340631e+01 +3.7885957557311990e+03 +2.3618423995212046e+05 +7.8781354918247806e+06 
+3.0000000000000004e-01 -1.0302300066133907e+00 +2.3015118987600345e+00 +2.0012030541801519e+01 +7.2881152425145132e+01 +3.7847659911478004e+03 +2.3626915961697220e+05 +7.8971257446758151e+06 
+4.0000000000000002e-01 -1.0302300157644786e+00 +2.3015125405820198e+00 +2.0012247966336698e+01 +7.2860663175034915e+01 +3.7799512036552624e+03 +2.3637282585346431e+05 +7.9209290449050386e+06 
+5.0000000000000000e-01 -1.0302300274263463e+00 +2.3015132212934835e+00 +2.0012497638214526e+01 +7.2838144986428276e+01 +3.7744668408564144e+03 +2.3648645690769685e+05 +7.9479400788523303e+06 
+5.9999999999999998e-01 -1.0302300415525785e+00 +2.3015138763392344e+00 +2.0012766206589280e+01 +7.2815306866988067e+01 +3.7686284363468194e+03 +2.3660127168995747e+05 +7.9765531297188876e+06 
+6.9999999999999996e-01 -1.0302300580968138e+00 +2.3015144411619630e+00 +2.0013040326378924e+01 +7.2793857880191226e+01 +3.7627514179050127e+03 +2.3670848881826535e+05 +8.0051629801000962e+06 
+7.9999999999999993e-01 -1.0302300770126314e+00 +2.3015148512001917e+00 +2.0013306645400746e+01 +7.2775507197198479e+01 +3.7571513482320684e+03 +2.3679932632964972e+05 +8.0321637677659374e+06 
+8.9999999999999991e-01 -1.0302300982536534e+00 +2.3015150419015824e+00 +2.0013551817541746e+01 +7.2761963718003614e+01 +3.7521436683649781e+03 +2.3686500385738772e+05 +8.0559502295123953e+06 
+9.9999999999999989e-01 -1.0302301217734711e+00 +2.3015149487040394e+00 +2.0013762492386103e+01 +7.2754936614124318e+01 +3.7480439000660613e+03 +2.3689673951089598e+05 +8.0749167238582261e+06 
+1.0999999999999999e+00 -1.0302301475318156e+00 +2.3015145258228844e+00 +2.0013928474039894e+01 +7.2755612568766495e+01 +3.7450876569645102e+03 +2.3688850815422830e+05 +8.0878729148583962e+06 
+1.2000000000000000e+00 -1.0302301755104786e+00 +2.3015138012935892e+00 +2.0014051598471603e+01 +7.2763132086845957e+01 +3.7432045171815948e+03 +2.3684507027726094e+05 +8.0952203308832906e+06 
+1.3000000000000000e+00 -1.0302302056961317e+00 +2.3015128213190805e+00 +2.0014136563674072e+01 +7.2776133982280129e+01 +3.7422509256915396e+03 +2.3677382878618207e+05 +8.0977412542934315e+06 
+1.4000000000000001e+00 -1.0302302380754274e+00 +2.3015116320847482e+00 +2.0014188065626712e+01 +7.2793257597597290e+01 +3.7420833610646387e+03 +2.3668218345056064e+05 +8.0962178206988107e+06 
+1.5000000000000002e+00 -1.0302302726350696e+00 +2.3015102797918581e+00 +2.0014210805322382e+01 +7.2813141809513141e+01 +3.7425582163161753e+03 +2.3657753674857013e+05 +8.0914325467416374e+06 
+1.6000000000000003e+00 -1.0302303093617529e+00 +2.3015088106325758e+00 +2.0014209484647086e+01 +7.2834425781105153e+01 +3.7435318555436916e+03 +2.3646728941482774e+05 +8.0841681164427074e+06 
+1.7000000000000004e+00 -1.0302303482421242e+00 +2.3015072707976256e+00 +2.0014188798215073e+01 +7.2855748723627158e+01 +3.7448607906319871e+03 +2.3635884187540170e+05 +8.0752064831717182e+06 
+1.8000000000000005e+00 -1.0302303892628872e+00 +2.3015057064842548e+00 +2.0014153447766969e+01 +7.2875749677458344e+01 +3.7464013989190353e+03 +2.3625959547200639e+05 +8.0653302359011136e+06 
+1.9000000000000006e+00 -1.0302304324107332e+00 +2.3015041638862557e+00 +2.0014108134392398e+01 +7.2893067805643526e+01 +3.7480100662416426e+03 +2.3617695075062287e+05 +8.0553219314912511e+06 
+2.0000000000000004e+00 -1.0302304776723699e+00 +2.3015026891948076e+00 +2.0014057560247778e+01 +7.2906342361656044e+01 +3.7495431638194427e+03 +2.3611830766443716e+05 +8.0459641808796460e+06 
+2.1000000000000005e+00 -1.0302305250466914e+00 +2.3015013157892277e+00 +2.0014005689032118e+01 +7.2914628242352450e+01 +3.7508876867677154e+03 +2.3608865751617023e+05 +8.0378639679219723e+06 
+2.2000000000000006e+00 -1.0302305745836193e+00 +2.3015000271260710e+00 +2.0013954162797841e+01 +7.2918595471235705e+01 +3.7520365507511556e+03 +2.3608361364972504e+05 +8.0310163716621082e+06 
+2.3000000000000007e+00 -1.0302306263462397e+00 +2.3014987945213665e+00 +2.0013904177490012e+01 +7.2919306059522185e+01 +3.7530055067581015e+03 +2.3609650812897421e+05 +8.0252836798167946e+06 
+2.4000000000000008e+00 -1.0302306803976338e+00 +2.3014975892734015e+00 +2.0013856928253901e+01 +7.2917822502064496e+01 +3.7538103226101398e+03 +2.3612067033674277e+05 +8.0205280952313561e+06 
+2.5000000000000009e+00 -1.0302307368009236e+00 +2.3014963826929558e+00 +2.0013813615626376e+01 +7.2915206914557331e+01 +3.7544666643713153e+03 +2.3614943192778641e+05 +8.0166122990551116e+06 
+2.6000000000000010e+00 -1.0302307956191765e+00 +2.3014951460846880e+00 +2.0013775432994581e+01 +7.2912521575954287e+01 +3.7549903351516232e+03 +2.3617612370438615e+05 +8.0133983174535166e+06 
+2.7000000000000011e+00 -1.0302308569154550e+00 +2.3014938507588112e+00 +2.0013743572176796e+01 +7.2910828550141176e+01 +3.7553971760298032e+03 +2.3619407790680559e+05 +8.0107479709563563e+06 
+2.8000000000000012e+00 -1.0302309207528753e+00 +2.3014924680213165e+00 +2.0013719231833186e+01 +7.2911190029065537e+01 +3.7557029000195798e+03 +2.3619662606971306e+05 +8.0085236820056327e+06 
+2.9000000000000012e+00 -1.0302309871944348e+00 +2.3014909691833734e+00 +2.0013703595700857e+01 +7.2914667994542356e+01 +3.7559235047223870e+03 +2.3617710116414461e+05 +8.0065865137141207e+06 
+3.0000000000000013e+00 -1.0302310563032071e+00 +2.3014893255574824e+00 +2.0013697856498951e+01 +7.2922324367579492e+01 +3.7560748205726163e+03 +2.3612883664221730e+05 +8.0047983149891030e+06 
+3.1000000000000014e+00 -1.0302311281084684e+00 +2.3014875207359746e+00 +2.0013702251644329e+01 +7.2934820958827586e+01 +3.7561744296452575e+03 +2.3604765061466943e+05 +8.0030504098761175e+06 
+3.2000000000000015e+00 -1.0302312025065443e+00 +2.3014855859775118e+00 +2.0013713067800733e+01 +7.2951268201296728e+01 +3.7562550409486071e+03 +2.3593900155456970e+05 +8.0012934840992866e+06 
+3.3000000000000016e+00 -1.0302312793611805e+00 +2.3014835641340801e+00 +2.0013725586742606e+01 +7.2970399149506960e+01 +3.7563548409365894e+03 +2.3581069642716926e+05 +7.9994801551692896e+06 
+3.4000000000000017e+00 -1.0302313585360483e+00 +2.3014814980514520e+00 +2.0013735080916646e+01 +7.2990947037190878e+01 +3.7565121932495431e+03 +2.3567054108580441e+05 +7.9975622076542415e+06 
+3.5000000000000018e+00 -1.0302314398949481e+00 +2.3014794305860891e+00 +2.0013736840392841e+01 +7.3011644849443783e+01 +3.7567651079670813e+03 +2.3552634256483745e+05 +7.9954931725413641e+06 
+3.6000000000000019e+00 -1.0302315233016084e+00 +2.3014774045842641e+00 +2.0013726146074465e+01 +7.3031225883838715e+01 +3.7571517678086307e+03 +2.3538590594744222e+05 +7.9932257746286169e+06 
+3.7000000000000020e+00 -1.0302316086198080e+00 +2.3014754628979195e+00 +2.0013698285919428e+01 +7.3048423321451111e+01 +3.7577102098958521e+03 +2.3525703675264216e+05 +7.9907134780297587e+06 
+3.8000000000000020e+00 -1.0302316957133479e+00 +2.3014736483773164e+00 +2.0013648551191153e+01 +7.3061970433282042e+01 +3.7584784005935412e+03 +2.3514753975292927e+05 +7.9879101187610952e+06 
+3.9000000000000021e+00 -1.0302317844460622e+00 +2.3014720038702570e+00 +2.0013572237652173e+01 +7.3070600604193046e+01 +3.7594942088380235e+03 +2.3506521882913125e+05 +7.9847700463234074e+06 
+4.0000000000000018e+00 -1.0302318746818226e+00 +2.3014705722269468e+00 +2.0013464646685843e+01 +7.3073047189207060e+01 +3.7607953873912734e+03 +2.3501787778230093e+05 +7.9812482014020309e+06 
+4.1000000000000014e+00 -1.0302319663389867e+00 +2.3014693817487060e+00 +2.0013323237298337e+01 +7.3068402689111466e+01 +3.7623982730130697e+03 +2.3501122807693790e+05 +7.9773392652975256e+06 
+4.2000000000000011e+00 -1.0302320595500034e+00 +2.3014684046206204e+00 +2.0013154250151153e+01 +7.3057124333092290e+01 +3.7642275864862586e+03 +2.3504317491444631e+05 +7.9732401858855477e+06 
+4.3000000000000007e+00 -1.0302321544996487e+00 +2.3014675994660641e+00 +2.0012966124433774e+01 +7.3039994402635529e+01 +3.7661844022422215e+03 +2.3510979851988578e+05 +7.9692051397244325e+06 
+4.4000000000000004e+00 -1.0302322513727173e+00 +2.3014669249121384e+00 +2.0012767301567898e+01 +7.3017795040999545e+01 +3.7681697599227855e+03 +2.3520718009920680e+05 +7.9654884257127587e+06 
+4.5000000000000000e+00 -1.0302323503539983e+00 +2.3014663395860899e+00 +2.0012566220543519e+01 +7.2991308393445422e+01 +3.7700847667436792e+03 +2.3533140091294638e+05 +7.9623439373331172e+06 
+4.5999999999999996e+00 -1.0302324516282280e+00 +2.3014658021052079e+00 +2.0012371315786648e+01 +7.2961316853661131e+01 +3.7718306106466121e+03 +2.3547854099779527e+05 +7.9600251754133962e+06 
+4.6999999999999993e+00 -1.0302325553801666e+00 +2.3014652710851040e+00 +2.0012191022164277e+01 +7.2928602851548334e+01 +3.7733084974314861e+03 +2.3564468031671681e+05 +7.9587854576484105e+06 
+4.7999999999999989e+00 -1.0302326617944704e+00 +2.3014647051442290e+00 +2.0012033762811281e+01 +7.2893948711928729e+01 +3.7744198577296579e+03 +2.3582589962086026e+05 +7.9588769977224283e+06 
+4.8999999999999986e+00 -1.0302327710558636e+00 +2.3014640628920624e+00 +2.0011907967616146e+01 +7.2858137002051564e+01 +3.7750660139865799e+03 +2.3601827841832279e+05 +7.9605524397810074e+06 
+4.9999999999999982e+00 -1.0302328833489840e+00 +2.3014633029391209e+00 +2.0011822056967532e+01 +7.2821950220350899e+01 +3.7751484741099694e+03 +2.3621789687930830e+05 +7.9640635013248865e+06 
+5.0999999999999979e+00 -1.0302329988085597e+00 +2.3014623896093989e+00 +2.0011782203078727e+01 +7.2786128680362296e+01 +3.7745993336740826e+03 +2.3642094727773202e+05 +7.9695629536341233e+06 
+5.1999999999999975e+00 -1.0302331173715775e+00 +2.3014613086177600e+00 +2.0011785525764036e+01 +7.2751286986461452e+01 +3.7734695124743675e+03 +2.3662362945754538e+05 +7.9768333844583472e+06 
+5.2999999999999972e+00 -1.0302332389260895e+00 +2.3014600506233824e+00 +2.0011826870584599e+01 +7.2718021480465936e+01 +3.7718386447112248e+03 +2.3682202078506266e+05 +7.9855725743128788e+06 
+5.3999999999999968e+00 -1.0302333633601055e+00 +2.3014586062828464e+00 +2.0011901079515376e+01 +7.2686928572326238e+01 +3.7697864161832817e+03 +2.3701219823599290e+05 +7.9954781256660484e+06 
+5.4999999999999964e+00 -1.0302334905616635e+00 +2.3014569662641744e+00 +2.0012002997645343e+01 +7.2658604353039053e+01 +3.7673924458383667e+03 +2.3719024059604693e+05 +8.0062480092849704e+06 
+5.5999999999999961e+00 -1.0302336204187874e+00 +2.3014551212280492e+00 +2.0012127469148314e+01 +7.2633645109843613e+01 +3.7647363552184429e+03 +2.3735222554186449e+05 +8.0175802524448605e+06 
+5.6999999999999957e+00 -1.0302337528195353e+00 +2.3014530618508022e+00 +2.0012269342864759e+01 +7.2612646662515544e+01 +3.7618976647878558e+03 +2.3749423349956475e+05 +8.0291734253823915e+06 
+5.7999999999999954e+00 -1.0302338876519479e+00 +2.3014507787866689e+00 +2.0012423465475393e+01 +7.2596205468918640e+01 +3.7589559248202490e+03 +2.3761234118941668e+05 +8.0407260199075174e+06 
+5.8999999999999950e+00 -1.0302340248040527e+00 +2.3014482627170181e+00 +2.0012584683197350e+01 +7.2584917213208215e+01 +3.7559906781038712e+03 +2.3770262977444287e+05 +8.0519366382367043e+06 
+5.9999999999999947e+00 -1.0302341641639667e+00 +2.3014455043138788e+00 +2.0012747853904369e+01 +7.2579377809644612e+01 +3.7530812279496249e+03 +2.3776117914478874e+05 +8.0625051027313052e+06 
+6.0999999999999943e+00 -1.0302343056416892e+00 +2.3014424998802743e+00 +2.0012908122644607e+01 +7.2580000522584811e+01 +3.7503001282140290e+03 +2.3778501727038043e+05 +8.0721648885062356e+06 
+6.1999999999999940e+00 -1.0302344492303250e+00 +2.3014392694899377e+00 +2.0013060720470438e+01 +7.2586476577575496e+01 +3.7477193098199850e+03 +2.3777492173263401e+05 +8.0806498445305461e+06 
+6.2999999999999936e+00 -1.0302345949424654e+00 +2.3014358396258148e+00 +2.0013200603147876e+01 +7.2598313535474460e+01 +3.7454176138852163e+03 +2.3773262498746926e+05 +8.0876580966535266e+06 
+6.3999999999999932e+00 -1.0302347427907179e+00 +2.3014322367718938e+00 +2.0013322726184665e+01 +7.2615018916562732e+01 +3.7434739119639253e+03 +2.3765985976594378e+05 +8.0928875320454044e+06 
+6.4999999999999929e+00 -1.0302348927876752e+00 +2.3014284874163535e+00 +2.0013422042497087e+01 +7.2636100087996937e+01 +3.7419671398561200e+03 +2.3755835977110197e+05 +8.0960356680287095e+06 
+6.5999999999999925e+00 -1.0302350449459019e+00 +2.3014246180473679e+00 +2.0013493500275715e+01 +7.2661064430710198e+01 +3.7409763455105176e+03 +2.3742985860595500e+05 +8.0967993994384846e+06 
+6.6999999999999922e+00 -1.0302351992779939e+00 +2.3014206551627283e+00 +2.0013532049831710e+01 +7.2689419010635334e+01 +3.7405805579538360e+03 +2.3727609180147789e+05 +8.0948756297704699e+06 
+6.7999999999999918e+00 -1.0302353557964949e+00 +2.3014166252617869e+00 +2.0013532633512110e+01 +7.2720670819736057e+01 +3.7408589785999470e+03 +2.3709879539624421e+05 +8.0899603556684759e+06 
+6.8999999999999915e+00 -1.0302355145139555e+00 +2.3014125548490525e+00 +2.0013490193472943e+01 +7.2754326712087945e+01 +3.7418908350113466e+03 +2.3689970621193849e+05 +8.0817493594419137e+06 
+6.9999999999999911e+00 -1.0302356754429174e+00 +2.3014084704296285e+00 +2.0013399668605853e+01 +7.2789893475224972e+01 +3.7437554398270690e+03 +2.3668056165896257e+05 +8.0699379354204107e+06 
+7.0999999999999908e+00 -1.0302358385907748e+00 +2.3014044006377614e+00 +2.0013258181511695e+01 +7.2826696363923659e+01 +3.7464903785563542e+03 +2.3644461080865384e+05 +8.0544207362275803e+06 
+7.1999999999999904e+00 -1.0302360039591310e+00 +2.3014003774886076e+00 +2.0013073566722543e+01 +7.2863417751241371e+01 +3.7499383606469455e+03 +2.3620070984621588e+05 +8.0359761246389858e+06 
+7.2999999999999901e+00 -1.0302361715520529e+00 +2.3013964325217131e+00 +2.0012856888470100e+01 +7.2898596779096906e+01 +3.7538853765964272e+03 +2.3595904598079942e+05 +8.0156298291054107e+06 
+7.3999999999999897e+00 -1.0302363413736777e+00 +2.3013925972613434e+00 +2.0012619221649043e+01 +7.2930773077741208e+01 +3.7581171926119373e+03 +2.3572980329620116e+05 +7.9944087264337186e+06 
+7.4999999999999893e+00 -1.0302365134281681e+00 +2.3013889032341823e+00 +2.0012371647558513e+01 +7.2958486267190864e+01 +3.7624194187715293e+03 +2.3552316558608945e+05 +7.9733405595117761e+06 
+7.5999999999999890e+00 -1.0302366877197531e+00 +2.3013853819560337e+00 +2.0012125256954114e+01 +7.2980276368975865e+01 +3.7665774630865417e+03 +2.3534931388745672e+05 +7.9534541234726571e+06 
+7.6999999999999886e+00 -1.0302368642527209e+00 +2.3013820649338483e+00 +2.0011891151061008e+01 +7.2994683715240598e+01 +3.7703764991028970e+03 +2.3521842709189668e+05 +7.9357794566387478e+06 
+7.7999999999999883e+00 -1.0302370430313954e+00 +2.3013789836705536e+00 +2.0011680437502427e+01 +7.3000248827688026e+01 +3.7736015524826371e+03 +2.3514068258259143e+05 +7.9213474046991216e+06 
+7.8999999999999879e+00 -1.0302372240601454e+00 +2.3013761696608928e+00 +2.0011504231781629e+01 +7.2995512554710089e+01 +3.7760374671879790e+03 +2.3512625539568008e+05 +7.9111897974145487e+06 
+7.9999999999999876e+00 -1.0302374073434017e+00 +2.3013736543872652e+00 +2.0011373660613991e+01 +7.2979016227176089e+01 +3.7774688426599459e+03 +2.3518531704883103e+05 +7.9063397271188674e+06 
+8.0999999999999872e+00 -1.0302375928992653e+00 +2.3013714462378703e+00 +2.0011296906010454e+01 +7.2950112698936366e+01 +3.7777539875417779e+03 +2.3532282012843285e+05 +7.9074169175418895e+06 
+8.1999999999999869e+00 -1.0302377807811292e+00 +2.3013694724032621e+00 +2.0011269756994004e+01 +7.2911086744976828e+01 +3.7770258480859447e+03 +2.3552493227866307e+05 +7.9135985588007635e+06 
+8.2999999999999865e+00 -1.0302379710460776e+00 +2.3013676421458387e+00 +2.0011284647686654e+01 +7.2864900324971458e+01 +3.7754834144681458e+03 +2.3577347793504392e+05 +7.9237394588648863e+06 
+8.3999999999999861e+00 -1.0302381637511624e+00 +2.3013658647404829e+00 +2.0011334006570763e+01 +7.2814514954787114e+01 +3.7733258017646099e+03 +2.3605028475608857e+05 +7.9366937519071987e+06 
+8.4999999999999858e+00 -1.0302383589533526e+00 +2.3013640494687793e+00 +2.0011410249126062e+01 +7.2762891838788704e+01 +3.7707524038664824e+03 +2.3633718295432109e+05 +7.9513141254069684e+06 
+8.5999999999999854e+00 -1.0302385567094745e+00 +2.3013621056072386e+00 +2.0011505771221596e+01 +7.2712992213801456e+01 +3.7679630182459887e+03 +2.3661600329940149e+05 +7.9664512257166430e+06 
+8.6999999999999851e+00 -1.0302387570763292e+00 +2.3013599424461519e+00 +2.0011612962994157e+01 +7.2667776776514799e+01 +3.7651575776897839e+03 +2.3686858052408439e+05 +7.9809549511545785e+06 
+8.7999999999999847e+00 -1.0302389601105981e+00 +2.3013574692791448e+00 +2.0011724197807638e+01 +7.2630206008785436e+01 +3.7625363662464883e+03 +2.3707675138894518e+05 +7.9936733997104624e+06 
+8.8999999999999844e+00 -1.0302391658688701e+00 +2.3013545953981689e+00 +2.0011831834698580e+01 +7.2603240301523201e+01 +3.7602999744680951e+03 +2.3722235403391073e+05 +8.0034530805653613e+06 
+8.9999999999999840e+00 -1.0302393744076475e+00 +2.3013512301163894e+00 +2.0011928220313919e+01 +7.2589839163557599e+01 +3.7586492383855107e+03 +2.3728723322715005e+05 +8.0091393085570168e+06 
+9.0999999999999837e+00 -1.0302395857490814e+00 +2.3013473156658368e+00 +2.0012007299879599e+01 +7.2591887555907078e+01 +3.7577189329606431e+03 +2.3725995633289363e+05 +8.0100179081361666e+06 
+9.1999999999999833e+00 -1.0302397997892332e+00 +2.3013429114217421e+00 +2.0012067580933358e+01 +7.2607483105286136e+01 +3.7574585087162973e+03 +2.3715232393927270e+05 +8.0066080787407653e+06 
+9.2999999999999829e+00 -1.0302400163956733e+00 +2.3013381033697873e+00 +2.0012108367503444e+01 +7.2633862675049912e+01 +3.7577873938249586e+03 +2.3698132159225646e+05 +7.9996283188969744e+06 
+9.3999999999999826e+00 -1.0302402354360349e+00 +2.3013329774757563e+00 +2.0012128973462822e+01 +7.2668263833718115e+01 +3.7586248003611881e+03 +2.3676392967925619e+05 +7.9897982766391383e+06 
+9.4999999999999822e+00 -1.0302404567780288e+00 +2.3013276197170085e+00 +2.0012128724392504e+01 +7.2707923970400529e+01 +3.7598896931911145e+03 +2.3651712857189638e+05 +7.9778388742187740e+06 
+9.5999999999999819e+00 -1.0302406802894586e+00 +2.3013221160710904e+00 +2.0012106959095881e+01 +7.2750080657409768e+01 +3.7615007601096927e+03 +2.3625789641887945e+05 +7.9644724542304417e+06 
+9.6999999999999815e+00 -1.0302409058382243e+00 +2.3013165525011745e+00 +2.0012063031920455e+01 +7.2791972034612584e+01 +3.7633763532026187e+03 +2.3600320701004978e+05 +7.9504231002390590e+06 
+9.7999999999999812e+00 -1.0302411332923118e+00 +2.3013110149813194e+00 +2.0011996308888346e+01 +7.2830836111431822e+01 +3.7654345813014979e+03 +2.3577003370746912e+05 +7.9364161470941473e+06 
+9.8999999999999808e+00 -1.0302413625197875e+00 +2.3013055894694880e+00 +2.0011906168957108e+01 +7.2863911554954811e+01 +3.7675932705046162e+03 +2.3557534483885876e+05 +7.9231784105803557e+06 
+9.9999999999999805e+00 -1.0302415933888167e+00 +2.3013003619313475e+00 +2.0011792005362242e+01 +7.2888437172409283e+01 +3.7697699700802286e+03 +2.3543610569550251e+05 +7.9114380085546272e+06 
+1.0099999999999980e+01 -1.0302418258178003e+00 +2.3012953945636361e+00 +2.0011654176497334e+01 +7.2902503756260529e+01 +3.7719048322931326e+03 +2.3536362762165023e+05 +7.9016591706195520e+06 
