# field on trajectory
# s[mm] rx[mm] ry[mm] rz[mm] bx[T] by[T] bz[T]
0.0000000000000000e+00 +9.1388999999999996e+00 +0.0000000000000000e+00 +0.0000000000000000e+00 +1.1490170999570067e-02 -1.0321304284853232e+00 -5.8834004851864505e-02
-1.0000000000000001e-01 +9.1388994842920113e+00 +0.0000000000000000e+00 -9.9999999998226952e-02 +1.1490106760902688e-02 -1.0321290918721491e+00 -5.8835774931459785e-02
-2.0000000000000001e-01 +9.1388979371689327e+00 +0.0000000000000000e+00 -1.9999999998581575e-01 +1.1490042699394734e-02 -1.0321277873400647e+00 -5.8837569515069937e-02
-3.0000000000000004e-01 +9.1388953586320678e+00 +0.0000000000000000e+00 -2.9999999995212823e-01 +1.1489978720797274e-02 -1.0321265151472168e+00 -5.8839388039405305e-02
-4.0000000000000002e-01 +9.1388917486826866e+00 +0.0000000000000000e+00 -3.9999999988652629e-01 +1.1489914730856437e-02 -1.0321252755516961e+00 -5.8841229941138218e-02
-5.0000000000000000e-01 +9.1388871073220290e+00 +0.0000000000000000e+00 -4.9999999977837190e-01 +1.1489850635313187e-02 -1.0321240688115396e+00 -5.8843094656905515e-02
-5.9999999999999998e-01 +9.1388814345513030e+00 +0.0000000000000000e+00 -5.9999999961702699e-01 +1.1489786339903161e-02 -1.0321228951847392e+00 -5.8844981623311240e-02
-6.9999999999999996e-01 +9.1388747303716791e+00 +0.0000000000000000e+00 -6.9999999939185364e-01 +1.1489721750356429e-02 -1.0321217549292474e+00 -5.8846890276929464e-02
-7.9999999999999993e-01 +9.1388669947842995e+00 +0.0000000000000000e+00 -7.9999999909221386e-01 +1.1489656772397315e-02 -1.0321206483029792e+00 -5.8848820054306770e-02
-8.9999999999999991e-01 +9.1388582277902710e+00 +0.0000000000000000e+00 -8.9999999870746972e-01 +1.1489591311744195e-02 -1.0321195755638219e+00 -5.8850770391965006e-02
-9.9999999999999989e-01 +9.1388484293906647e+00 +0.0000000000000000e+00 -9.9999999822698327e-01 +1.1489525274109277e-02 -1.0321185369696373e+00 -5.8852740726403979e-02
-1.0999999999999999e+00 +9.1388375995865214e+00 +0.0000000000000000e+00 -1.0999999976401167e+00 +1.1489458565198415e-02 -1.0321175327782688e+00 -5.8854730494104147e-02
-1.2000000000000000e+00 +9.1388257383788449e+00 +0.0000000000000000e+00 -1.1999999969362323e+00 +1.1489391090710914e-02 -1.0321165632475473e+00 -5.8856739131529140e-02
-1.3000000000000000e+00 +9.1388128457686051e+00 +0.0000000000000000e+00 -1.2999999961046920e+00 +1.1489322756339295e-02 -1.0321156286352935e+00 -5.8858766075128625e-02
-1.4000000000000001e+00 +9.1387989217567380e+00 +0.0000000000000000e+00 -1.3999999951348583e+00 +1.1489253467769130e-02 -1.0321147291993285e+00 -5.8860810761340886e-02
-1.5000000000000002e+00 +9.1387839663441426e+00 +0.0000000000000000e+00 -1.4999999940160933e+00 +1.1489183130678818e-02 -1.0321138651974731e+00 -5.8862872626595453e-02
-1.6000000000000003e+00 +9.1387679795316856e+00 +0.0000000000000000e+00 -1.5999999927377591e+00 +1.1489111729569779e-02 -1.0321130360124302e+00 -5.8864951155948725e-02
-1.7000000000000004e+00 +9.1387509613201967e+00 +0.0000000000000000e+00 -1.6999999912892183e+00 +1.1489039564263972e-02 -1.0321122375265168e+00 -5.8867046028987929e-02
-1.8000000000000005e+00 +9.1387329117104770e+00 +0.0000000000000000e+00 -1.7999999896598329e+00 +1.1488967013425212e-02 -1.0321114647472942e+00 -5.8869156973941142e-02
-1.9000000000000006e+00 +9.1387138307032991e+00 +0.0000000000000000e+00 -1.8999999878389655e+00 +1.1488894455733029e-02 -1.0321107126827864e+00 -5.8871283719049192e-02
-2.0000000000000004e+00 +9.1386937182994181e+00 +0.0000000000000000e+00 -1.9999999858159783e+00 +1.1488822269885401e-02 -1.0321099763415389e+00 -5.8873425992569547e-02
-2.1000000000000005e+00 +9.1386725744995729e+00 +0.0000000000000000e+00 -2.0999999835802337e+00 +1.1488750834601521e-02 -1.0321092507326797e+00 -5.8875583522780404e-02
-2.2000000000000006e+00 +9.1386503993044901e+00 +0.0000000000000000e+00 -2.1999999811210942e+00 +1.1488680528624548e-02 -1.0321085308659788e+00 -5.8877756037984667e-02
-2.3000000000000007e+00 +9.1386271927148925e+00 +0.0000000000000000e+00 -2.2999999784279219e+00 +1.1488611730724373e-02 -1.0321078117519080e+00 -5.8879943266513995e-02
-2.4000000000000008e+00 +9.1386029547315033e+00 +0.0000000000000000e+00 -2.3999999754900796e+00 +1.1488544819700372e-02 -1.0321070884017016e+00 -5.8882144936732717e-02
-2.5000000000000009e+00 +9.1385776853550453e+00 +0.0000000000000000e+00 -2.4999999722969295e+00 +1.1488480174384162e-02 -1.0321063558274162e+00 -5.8884360777041976e-02
-2.6000000000000010e+00 +9.1385513845862558e+00 +0.0000000000000000e+00 -2.5999999688378339e+00 +1.1488418173642358e-02 -1.0321056090419911e+00 -5.8886590515883609e-02
-2.7000000000000011e+00 +9.1385240524258826e+00 +0.0000000000000000e+00 -2.6999999651021556e+00 +1.1488359196379343e-02 -1.0321048430593087e+00 -5.8888833881744256e-02
-2.8000000000000012e+00 +9.1384956888746967e+00 +0.0000000000000000e+00 -2.7999999610792572e+00 +1.1488303621540019e-02 -1.0321040528942531e+00 -5.8891090603159259e-02
-2.9000000000000012e+00 +9.1384662939334902e+00 +0.0000000000000000e+00 -2.8999999567585011e+00 +1.1488251828112552e-02 -1.0321032335627720e+00 -5.8893360408716747e-02
-3.0000000000000013e+00 +9.1384358676030839e+00 +0.0000000000000000e+00 -2.9999999521292500e+00 +1.1488204195131172e-02 -1.0321023800819358e+00 -5.8895643027061705e-02
-3.1000000000000014e+00 +9.1384044098843358e+00 +0.0000000000000000e+00 -3.0999999471808661e+00 +1.1488161101678863e-02 -1.0321014874699974e+00 -5.8897938186899708e-02
-3.2000000000000015e+00 +9.1383719207781411e+00 +0.0000000000000000e+00 -3.1999999419027128e+00 +1.1488122926890205e-02 -1.0321005507464545e+00 -5.8900245617001336e-02
-3.3000000000000016e+00 +9.1383384002854413e+00 +0.0000000000000000e+00 -3.2999999362841521e+00 +1.1488090049954073e-02 -1.0320995649321065e+00 -5.8902565046205772e-02
-3.4000000000000017e+00 +9.1383038484072241e+00 +0.0000000000000000e+00 -3.3999999303145474e+00 +1.1488062850116425e-02 -1.0320985250491173e+00 -5.8904896203425122e-02
-3.5000000000000018e+00 +9.1382682651445322e+00 +0.0000000000000000e+00 -3.4999999239832609e+00 +1.1488041706683043e-02 -1.0320974261210742e+00 -5.8907238817648207e-02
-3.6000000000000019e+00 +9.1382316504984686e+00 +0.0000000000000000e+00 -3.5999999172796557e+00 +1.1488026813985240e-02 -1.0320962642240656e+00 -5.8909592441767772e-02
-3.7000000000000020e+00 +9.1381940044701988e+00 +0.0000000000000000e+00 -3.6999999101930952e+00 +1.1488017626230754e-02 -1.0320950396392616e+00 -5.8911955924033824e-02
-3.8000000000000020e+00 +9.1381553270609501e+00 +0.0000000000000000e+00 -3.7999999027129419e+00 +1.1488013412546719e-02 -1.0320937536989108e+00 -5.8914327936555114e-02
-3.9000000000000021e+00 +9.1381156182720105e+00 +0.0000000000000000e+00 -3.8999998948285586e+00 +1.1488013442003028e-02 -1.0320924077351403e+00 -5.8916707151472840e-02
-4.0000000000000018e+00 +9.1380748781047298e+00 +0.0000000000000000e+00 -3.9999998865293089e+00 +1.1488016983607057e-02 -1.0320910030799013e+00 -5.8919092240960688e-02
-4.1000000000000014e+00 +9.1380331065605169e+00 +0.0000000000000000e+00 -4.0999998778045557e+00 +1.1488023306298414e-02 -1.0320895410649182e+00 -5.8921481877225200e-02
-4.2000000000000011e+00 +9.1379903036408354e+00 +0.0000000000000000e+00 -4.1999998686436619e+00 +1.1488031678943710e-02 -1.0320880230216378e+00 -5.8923874732505925e-02
-4.3000000000000007e+00 +9.1379464693472077e+00 +0.0000000000000000e+00 -4.2999998590359914e+00 +1.1488041370331268e-02 -1.0320864502811768e+00 -5.8926269479075713e-02
-4.4000000000000004e+00 +9.1379016036812111e+00 +0.0000000000000000e+00 -4.3999998489709080e+00 +1.1488051649165927e-02 -1.0320848241742699e+00 -5.8928664789240810e-02
-4.5000000000000000e+00 +9.1378557066444728e+00 +0.0000000000000000e+00 -4.4999998384377742e+00 +1.1488061784063744e-02 -1.0320831460312203e+00 -5.8931059335341242e-02
-4.5999999999999996e+00 +9.1378087782386768e+00 +0.0000000000000000e+00 -4.5999998274259539e+00 +1.1488071043546757e-02 -1.0320814171818453e+00 -5.8933451789750950e-02
-4.6999999999999993e+00 +9.1377608184655550e+00 +0.0000000000000000e+00 -4.6999998159248113e+00 +1.1488078696037735e-02 -1.0320796389554268e+00 -5.8935840824878016e-02
-4.7999999999999989e+00 +9.1377118273268891e+00 +0.0000000000000000e+00 -4.7999998039237095e+00 +1.1488084009854934e-02 -1.0320778126806587e+00 -5.8938225113164912e-02
-4.8999999999999986e+00 +9.1376618048245088e+00 +0.0000000000000000e+00 -4.8999997914120117e+00 +1.1488086253206841e-02 -1.0320759396855963e+00 -5.8940603327088788e-02
-4.9999999999999982e+00 +9.1376107509602917e+00 +0.0000000000000000e+00 -4.9999997783790828e+00 +1.1488084694186896e-02 -1.0320740212976045e+00 -5.8942974139161546e-02
-5.0999999999999979e+00 +9.1375586657361598e+00 +0.0000000000000000e+00 -5.0999997648142861e+00 +1.1488078600768285e-02 -1.0320720588433037e+00 -5.8945336221930232e-02
-5.1999999999999975e+00 +9.1375055491540795e+00 +0.0000000000000000e+00 -5.1999997507069855e+00 +1.1488067240798653e-02 -1.0320700536485234e+00 -5.8947688247977144e-02
-5.2999999999999972e+00 +9.1374514012160599e+00 +0.0000000000000000e+00 -5.2999997360465452e+00 +1.1488049881994861e-02 -1.0320680070382457e+00 -5.8950028889920118e-02
-5.3999999999999968e+00 +9.1373962219241527e+00 +0.0000000000000000e+00 -5.3999997208223292e+00 +1.1488025791937735e-02 -1.0320659203365568e+00 -5.8952356820412742e-02
-5.4999999999999964e+00 +9.1373400112804486e+00 +0.0000000000000000e+00 -5.4999997050237024e+00 +1.1487994238066811e-02 -1.0320637948665934e+00 -5.8954670712144594e-02
-5.5999999999999961e+00 +9.1372827692870775e+00 +0.0000000000000000e+00 -5.5999996886400289e+00 +1.1487954726366174e-02 -1.0320616323197884e+00 -5.8956969369724797e-02
-5.6999999999999957e+00 +9.1372244959462066e+00 +0.0000000000000000e+00 -5.6999996716606729e+00 +1.1487907717512853e-02 -1.0320594358634259e+00 -5.8959252125317267e-02
-5.7999999999999954e+00 +9.1371651912600349e+00 +0.0000000000000000e+00 -5.7999996540749992e+00 +1.1487853910924082e-02 -1.0320572090321636e+00 -5.8961518442952193e-02
-5.8999999999999950e+00 +9.1371048552307954e+00 +0.0000000000000000e+00 -5.8999996358723719e+00 +1.1487794006083791e-02 -1.0320549553585723e+00 -5.8963767786633300e-02
-5.9999999999999947e+00 +9.1370434878607458e+00 +0.0000000000000000e+00 -5.9999996170421568e+00 +1.1487728702546857e-02 -1.0320526783730417e+00 -5.8965999620335323e-02
-6.0999999999999943e+00 +9.1369810891521688e+00 +0.0000000000000000e+00 -6.0999995975737171e+00 +1.1487658699943426e-02 -1.0320503816036912e+00 -5.8968213408001534e-02
-6.1999999999999940e+00 +9.1369176591073646e+00 +0.0000000000000000e+00 -6.1999995774564187e+00 +1.1487584697983211e-02 -1.0320480685762814e+00 -5.8970408613541574e-02
-6.2999999999999936e+00 +9.1368531977286516e+00 +0.0000000000000000e+00 -6.2999995566796265e+00 +1.1487507396459757e-02 -1.0320457428141194e+00 -5.8972584700828792e-02
-6.3999999999999932e+00 +9.1367877050183601e+00 +0.0000000000000000e+00 -6.3999995352327055e+00 +1.1487427495254754e-02 -1.0320434078379717e+00 -5.8974741133697987e-02
-6.4999999999999929e+00 +9.1367211809788316e+00 +0.0000000000000000e+00 -6.4999995131050206e+00 +1.1487345694342330e-02 -1.0320410671659721e+00 -5.8976877375943003e-02
-6.5999999999999925e+00 +9.1366536256124107e+00 +0.0000000000000000e+00 -6.5999994902859376e+00 +1.1487262693793330e-02 -1.0320387243135316e+00 -5.8978992891314232e-02
-6.6999999999999922e+00 +9.1365850389214458e+00 +0.0000000000000000e+00 -6.6999994667648206e+00 +1.1487179193779631e-02 -1.0320363827932473e+00 -5.8981087143516325e-02
-6.7999999999999918e+00 +9.1365154209082835e+00 +0.0000000000000000e+00 -6.7999994425310355e+00 +1.1487095894578412e-02 -1.0320340461148121e+00 -5.8983159596205786e-02
-6.8999999999999915e+00 +9.1364447715752650e+00 +0.0000000000000000e+00 -6.8999994175739481e+00 +1.1487013496576472e-02 -1.0320317177849241e+00 -5.8985209712988526e-02
-6.9999999999999911e+00 +9.1363730909247263e+00 +0.0000000000000000e+00 -6.9999993918829233e+00 +1.1486932700274509e-02 -1.0320294013071962e+00 -5.8987236957417429e-02
-7.0999999999999908e+00 +9.1363003789589889e+00 +0.0000000000000000e+00 -7.0999993654473270e+00 +1.1486854206291409e-02 -1.0320271001820642e+00 -5.8989240792990130e-02
-7.1999999999999904e+00 +9.1362266356803588e+00 +0.0000000000000000e+00 -7.1999993382565242e+00 +1.1486778715368580e-02 -1.0320248179066986e+00 -5.8991220683146446e-02
-7.2999999999999901e+00 +9.1361518610911254e+00 +0.0000000000000000e+00 -7.2999993102998815e+00 +1.1486706928374182e-02 -1.0320225579749114e+00 -5.8993176091266072e-02
-7.3999999999999897e+00 +9.1360760551935538e+00 +0.0000000000000000e+00 -7.3999992815667639e+00 +1.1486639546307485e-02 -1.0320203238770667e+00 -5.8995106480666207e-02
-7.4999999999999893e+00 +9.1359992179898857e+00 +0.0000000000000000e+00 -7.4999992520465373e+00 +1.1486577270303135e-02 -1.0320181190999902e+00 -5.8997011314599106e-02
-7.5999999999999890e+00 +9.1359213494823308e+00 +0.0000000000000000e+00 -7.5999992217285675e+00 +1.1486520639862108e-02 -1.0320159464761616e+00 -5.8998890107521372e-02
-7.6999999999999886e+00 +9.1358424496730688e+00 +0.0000000000000000e+00 -7.6999991906022203e+00 +1.1486469547430694e-02 -1.0320138062328736e+00 -5.9000742578938739e-02
-7.7999999999999883e+00 +9.1357625185642473e+00 +0.0000000000000000e+00 -7.7999991586568616e+00 +1.1486423723569129e-02 -1.0320116979469218e+00 -5.9002568499636178e-02
-7.8999999999999879e+00 +9.1356815561579818e+00 +0.0000000000000000e+00 -7.8999991258818572e+00 +1.1486382898705334e-02 -1.0320096211957592e+00 -5.9004367640411046e-02
-7.9999999999999876e+00 +9.1355995624563562e+00 +0.0000000000000000e+00 -7.9999990922665729e+00 +1.1486346803130270e-02 -1.0320075755575466e+00 -5.9006139772073508e-02
-8.0999999999999872e+00 +9.1355165374614238e+00 +0.0000000000000000e+00 -8.0999990578003747e+00 +1.1486315166993328e-02 -1.0320055606112066e+00 -5.9007884665446694e-02
-8.1999999999999869e+00 +9.1354324811752061e+00 +0.0000000000000000e+00 -8.1999990224726282e+00 +1.1486287720297679e-02 -1.0320035759364738e+00 -5.9009602091367172e-02
-8.2999999999999865e+00 +9.1353473935996963e+00 +0.0000000000000000e+00 -8.2999989862727013e+00 +1.1486264192895669e-02 -1.0320016211139467e+00 -5.9011291820685124e-02
-8.3999999999999861e+00 +9.1352612747368571e+00 +0.0000000000000000e+00 -8.3999989491899587e+00 +1.1486244314484185e-02 -1.0319996957251409e+00 -5.9012953624264765e-02
-8.4999999999999858e+00 +9.1351741245886195e+00 +0.0000000000000000e+00 -8.4999989112137673e+00 +1.1486227814600004e-02 -1.0319977993525400e+00 -5.9014587272984607e-02
-8.5999999999999854e+00 +9.1350859431568896e+00 +0.0000000000000000e+00 -8.5999988723334919e+00 +1.1486214422615194e-02 -1.0319959315796481e+00 -5.9016192537737787e-02
-8.6999999999999851e+00 +9.1349967304435431e+00 +0.0000000000000000e+00 -8.6999988325384994e+00 +1.1486203867732447e-02 -1.0319940919910406e+00 -5.9017769189432349e-02
-8.7999999999999847e+00 +9.1349064864504292e+00 +0.0000000000000000e+00 -8.7999987918181564e+00 +1.1486195878980471e-02 -1.0319922801724195e+00 -5.9019316998991662e-02
-8.8999999999999844e+00 +9.1348152111793670e+00 +0.0000000000000000e+00 -8.8999987501618296e+00 +1.1486190185209329e-02 -1.0319904957106594e+00 -5.9020835737354595e-02
-8.9999999999999840e+00 +9.1347229046321488e+00 +0.0000000000000000e+00 -8.9999987075588841e+00 +1.1486186515085839e-02 -1.0319887381938662e+00 -5.9022325175475975e-02
-9.0999999999999837e+00 +9.1346295668105419e+00 +0.0000000000000000e+00 -9.0999986639986865e+00 +1.1486184597088882e-02 -1.0319870072114234e+00 -5.9023785084326763e-02
-9.1999999999999833e+00 +9.1345351977162839e+00 +0.0000000000000000e+00 -9.1999986194706036e+00 +1.1486184159504817e-02 -1.0319853023540486e+00 -5.9025215234894492e-02
-9.2999999999999829e+00 +9.1344397973510905e+00 +0.0000000000000000e+00 -9.2999985739640021e+00 +1.1486184930422803e-02 -1.0319836232138428e+00 -5.9026615398183511e-02
-9.3999999999999826e+00 +9.1343433657166493e+00 +0.0000000000000000e+00 -9.3999985274682469e+00 +1.1486186637730171e-02 -1.0319819693843422e+00 -5.9027985345215313e-02
-9.4999999999999822e+00 +9.1342459028146230e+00 +0.0000000000000000e+00 -9.4999984799727066e+00 +1.1486189009107762e-02 -1.0319803404605710e+00 -5.9029324847028893e-02
-9.5999999999999819e+00 +9.1341474086466512e+00 +0.0000000000000000e+00 -9.5999984314667461e+00 +1.1486191844737093e-02 -1.0319787365447175e+00 -5.9030633727460084e-02
-9.6999999999999815e+00 +9.1340478832143450e+00 +0.0000000000000000e+00 -9.6999983819397322e+00 +1.1486195235619027e-02 -1.0319771597625553e+00 -5.9031912021475376e-02
-9.7999999999999812e+00 +9.1339473265192925e+00 +0.0000000000000000e+00 -9.7999983313810315e+00 +1.1486199345739358e-02 -1.0319756127455213e+00 -5.9033159816806562e-02
-9.8999999999999808e+00 +9.1338457385630480e+00 +0.0000000000000000e+00 -9.8999982797800108e+00 +1.1486204339402381e-02 -1.0319740981249064e+00 -5.9034377201162724e-02
-9.9999999999999805e+00 +9.1337431193471375e+00 +0.0000000000000000e+00 -9.9999982271260368e+00 +1.1486210381239897e-02 -1.0319726185318616e+00 -5.9035564262229674e-02
-1.0099999999999980e+01 +9.1336394688730493e+00 +0.0000000000000000e+00 -1.0099998173408476e+01 +1.1486217636220217e-02 -1.0319711765974033e+00 -5.9036721087669143e-02
-1.0199999999999980e+01 +9.1335347871422350e+00 +0.0000000000000000e+00 -1.0199998118616694e+01 +1.1486226269657143e-02 -1.0319697749524201e+00 -5.9037847765118064e-02
-1.0299999999999979e+01 +9.1334290741561066e+00 +0.0000000000000000e+00 -1.0299998062740059e+01 +1.1486236447218962e-02 -1.0319684162276750e+00 -5.9038944382187958e-02
-1.0399999999999979e+01 +9.1333223299160320e+00 +0.0000000000000000e+00 -1.0399998005767936e+01 +1.1486248334937447e-02 -1.0319671030538171e+00 -5.9040011026464140e-02
-1.0499999999999979e+01 +9.1332145544233363e+00 +0.0000000000000000e+00 -1.0499997947689691e+01 +1.1486262099216859e-02 -1.0319658380613808e+00 -5.9041047785505098e-02
-1.0599999999999978e+01 +9.1331057476792932e+00 +0.0000000000000000e+00 -1.0599997888494693e+01 +1.1486277906842934e-02 -1.0319646238807960e+00 -5.9042054746841696e-02
-1.0699999999999978e+01 +9.1329959096851283e+00 +0.0000000000000000e+00 -1.0699997828172307e+01 +1.1486295924991901e-02 -1.0319634631423908e+00 -5.9043031997976531e-02
-1.0799999999999978e+01 +9.1328850404420123e+00 +0.0000000000000000e+00 -1.0799997766711900e+01 +1.1486316321239471e-02 -1.0319623584763997e+00 -5.9043979626383240e-02
-1.0899999999999977e+01 +9.1327731399510625e+00 +0.0000000000000000e+00 -1.0899997704102839e+01 +1.1486339263569859e-02 -1.0319613125129665e+00 -5.9044897719505753e-02
-1.0999999999999977e+01 +9.1326602082133341e+00 +0.0000000000000000e+00 -1.0999997640334488e+01 +1.1486364920384764e-02 -1.0319603278821530e+00 -5.9045786364757581e-02
-1.1099999999999977e+01 +9.1325462452298236e+00 +0.0000000000000000e+00 -1.1099997575396216e+01 +1.1486393460512410e-02 -1.0319594072139404e+00 -5.9046645649521202e-02
-1.1199999999999976e+01 +9.1324312510014618e+00 +0.0000000000000000e+00 -1.1199997509277388e+01 +1.1486425053216532e-02 -1.0319585531382389e+00 -5.9047475661147285e-02
-1.1299999999999976e+01 +9.1323152255291156e+00 +0.0000000000000000e+00 -1.1299997441967371e+01 +1.1486459868205406e-02 -1.0319577682848913e+00 -5.9048276486953995e-02
-1.1399999999999975e+01 +9.1321981688135807e+00 +0.0000000000000000e+00 -1.1399997373455530e+01 +1.1486498075640846e-02 -1.0319570552836790e+00 -5.9049048214226352e-02
-1.1499999999999975e+01 +9.1320800808555820e+00 +0.0000000000000000e+00 -1.1499997303731234e+01 +1.1486539846147220e-02 -1.0319564167643269e+00 -5.9049790930215458e-02
-1.1599999999999975e+01 +9.1319609616557695e+00 +0.0000000000000000e+00 -1.1599997232783847e+01 +1.1486585230701766e-02 -1.0319558553634494e+00 -5.9050504776288378e-02
-1.1699999999999974e+01 +9.1318408112147171e+00 +0.0000000000000000e+00 -1.1699997160602736e+01 +1.1486633799951681e-02 -1.0319553737461342e+00 -5.9051190110409817e-02
