# multipoles
# s[mm] polynom_b[n=0][T/m^n] polynom_b[n=1][T/m^n] polynom_b[n=2][T/m^n] polynom_b[n=3][T/m^n] polynom_b[n=4][T/m^n] polynom_b[n=5][T/m^n] polynom_b[n=6][T/m^n] 
+0.0000000000000000e+00 -1.0310205693433203e+00 +2.2697301163828247e+00 +8.9088294573533240e+00 +3.3350602107932440e+02 +1.2469850876865238e+05 -7.4311001505991246e+05 -3.4572711493697327e+08 
-1.0000000000000001e-01 -1.0310238431873124e+00 +2.2693414165610815e+00 +8.7809900147466209e+00 +3.4855884011185640e+02 +1.2746563037270462e+05 -8.2538344491703250e+05 -3.5908985510698652e+08 
-2.0000000000000001e-01 -1.0310271221858776e+00 +2.2689724109918918e+00 +8.6509832189691735e+00 +3.6347566399443923e+02 +1.3032479234516036e+05 -9.0743363852650532e+05 -3.7299027020041418e+08 
-3.0000000000000004e-01 -1.0310304023973196e+00 +2.2686220032776969e+00 +8.5191808681373722e+00 +3.7821385683000221e+02 +1.3326377234198220e+05 -9.8884620371666935e+05 -3.8735666882517594e+08 
-4.0000000000000002e-01 -1.0310336798801163e+00 +2.2682890970114014e+00 +8.3859547771153817e+00 +3.9273078208597582e+02 +1.3627034768021980e+05 -1.0692067410892611e+06 -4.0211735784795153e+08 
-5.0000000000000000e-01 -1.0310369506929151e+00 +2.2679725957972319e+00 +8.2516767808143285e+00 +4.0698380210106870e+02 +1.3933229525424610e+05 -1.1481008417138648e+06 -4.1720064196691698e+08 
-5.9999999999999998e-01 -1.0310402108945684e+00 +2.2676714032526379e+00 +8.1167187431433874e+00 +4.2093027813936823e+02 +1.4243739133384585e+05 -1.2251140879867447e+06 -4.3253482269273871e+08 
-6.9999999999999996e-01 -1.0310434565441517e+00 +2.2673844230167259e+00 +7.9814525639596505e+00 +4.3452757028074637e+02 +1.4557341140655050e+05 -1.2998320536346913e+06 -4.4804819755783552e+08 
-7.9999999999999993e-01 -1.0310466837009997e+00 +2.2671105587460896e+00 +7.8462501880090025e+00 +4.4773303764243479e+02 +1.4872812997552831e+05 -1.3718403055142830e+06 -4.6366905909273744e+08 
-8.9999999999999991e-01 -1.0310498884246679e+00 +2.2668487141413256e+00 +7.7114836042987509e+00 +4.6050403775140330e+02 +1.5188932054783270e+05 -1.4407244006169734e+06 -4.7932569473660862e+08 
-9.9999999999999989e-01 -1.0310530667750268e+00 +2.2665977929325565e+00 +7.5775248629762348e+00 +4.7279792705567701e+02 +1.5504475528175343e+05 -1.5060698895343011e+06 -4.9494638509915406e+08 
-1.0999999999999999e+00 -1.0310562148122280e+00 +2.2663566988995343e+00 +7.4447460748682035e+00 +4.8457206048304118e+02 +1.5818220496820123e+05 -1.5674623145477504e+06 -5.1045940382579106e+08 
-1.2000000000000000e+00 -1.0310593285967771e+00 +2.2661243358707921e+00 +7.3135194255649960e+00 +4.9578379156907209e+02 +1.6128943873483248e+05 -1.6244872109018527e+06 -5.2579301614066386e+08 
-1.3000000000000000e+00 -1.0310624041894350e+00 +2.2658996077345046e+00 +7.1842171673343795e+00 +5.0639047226901835e+02 +1.6435422417379892e+05 -1.6767301063105280e+06 -5.4087547941495550e+08 
-1.4000000000000001e+00 -1.0310654376514181e+00 +2.2656814184408915e+00 +7.0572116488002612e+00 +5.1634945299529318e+02 +1.6736432674312469e+05 -1.7237765217290199e+06 -5.5563504024745905e+08 
-1.5000000000000002e+00 -1.0310684250442457e+00 +2.2654686720146193e+00 +6.9328752999574634e+00 +5.2561808242212066e+02 +1.7030751003490062e+05 -1.7652119709574867e+06 -5.6999993573521149e+08 
-1.6000000000000003e+00 -1.0310713631890345e+00 +2.2652604850815012e+00 +6.8114967652036418e+00 +5.3416756420850641e+02 +1.7317428534060277e+05 -1.8007565783044186e+06 -5.8391501662906873e+08 
-1.7000000000000004e+00 -1.0310742518710512e+00 +2.2650569189470748e+00 +6.6930147111096927e+00 +5.4202121443139640e+02 +1.7596612261594285e+05 -1.8306469280279235e+06 -5.9739021931817448e+08 
-1.8000000000000005e+00 -1.0310770915981151e+00 +2.2648582942158111e+00 +6.5772765322968647e+00 +5.4921459120960617e+02 +1.7868722623783021e+05 -1.8552435559120313e+06 -6.1045142921703768e+08 
-1.9000000000000006e+00 -1.0310798828780852e+00 +2.2646649314851186e+00 +6.4641296267645041e+00 +5.5578325298364962e+02 +1.8134180057197559e+05 -1.8749070002860874e+06 -6.2312453186660588e+08 
-2.0000000000000004e+00 -1.0310826262188615e+00 +2.2644771513367741e+00 +6.3534213920810512e+00 +5.6176275883234382e+02 +1.8393405008074720e+05 -1.8899978040201890e+06 -6.3543541353288901e+08 
-2.1000000000000005e+00 -1.0310853221282699e+00 +2.2642952743371394e+00 +6.2449992073794220e+00 +5.6718866845135108e+02 +1.8646817970218591e+05 -1.9008765143004037e+06 -6.4740996309820986e+08 
-2.2000000000000006e+00 -1.0310879711141956e+00 +2.2641196210280747e+00 +6.1387104473686920e+00 +5.7209654246336981e+02 +1.8894839460888202e+05 -1.9079036845121835e+06 -6.5907407097342646e+08 
-2.3000000000000007e+00 -1.0310905736843456e+00 +2.2639505119173289e+00 +6.0344024479860057e+00 +5.7652194272529823e+02 +1.9137890090543582e+05 -1.9114398760664721e+06 -6.7045363252404881e+08 
-2.4000000000000008e+00 -1.0310931303463930e+00 +2.2637882674788670e+00 +5.9319225218456797e+00 +5.8050043233730582e+02 +1.9376390536052635e+05 -1.9118456584440363e+06 -6.8157454685810125e+08 
-2.5000000000000009e+00 -1.0310956416078536e+00 +2.2636332081407011e+00 +5.8311179391133168e+00 +5.8406757603164056e+02 +1.9610761580596174e+05 -1.9094816115108626e+06 -6.9246271880683696e+08 
-2.6000000000000010e+00 -1.0310981079760695e+00 +2.2634856542781931e+00 +5.7318359218366703e+00 +5.8725894037833200e+02 +1.9841424127921756e+05 -1.9047083266997475e+06 -7.0314405968734491e+08 
-2.7000000000000011e+00 -1.0311005299581910e+00 +2.2633459262133098e+00 +5.6339236383618791e+00 +5.9011009386544117e+02 +2.0068799216216910e+05 -1.8978864075963965e+06 -7.1364448804153454e+08 
-2.8000000000000012e+00 -1.0311029080611678e+00 +2.2632143442057902e+00 +5.5372281983374601e+00 +5.9265660715374042e+02 +2.0293308031068303e+05 -1.8893764713515243e+06 -7.2398993033400857e+08 
-2.9000000000000012e+00 -1.0311052427916292e+00 +2.2630912284446447e+00 +5.4415966355198231e+00 +5.9493405335082252e+02 +2.0515371941076173e+05 -1.8795391503153548e+06 -7.3420632271784008e+08 
-3.0000000000000013e+00 -1.0311075346559844e+00 +2.2629768990435295e+00 +5.3468759148691127e+00 +5.9697800819805082e+02 +2.0735412488587567e+05 -1.8687350932231080e+06 -7.4431961069400859e+08 
-3.1000000000000014e+00 -1.0311097841602828e+00 +2.2628716760328542e+00 +5.2529129132962211e+00 +5.9882405030072971e+02 +2.0953851428587173e+05 -1.8573249664776823e+06 -7.5435575101411211e+08 
-3.2000000000000015e+00 -1.0311119918102161e+00 +2.2627758793582684e+00 +5.1595544155575217e+00 +6.0050776120761691e+02 +2.1171110740922898e+05 -1.8456694546698357e+06 -7.6434071237511992e+08 
-3.3000000000000016e+00 -1.0311141581111349e+00 +2.2626898288663271e+00 +5.0666471133828468e+00 +6.0206472586813561e+02 +2.1387612634292943e+05 -1.8341292633045150e+06 -7.7430047565546715e+08 
-3.4000000000000017e+00 -1.0311162835679077e+00 +2.2626138443075225e+00 +4.9740375837412794e+00 +6.0353053254150666e+02 +2.1603779591739812e+05 -1.8230651182039366e+06 -7.8426103618459845e+08 
-3.5000000000000018e+00 -1.0311183686850285e+00 +2.2625482453328400e+00 +4.8815723000538611e+00 +6.0494077273854032e+02 +2.1820034349308760e+05 -1.8128377645060970e+06 -7.9424840267920482e+08 
-3.6000000000000019e+00 -1.0311204139956007e+00 +2.2624932309999934e+00 +4.7891424320673135e+00 +6.0632319307220405e+02 +2.2036649147562927e+05 -1.8037293607954192e+06 -8.0427956225666547e+08 
-3.7000000000000020e+00 -1.0311224202850870e+00 +2.2624484190864766e+00 +4.6968434457905470e+00 +6.0767823393034314e+02 +2.2253285741068845e+05 -1.7957336846826489e+06 -8.1433667786394179e+08 
-3.8000000000000020e+00 -1.0311243884371404e+00 +2.2624132583679732e+00 +4.6048285666926283e+00 +6.0900041475533965e+02 +2.2469450058474406e+05 -1.7887779426073027e+06 -8.2439345651971591e+08 
-3.9000000000000021e+00 -1.0311263193353131e+00 +2.2623871975899896e+00 +4.5132510091966465e+00 +6.1028425718610674e+02 +2.2684648063230002e+05 -1.7827893576597003e+06 -8.3442360750760162e+08 
-4.0000000000000018e+00 -1.0311282138630100e+00 +2.2623696854689892e+00 +4.4222639714416943e+00 +6.1152428519796524e+02 +2.2898385762136168e+05 -1.7776951711656512e+06 -8.4440084272102630e+08 
-4.1000000000000014e+00 -1.0311300729035593e+00 +2.2623601706951004e+00 +4.3320206449287060e+00 +6.1271502509875654e+02 +2.3110169187145497e+05 -1.7734226428865211e+06 -8.5429887581779993e+08 
-4.2000000000000011e+00 -1.0311318973401435e+00 +2.2623581019286534e+00 +4.2426742071711088e+00 +6.1385100570483257e+02 +2.3319504408708302e+05 -1.7698990522812204e+06 -8.6409142284874964e+08 
-4.3000000000000007e+00 -1.0311336880558089e+00 +2.2623629278049369e+00 +4.1543778233402255e+00 +6.1492675826184654e+02 +2.3525897532294731e+05 -1.7670516982170837e+06 -8.7375220209358943e+08 
-4.4000000000000004e+00 -1.0311354459335067e+00 +2.2623740969234607e+00 +4.0672846537007006e+00 +6.1593681685759645e+02 +2.3728854683712637e+05 -1.7648079016879122e+06 -8.8325493336495996e+08 
-4.5000000000000000e+00 -1.0311371718560227e+00 +2.2623910578662811e+00 +3.9815478445768409e+00 +6.1687571793902941e+02 +2.3927882026306159e+05 -1.7630950031418472e+06 -8.9257333883750582e+08 
-4.5999999999999996e+00 -1.0311388667060037e+00 +2.2624132591799841e+00 +3.8973205334436400e+00 +6.1773800091855185e+02 +2.4122485750587232e+05 -1.7618403662647610e+06 -9.0168114254893970e+08 
-4.6999999999999993e+00 -1.0311405313660083e+00 +2.2624401493874107e+00 +3.8147558560789667e+00 +6.1851820791248531e+02 +2.4312172060494934e+05 -1.7609713767032803e+06 -9.1055206975768530e+08 
-4.7999999999999989e+00 -1.0311421667183982e+00 +2.2624711769804020e+00 +3.7340069339634656e+00 +6.1921088402472208e+02 +2.4496447196714306e+05 -1.7604154439297719e+06 -9.1915984804259467e+08 
-4.8999999999999986e+00 -1.0311437736454365e+00 +2.2625057904286523e+00 +3.6552268876436678e+00 +6.1981057714397582e+02 +2.4674817411382162e+05 -1.7601000002395744e+06 -9.2747820612163925e+08 
-4.9999999999999982e+00 -1.0311453530292074e+00 +2.2625434381694092e+00 +3.5785688282618020e+00 +6.2031183834713283e+02 +2.4846788982919537e+05 -1.7599525033970042e+06 -9.3548087453191066e+08 
-5.0999999999999979e+00 -1.0311469057516645e+00 +2.2625835686156974e+00 +3.5041858636374545e+00 +6.2070922171704615e+02 +2.5011868205357235e+05 -1.7599004357599164e+06 -9.4314158516201448e+08 
-5.1999999999999975e+00 -1.0311484326946339e+00 +2.2626256301523919e+00 +3.4322311005609860e+00 +6.2099728452688294e+02 +2.5169561382637126e+05 -1.7598713055631556e+06 -9.5043407095383155e+08 
-5.2999999999999972e+00 -1.0311499347397317e+00 +2.2626690711372617e+00 +3.3628576353957818e+00 +6.2117058730128588e+02 +2.5319374846137987e+05 -1.7597926475482448e+06 -9.5733206674162948e+08 
-5.3999999999999968e+00 -1.0311514127684669e+00 +2.2627133399053316e+00 +3.2962185671281961e+00 +6.2122369374295897e+02 +2.5460814930415896e+05 -1.7595920227045326e+06 -9.6380930812693954e+08 
-5.4999999999999964e+00 -1.0311528676621395e+00 +2.2627578847300298e+00 +3.2324669838979134e+00 +6.2115117220921150e+02 +2.5593388004693843e+05 -1.7591970241666904e+06 -9.6983953286116016e+08 
-5.5999999999999961e+00 -1.0311542995221794e+00 +2.2628022364011415e+00 +3.1716881111473296e+00 +6.2095057423131107e+02 +2.5716797846550422e+05 -1.7585508517737926e+06 -9.7540623596828628e+08 
-5.6999999999999957e+00 -1.0311557056167977e+00 +2.2628463689277933e+00 +3.1137296015959750e+00 +6.2062572728341775e+02 +2.5831440628317819e+05 -1.7576364369044935e+06 -9.8052702165544689e+08 
-5.7999999999999954e+00 -1.0311570825683898e+00 +2.2628903917415202e+00 +3.0583864825982952e+00 +6.2018078284901924e+02 +2.5937866060018554e+05 -1.7564417669973827e+06 -9.8522700546181250e+08 
-5.8999999999999950e+00 -1.0311584269994691e+00 +2.2629344144327477e+00 +3.0054537985769580e+00 +6.1961988549193120e+02 +2.6036623803642753e+05 -1.7549547829770665e+06 -9.8953130005825329e+08 
-5.9999999999999947e+00 -1.0311597355327227e+00 +2.2629785467536747e+00 +2.9547266199414861e+00 +6.1894717261457447e+02 +2.6128263453284674e+05 -1.7531633761323490e+06 -9.9346501432167149e+08 
-6.0999999999999943e+00 -1.0311610047910158e+00 +2.2630228986341812e+00 +2.9060000427520363e+00 +6.1816677383607441e+02 +2.6213334535313892e+05 -1.7510553840010506e+06 -9.9705325332313049e+08 
-6.1999999999999940e+00 -1.0311622313973612e+00 +2.2630675801805329e+00 +2.8590691859840898e+00 +6.1728281089517941e+02 +2.6292386511868390e+05 -1.7486185893649985e+06 -1.0003211184384046e+09 
-6.2999999999999936e+00 -1.0311634119750006e+00 +2.2631127016836374e+00 +2.8137292019387914e+00 +6.1629939726425926e+02 +2.6365968759659666e+05 -1.7458407175374350e+06 -1.0032937062948775e+09 
-6.3999999999999932e+00 -1.0311645431473435e+00 +2.2631583736315020e+00 +2.7697752679037024e+00 +6.1522063764228881e+02 +2.6434630585228011e+05 -1.7427094329571503e+06 -1.0059961094715466e+09 
-6.4999999999999929e+00 -1.0311656215380653e+00 +2.2632047067146743e+00 +2.7270026004475341e+00 +6.1405062765781656e+02 +2.6498921195310057e+05 -1.7392123370070022e+06 -1.0084534150143118e+09 
-6.5999999999999925e+00 -1.0311666437709939e+00 +2.2632518118344143e+00 +2.6852064397307291e+00 +6.1279345348228480e+02 +2.6559389726526116e+05 -1.7353369652862251e+06 -1.0106907058381495e+09 
-6.6999999999999922e+00 -1.0311676064702682e+00 +2.2632998001092259e+00 +2.6441820707766799e+00 +6.1145319149935642e+02 +2.6616585202998261e+05 -1.7310707852454230e+06 -1.0127330586478170e+09 
-6.7999999999999918e+00 -1.0311685062602154e+00 +2.2633487828797900e+00 +2.6037248082500764e+00 +6.1003390802112165e+02 +2.6671056563867076e+05 -1.7264011940743222e+06 -1.0146055452017648e+09 
-6.8999999999999915e+00 -1.0311693397654422e+00 +2.2633988717270008e+00 +2.5636300070392619e+00 +6.0853965860976962e+02 +2.6723352642776439e+05 -1.7213155142750989e+06 -1.0163332313154285e+09 
-6.9999999999999911e+00 -1.0311701036108090e+00 +2.2634501784693248e+00 +2.5236930611649311e+00 +6.0697448802871838e+02 +2.6774022167492833e+05 -1.7158009929613597e+06 -1.0179411767718494e+09 
-7.0999999999999908e+00 -1.0311707944214770e+00 +2.2635028151729593e+00 +2.4837094084999092e+00 +6.0534242979023111e+02 +2.6823613750366698e+05 -1.7098447987328710e+06 -1.0194544348396127e+09 
-7.1999999999999904e+00 -1.0311714088228743e+00 +2.2635568941629027e+00 +2.4434745269173854e+00 +6.0364750568863781e+02 +2.6872675894447282e+05 -1.7034340184941685e+06 -1.0208980525268620e+09 
-7.2999999999999901e+00 -1.0311719434407307e+00 +2.2636125280254924e+00 +2.4027839400226476e+00 +6.0189372560410402e+02 +2.6921756980540353e+05 -1.6965556559199502e+06 -1.0222970699001733e+09 
-7.3999999999999897e+00 -1.0311723949011082e+00 +2.2636698296256630e+00 +2.3614332201126240e+00 +6.0008508681968067e+02 +2.6971405261005170e+05 -1.6891966269062108e+06 -1.0236765197660077e+09 
-7.4999999999999893e+00 -1.0311727598305556e+00 +2.2637289121661612e+00 +2.3192180185761417e+00 +5.9822557247737291e+02 +2.7022168789257883e+05 -1.6813437653476829e+06 -1.0250614252270499e+09 
-7.5999999999999890e+00 -1.0311730359528455e+00 +2.2637899243392745e+00 +2.2760550286295431e+00 +5.9631541820972825e+02 +2.7074322349765152e+05 -1.6729826995637936e+06 -1.0264652215130910e+09 
-7.6999999999999886e+00 -1.0311732248990391e+00 +2.2638529907096330e+00 +2.2322756203296303e+00 +5.9434544850554516e+02 +2.7127213821702823e+05 -1.6640983165703227e+06 -1.0278619110065076e+09 
-7.7999999999999883e+00 -1.0311733291879954e+00 +2.2639181946266964e+00 +2.1883027423103454e+00 +5.9230532489060454e+02 +2.7179989072230191e+05 -1.6546763028458182e+06 -1.0292169011650368e+09 
-7.8999999999999879e+00 -1.0311733513383476e+00 +2.2639856190132668e+00 +2.1445593032335948e+00 +5.9018472595130208e+02 +2.7231794098157593e+05 -1.6447024549554966e+06 -1.0304956077550682e+09 
-7.9999999999999876e+00 -1.0311732938684026e+00 +2.2640553463729729e+00 +2.1014681561296062e+00 +5.8797334739610255e+02 +2.7281775058480963e+05 -1.6341626830169442e+06 -1.0316634562706884e+09 
-8.0999999999999872e+00 -1.0311731592961157e+00 +2.2641274587617652e+00 +2.0594520942380541e+00 +5.8566090307720583e+02 +2.7329078285128914e+05 -1.6230430172111085e+06 -1.0326858825387778e+09 
-8.1999999999999869e+00 -1.0311729501390752e+00 +2.2642020377837446e+00 +2.0189338493440179e+00 +5.8323712525490691e+02 +2.7372850286461035e+05 -1.6113296097156915e+06 -1.0335283329020255e+09 
-8.2999999999999865e+00 -1.0311726689145224e+00 +2.2642791645762554e+00 +1.9803360935765197e+00 +5.8069176521301767e+02 +2.7412237746746594e+05 -1.5990087388225915e+06 -1.0341562642920169e+09 
-8.3999999999999861e+00 -1.0311723181392940e+00 +2.2643589197861651e+00 +1.9440814314980039e+00 +5.7801459411795088e+02 +2.7446387542235025e+05 -1.5860668144126141e+06 -1.0345351450283076e+09 
-8.4999999999999858e+00 -1.0311719003298556e+00 +2.2644413835667896e+00 +1.9105924039659581e+00 +5.7519540326717765e+02 +2.7474446736047789e+05 -1.5724903798658524e+06 -1.0346304546538414e+09 
-8.5999999999999854e+00 -1.0311714180022793e+00 +2.2645266355513280e+00 +1.8802914850194634e+00 +5.7222400503278482e+02 +2.7495562585583678e+05 -1.5582661180305472e+06 -1.0344076843370743e+09 
-8.6999999999999851e+00 -1.0311708736722225e+00 +2.2646147548498359e+00 +1.8536010788117270e+00 +5.6909023311069075e+02 +2.7508882549946982e+05 -1.5433808531486643e+06 -1.0338323372827606e+09 
-8.7999999999999847e+00 -1.0311702698549163e+00 +2.2647058200275056e+00 +1.8309435176054778e+00 +5.6578394333756955e+02 +2.7513554295684060e+05 -1.5278215561336533e+06 -1.0328699290700444e+09 
-8.8999999999999844e+00 -1.0311696090651516e+00 +2.2647999090854269e+00 +1.8127410593780489e+00 +5.6229501439430680e+02 +2.7508725703245407e+05 -1.5115753490728189e+06 -1.0314859880237582e+09 
-8.9999999999999840e+00 -1.0311688938173178e+00 +2.2648970994599131e+00 +1.7994158925684482e+00 +5.5861334800394377e+02 +2.7493544859315641e+05 -1.4946295068971931e+06 -1.0296460548986946e+09 
-9.0999999999999837e+00 -1.0311681266252857e+00 +2.2649974679930009e+00 +1.7913901206576237e+00 +5.5472886996149168e+02 +2.7467160088232608e+05 -1.4769714638614675e+06 -1.0273156844448808e+09 
-9.1999999999999833e+00 -1.0311673100025087e+00 +2.2651010909258087e+00 +1.7890857745177109e+00 +5.5063153049110895e+02 +2.7428719930061186e+05 -1.4585888160980574e+06 -1.0244604444199386e+09 
-9.2999999999999829e+00 -1.0311664464619550e+00 +2.2652080438809370e+00 +1.7929248034737690e+00 +5.4631130491425381e+02 +2.7377373159300844e+05 -1.4394693259417512e+06 -1.0210459165348190e+09 
-9.3999999999999826e+00 -1.0311655385160949e+00 +2.2653184018514554e+00 +1.8033290735068921e+00 +5.4175819415436217e+02 +2.7312268790090538e+05 -1.4196009254036227e+06 -1.0170376967670698e+09 
-9.4999999999999822e+00 -1.0311645886764511e+00 +2.2654322389678230e+00 +1.8207202793904940e+00 +5.3696223210937808e+02 +2.7232556285582820e+05 -1.3989717342684695e+06 -1.0124014042546906e+09 
-9.5999999999999819e+00 -1.0311635987657912e+00 +2.2655496546439298e+00 +1.8453460739964118e+00 +5.3191852039518142e+02 +2.7137793202871882e+05 -1.3775838688251397e+06 -1.0071216211612908e+09 
-9.6999999999999815e+00 -1.0311625686359440e+00 +2.2656713192776041e+00 +1.8768586921678316e+00 +5.2662848251410014e+02 +2.7028906947747502e+05 -1.3554455695291706e+06 -1.0012467671452974e+09 
-9.7999999999999812e+00 -1.0311614977903065e+00 +2.2657981497601947e+00 +1.9147762522389244e+00 +5.2109219842734910e+02 +2.6907125618608261e+05 -1.3325557450568001e+06 -9.9483928355712295e+08 
-9.8999999999999808e+00 -1.0311603857329117e+00 +2.2659310630957177e+00 +1.9586169207553195e+00 +5.1530974061202721e+02 +2.6773677186205069e+05 -1.3089132438060762e+06 -9.8796160376763022e+08 
-9.9999999999999805e+00 -1.0311592319686935e+00 +2.2660709763529030e+00 +2.0078989545572066e+00 +5.0928117481690447e+02 +2.6629789411174308e+05 -1.2845168565187515e+06 -9.8067614918651187e+08 
-1.0099999999999980e+01 -1.0311580360034027e+00 +2.2662188066632800e+00 +2.0621406906621504e+00 +5.0300655999849135e+02 +2.6476689861435897e+05 -1.2593653154515787e+06 -9.7304533001453638e+08 
