# trajectory
# s[mm] rx[mm] ry[mm] rz[mm] px[rad] py[rad] pz[rad]
0.0000000000000000e+00 +9.1013000000000002e+00 +0.0000000000000000e+00 +0.0000000000000000e+00 +0.0000000000000000e+00 +0.0000000000000000e+00 +1.0000000000000000e+00
-1.0000000000000001e-01 +9.1012994835688001e+00 +0.0000000000000000e+00 -9.9999999998221983e-02 +1.0328624810715590e-05 +0.0000000000000000e+00 +9.9999999994665978e-01
-2.0000000000000001e-01 +9.1012979342748874e+00 +0.0000000000000000e+00 -1.9999999998577592e-01 +2.0657254131760339e-05 +0.0000000000000000e+00 +9.9999999978663900e-01
-3.0000000000000004e-01 +9.1012953521178428e+00 +0.0000000000000000e+00 -2.9999999995199378e-01 +3.0985887367526398e-05 +0.0000000000000000e+00 +9.9999999951993745e-01
-4.0000000000000002e-01 +9.1012917370973074e+00 +0.0000000000000000e+00 -3.9999999988620738e-01 +4.1314523800644261e-05 +0.0000000000000000e+00 +9.9999999914655513e-01
-5.0000000000000000e-01 +9.1012870892130042e+00 +0.0000000000000000e+00 -4.9999999977774873e-01 +5.1643162591981098e-05 +0.0000000000000000e+00 +9.9999999866649192e-01
-5.9999999999999998e-01 +9.1012814084647431e+00 +0.0000000000000000e+00 -5.9999999961594974e-01 +6.1971802780638345e-05 +0.0000000000000000e+00 +9.9999999807974782e-01
-6.9999999999999996e-01 +9.1012746948524370e+00 +0.0000000000000000e+00 -6.9999999939014224e-01 +7.2300443283948728e-05 +0.0000000000000000e+00 +9.9999999738632295e-01
-7.9999999999999993e-01 +9.1012669483761144e+00 +0.0000000000000000e+00 -7.9999999908965824e-01 +8.2629082897472481e-05 +0.0000000000000000e+00 +9.9999999658621730e-01
-8.9999999999999991e-01 +9.1012581690359298e+00 +0.0000000000000000e+00 -8.9999999870382963e-01 +9.2957720294992947e-05 +0.0000000000000000e+00 +9.9999999567943110e-01
-9.9999999999999989e-01 +9.1012483568321763e+00 +0.0000000000000000e+00 -9.9999999822198837e-01 +1.0328635402851154e-04 +0.0000000000000000e+00 +9.9999999466596456e-01
-1.0999999999999999e+00 +9.1012375117652979e+00 +0.0000000000000000e+00 -1.0999999976334665e+00 +1.1361498252824193e-04 +0.0000000000000000e+00 +9.9999999354581792e-01
-1.2000000000000000e+00 +9.1012256338359006e+00 +0.0000000000000000e+00 -1.1999999969275958e+00 +1.2394360410260356e-04 +0.0000000000000000e+00 +9.9999999231899150e-01
-1.3000000000000000e+00 +9.1012127230447675e+00 +0.0000000000000000e+00 -1.2999999960937088e+00 +1.3427221693821463e-04 +0.0000000000000000e+00 +9.9999999098548586e-01
-1.4000000000000001e+00 +9.1011987793928686e+00 +0.0000000000000000e+00 -1.3999999951211370e+00 +1.4460081909988421e-04 +0.0000000000000000e+00 +9.9999998954530156e-01
-1.5000000000000002e+00 +9.1011838028813727e+00 +0.0000000000000000e+00 -1.4999999939992130e+00 +1.5492940853060376e-04 +0.0000000000000000e+00 +9.9999998799843914e-01
-1.6000000000000003e+00 +9.1011677935116602e+00 +0.0000000000000000e+00 -1.5999999927172690e+00 +1.6525798306282134e-04 +0.0000000000000000e+00 +9.9999998634489951e-01
-1.7000000000000004e+00 +9.1011507512853296e+00 +0.0000000000000000e+00 -1.6999999912646371e+00 +1.7558654054255002e-04 +0.0000000000000000e+00 +9.9999998458468331e-01
-1.8000000000000005e+00 +9.1011326762041875e+00 +0.0000000000000000e+00 -1.7999999896306498e+00 +1.8591507895348057e-04 +0.0000000000000000e+00 +9.9999998271779156e-01
-1.9000000000000006e+00 +9.1011135682702360e+00 +0.0000000000000000e+00 -1.8999999878046396e+00 +1.9624359642826328e-04 +0.0000000000000000e+00 +9.9999998074422525e-01
-2.0000000000000004e+00 +9.1010934274856563e+00 +0.0000000000000000e+00 -1.9999999857759392e+00 +2.0657209124850723e-04 +0.0000000000000000e+00 +9.9999997866398538e-01
-2.1000000000000005e+00 +9.1010722538527933e+00 +0.0000000000000000e+00 -2.0999999835338810e+00 +2.1690056184478005e-04 +0.0000000000000000e+00 +9.9999997647707295e-01
-2.2000000000000006e+00 +9.1010500473741427e+00 +0.0000000000000000e+00 -2.1999999810677981e+00 +2.2722900679660843e-04 +0.0000000000000000e+00 +9.9999997418348896e-01
-2.3000000000000007e+00 +9.1010268080523318e+00 +0.0000000000000000e+00 -2.2999999783670231e+00 +2.3755742483247920e-04 +0.0000000000000000e+00 +9.9999997178323463e-01
-2.4000000000000008e+00 +9.1010025358901103e+00 +0.0000000000000000e+00 -2.3999999754208892e+00 +2.4788581482984096e-04 +0.0000000000000000e+00 +9.9999996927631096e-01
-2.5000000000000009e+00 +9.1009772308903329e+00 +0.0000000000000000e+00 -2.4999999722187294e+00 +2.5821417581510655e-04 +0.0000000000000000e+00 +9.9999996666271918e-01
-2.6000000000000010e+00 +9.1009508930559431e+00 +0.0000000000000000e+00 -2.5999999687498772e+00 +2.6854250696365593e-04 +0.0000000000000000e+00 +9.9999996394246038e-01
-2.7000000000000011e+00 +9.1009235223899587e+00 +0.0000000000000000e+00 -2.6999999650036659e+00 +2.7887080759983983e-04 +0.0000000000000000e+00 +9.9999996111553568e-01
-2.8000000000000012e+00 +9.1008951188954583e+00 +0.0000000000000000e+00 -2.7999999609694290e+00 +2.8919907719698380e-04 +0.0000000000000000e+00 +9.9999995818194609e-01
-2.9000000000000012e+00 +9.1008656825755665e+00 +0.0000000000000000e+00 -2.8999999566365000e+00 +2.9952731537739326e-04 +0.0000000000000000e+00 +9.9999995514169271e-01
-3.0000000000000013e+00 +9.1008352134334380e+00 +0.0000000000000000e+00 -2.9999999519942122e+00 +3.0985552191235881e-04 +0.0000000000000000e+00 +9.9999995199477665e-01
-3.1000000000000014e+00 +9.1008037114722420e+00 +0.0000000000000000e+00 -3.0999999470319000e+00 +3.2018369672216247e-04 +0.0000000000000000e+00 +9.9999994874119891e-01
-3.2000000000000015e+00 +9.1007711766951491e+00 +0.0000000000000000e+00 -3.1999999417388967e+00 +3.3051183987608417e-04 +0.0000000000000000e+00 +9.9999994538096038e-01
-3.3000000000000016e+00 +9.1007376091053143e+00 +0.0000000000000000e+00 -3.2999999361045367e+00 +3.4083995159240937e-04 +0.0000000000000000e+00 +9.9999994191406205e-01
-3.4000000000000017e+00 +9.1007030087058656e+00 +0.0000000000000000e+00 -3.3999999301181538e+00 +3.5116803223843676e-04 +0.0000000000000000e+00 +9.9999993834050471e-01
-3.5000000000000018e+00 +9.1006673754998850e+00 +0.0000000000000000e+00 -3.4999999237690824e+00 +3.6149608233048699e-04 +0.0000000000000000e+00 +9.9999993466028914e-01
-3.6000000000000019e+00 +9.1006307094903960e+00 +0.0000000000000000e+00 -3.5999999170466563e+00 +3.7182410252845684e-04 +0.0000000000000000e+00 +9.9999993087341599e-01
-3.7000000000000020e+00 +9.1005930106803508e+00 +0.0000000000000000e+00 -3.6999999099402103e+00 +3.8215209357582452e-04 +0.0000000000000000e+00 +9.9999992697988604e-01
-3.8000000000000020e+00 +9.1005542790726270e+00 +0.0000000000000000e+00 -3.7999999024390783e+00 +3.9248005623965758e-04 +0.0000000000000000e+00 +9.9999992297969975e-01
-3.9000000000000021e+00 +9.1005145146700226e+00 +0.0000000000000000e+00 -3.8999998945325949e+00 +4.0280799130517340e-04 +0.0000000000000000e+00 +9.9999991887285777e-01
-4.0000000000000018e+00 +9.1004737174752588e+00 +0.0000000000000000e+00 -3.9999998862100945e+00 +4.1313589957575570e-04 +0.0000000000000000e+00 +9.9999991465936056e-01
-4.1000000000000014e+00 +9.1004318874909735e+00 +0.0000000000000000e+00 -4.0999998774609114e+00 +4.2346378187297176e-04 +0.0000000000000000e+00 +9.9999991033920865e-01
-4.2000000000000011e+00 +9.1003890247197230e+00 +0.0000000000000000e+00 -4.1999998682743804e+00 +4.3379163903659078e-04 +0.0000000000000000e+00 +9.9999990591240251e-01
-4.3000000000000007e+00 +9.1003451291639763e+00 +0.0000000000000000e+00 -4.2999998586398362e+00 +4.4411947192460295e-04 +0.0000000000000000e+00 +9.9999990137894246e-01
-4.4000000000000004e+00 +9.1003002008261173e+00 +0.0000000000000000e+00 -4.3999998485466136e+00 +4.5444728141323968e-04 +0.0000000000000000e+00 +9.9999989673882883e-01
-4.5000000000000000e+00 +9.1002542397084429e+00 +0.0000000000000000e+00 -4.4999998379840473e+00 +4.6477506839699440e-04 +0.0000000000000000e+00 +9.9999989199206207e-01
-4.5999999999999996e+00 +9.1002072458131575e+00 +0.0000000000000000e+00 -4.5999998269414712e+00 +4.7510283378864466e-04 +0.0000000000000000e+00 +9.9999988713864230e-01
-4.6999999999999993e+00 +9.1001592191423732e+00 +0.0000000000000000e+00 -4.6999998154082210e+00 +4.8543057851927471e-04 +0.0000000000000000e+00 +9.9999988217856983e-01
-4.7999999999999989e+00 +9.1001101596981098e+00 +0.0000000000000000e+00 -4.7999998033736304e+00 +4.9575830353829943e-04 +0.0000000000000000e+00 +9.9999987711184479e-01
-4.8999999999999986e+00 +9.1000600674822909e+00 +0.0000000000000000e+00 -4.8999997908270352e+00 +5.0608600981348888e-04 +0.0000000000000000e+00 +9.9999987193846729e-01
-4.9999999999999982e+00 +9.1000089424967392e+00 +0.0000000000000000e+00 -4.9999997777577692e+00 +5.1641369833099380e-04 +0.0000000000000000e+00 +9.9999986665843732e-01
-5.0999999999999979e+00 +9.0999567847431830e+00 +0.0000000000000000e+00 -5.0999997641551680e+00 +5.2674137009537216e-04 +0.0000000000000000e+00 +9.9999986127175500e-01
-5.1999999999999975e+00 +9.0999035942232442e+00 +0.0000000000000000e+00 -5.1999997500085655e+00 +5.3706902612961631e-04 +0.0000000000000000e+00 +9.9999985577842032e-01
-5.2999999999999972e+00 +9.0998493709384451e+00 +0.0000000000000000e+00 -5.2999997353072974e+00 +5.4739666747518170e-04 +0.0000000000000000e+00 +9.9999985017843318e-01
-5.3999999999999968e+00 +9.0997941148902033e+00 +0.0000000000000000e+00 -5.3999997200406975e+00 +5.5772429519201547e-04 +0.0000000000000000e+00 +9.9999984447179335e-01
-5.4999999999999964e+00 +9.0997378260798261e+00 +0.0000000000000000e+00 -5.4999997041981006e+00 +5.6805191035858710e-04 +0.0000000000000000e+00 +9.9999983865850073e-01
-5.5999999999999961e+00 +9.0996805045085143e+00 +0.0000000000000000e+00 -5.5999996877688423e+00 +5.7837951407110032e-04 +0.0000000000000000e+00 +9.9999983273855508e-01
-5.6999999999999957e+00 +9.0996221501773569e+00 +0.0000000000000000e+00 -5.6999996707422564e+00 +5.8870710743451414e-04 +0.0000000000000000e+00 +9.9999982671195609e-01
-5.7999999999999954e+00 +9.0995627630873344e+00 +0.0000000000000000e+00 -5.7999996531076778e+00 +5.9903469155353235e-04 +0.0000000000000000e+00 +9.9999982057870329e-01
-5.8999999999999950e+00 +9.0995023432393172e+00 +0.0000000000000000e+00 -5.8999996348544412e+00 +6.0936226753176162e-04 +0.0000000000000000e+00 +9.9999981433879648e-01
-5.9999999999999947e+00 +9.0994408906340638e+00 +0.0000000000000000e+00 -5.9999996159718814e+00 +6.1968983647168541e-04 +0.0000000000000000e+00 +9.9999980799223509e-01
-6.0999999999999943e+00 +9.0993784052722209e+00 +0.0000000000000000e+00 -6.0999995964493330e+00 +6.3001739947463628e-04 +0.0000000000000000e+00 +9.9999980153901868e-01
-6.1999999999999940e+00 +9.0993148871543301e+00 +0.0000000000000000e+00 -6.1999995762761300e+00 +6.4034495764076675e-04 +0.0000000000000000e+00 +9.9999979497914682e-01
-6.2999999999999936e+00 +9.0992503362808179e+00 +0.0000000000000000e+00 -6.2999995554416071e+00 +6.5067251206901862e-04 +0.0000000000000000e+00 +9.9999978831261882e-01
-6.3999999999999932e+00 +9.0991847526520040e+00 +0.0000000000000000e+00 -6.3999995339350981e+00 +6.6100006385709043e-04 +0.0000000000000000e+00 +9.9999978153943414e-01
-6.4999999999999929e+00 +9.0991181362680980e+00 +0.0000000000000000e+00 -6.4999995117459379e+00 +6.7132761410140373e-04 +0.0000000000000000e+00 +9.9999977465959211e-01
-6.5999999999999925e+00 +9.0990504871291993e+00 +0.0000000000000000e+00 -6.5999994888634612e+00 +6.8165516389706766e-04 +0.0000000000000000e+00 +9.9999976767309195e-01
-6.6999999999999922e+00 +9.0989818052352973e+00 +0.0000000000000000e+00 -6.6999994652770010e+00 +6.9198271433784176e-04 +0.0000000000000000e+00 +9.9999976057993301e-01
-6.7999999999999918e+00 +9.0989120905862730e+00 +0.0000000000000000e+00 -6.7999994409758919e+00 +7.0231026651609754e-04 +0.0000000000000000e+00 +9.9999975338011449e-01
-6.8999999999999915e+00 +9.0988413431818991e+00 +0.0000000000000000e+00 -6.8999994159494680e+00 +7.1263782152277820e-04 +0.0000000000000000e+00 +9.9999974607363551e-01
-6.9999999999999911e+00 +9.0987695630218379e+00 +0.0000000000000000e+00 -6.9999993901870630e+00 +7.2296538044735700e-04 +0.0000000000000000e+00 +9.9999973866049530e-01
-7.0999999999999908e+00 +9.0986967501056437e+00 +0.0000000000000000e+00 -7.0999993636780117e+00 +7.3329294437779382e-04 +0.0000000000000000e+00 +9.9999973114069285e-01
-7.1999999999999904e+00 +9.0986229044327604e+00 +0.0000000000000000e+00 -7.1999993364116461e+00 +7.4362051440049048e-04 +0.0000000000000000e+00 +9.9999972351422717e-01
-7.2999999999999901e+00 +9.0985480260025255e+00 +0.0000000000000000e+00 -7.2999993083773012e+00 +7.5394809160024415e-04 +0.0000000000000000e+00 +9.9999971578109725e-01
-7.3999999999999897e+00 +9.0984721148141663e+00 +0.0000000000000000e+00 -7.3999992795643097e+00 +7.6427567706019949e-04 +0.0000000000000000e+00 +9.9999970794130211e-01
-7.4999999999999893e+00 +9.0983951708668034e+00 +0.0000000000000000e+00 -7.4999992499620056e+00 +7.7460327186179903e-04 +0.0000000000000000e+00 +9.9999969999484062e-01
-7.5999999999999890e+00 +9.0983171941594474e+00 +0.0000000000000000e+00 -7.5999992195597219e+00 +7.8493087708017377e-04 +0.0000000000000000e+00 +9.9999969194171168e-01
-7.6999999999999886e+00 +9.0982381846910059e+00 +0.0000000000000000e+00 -7.6999991883467924e+00 +7.9525849373396015e-04 +0.0000000000000000e+00 +9.9999968378191406e-01
-7.7999999999999883e+00 +9.0981581424602886e+00 +0.0000000000000000e+00 -7.7999991563125493e+00 +8.0558612273515739e-04 +0.0000000000000000e+00 +9.9999967551544677e-01
-7.8999999999999879e+00 +9.0980770674660203e+00 +0.0000000000000000e+00 -7.8999991234463263e+00 +8.1591376488459255e-04 +0.0000000000000000e+00 +9.9999966714230870e-01
-7.9999999999999876e+00 +9.0979949597068508e+00 +0.0000000000000000e+00 -7.9999990897374555e+00 +8.2624142087194571e-04 +0.0000000000000000e+00 +9.9999965866249896e-01
-8.0999999999999872e+00 +9.0979118191813662e+00 +0.0000000000000000e+00 -8.0999990551752710e+00 +8.3656909127577633e-04 +0.0000000000000000e+00 +9.9999965007601654e-01
-8.1999999999999869e+00 +9.0978276458880991e+00 +0.0000000000000000e+00 -8.1999990197491037e+00 +8.4689677656355053e-04 +0.0000000000000000e+00 +9.9999964138286057e-01
-8.2999999999999865e+00 +9.0977424398255451e+00 +0.0000000000000000e+00 -8.2999989834482868e+00 +8.5722447709166974e-04 +0.0000000000000000e+00 +9.9999963258303037e-01
-8.3999999999999861e+00 +9.0976562009921658e+00 +0.0000000000000000e+00 -8.3999989462621532e+00 +8.6755219310549975e-04 +0.0000000000000000e+00 +9.9999962367652528e-01
-8.4999999999999858e+00 +9.0975689293864033e+00 +0.0000000000000000e+00 -8.4999989081800358e+00 +8.7787992473940097e-04 +0.0000000000000000e+00 +9.9999961466334464e-01
-8.5999999999999854e+00 +9.0974806250066962e+00 +0.0000000000000000e+00 -8.5999988691912659e+00 +8.8820767201675996e-04 +0.0000000000000000e+00 +9.9999960554348788e-01
-8.6999999999999851e+00 +9.0973912878514813e+00 +0.0000000000000000e+00 -8.6999988292851764e+00 +8.9853543485002155e-04 +0.0000000000000000e+00 +9.9999959631695468e-01
-8.7999999999999847e+00 +9.0973009179192132e+00 +0.0000000000000000e+00 -8.7999987884511004e+00 +9.0886321304072199e-04 +0.0000000000000000e+00 +9.9999958698374469e-01
-8.8999999999999844e+00 +9.0972095152083714e+00 +0.0000000000000000e+00 -8.8999987466783690e+00 +9.1919100627952343e-04 +0.0000000000000000e+00 +9.9999957754385771e-01
-8.9999999999999840e+00 +9.0971170797174707e+00 +0.0000000000000000e+00 -8.9999987039563152e+00 +9.2951881414624895e-04 +0.0000000000000000e+00 +9.9999956799729373e-01
-9.0999999999999837e+00 +9.0970236114450724e+00 +0.0000000000000000e+00 -9.0999986602742720e+00 +9.3984663610991879e-04 +0.0000000000000000e+00 +9.9999955834405274e-01
-9.1999999999999833e+00 +9.0969291103897998e+00 +0.0000000000000000e+00 -9.1999986156215705e+00 +9.5017447152878751e-04 +0.0000000000000000e+00 +9.9999954858413487e-01
-9.2999999999999829e+00 +9.0968335765503436e+00 +0.0000000000000000e+00 -9.2999985699875438e+00 +9.6050231965038235e-04 +0.0000000000000000e+00 +9.9999953871754055e-01
-9.3999999999999826e+00 +9.0967370099254747e+00 +0.0000000000000000e+00 -9.3999985233615231e+00 +9.7083017961154200e-04 +0.0000000000000000e+00 +9.9999952874427012e-01
-9.4999999999999822e+00 +9.0966394105140580e+00 +0.0000000000000000e+00 -9.4999984757328413e+00 +9.8115805043845722e-04 +0.0000000000000000e+00 +9.9999951866432413e-01
-9.5999999999999819e+00 +9.0965407783150596e+00 +0.0000000000000000e+00 -9.5999984270908314e+00 +9.9148593105270657e-04 +0.0000000000000000e+00 +9.9999950847770336e-01
-9.6999999999999815e+00 +9.0964411133275576e+00 +0.0000000000000000e+00 -9.6999983774248264e+00 +1.0018138203372385e-03 +0.0000000000000000e+00 +9.9999949818440870e-01
-9.7999999999999812e+00 +9.0963404155507401e+00 +0.0000000000000000e+00 -9.7999983267241575e+00 +1.0121417172023180e-03 +0.0000000000000000e+00 +9.9999948778444092e-01
-9.8999999999999808e+00 +9.0962386849839003e+00 +0.0000000000000000e+00 -9.8999982749781577e+00 +1.0224696205914984e-03 +0.0000000000000000e+00 +9.9999947727780081e-01
-9.9999999999999805e+00 +9.0961359216264377e+00 +0.0000000000000000e+00 -9.9999982221761616e+00 +1.0327975294815942e-03 +0.0000000000000000e+00 +9.9999946666448924e-01
-1.0099999999999980e+01 +9.0960321254778531e+00 +0.0000000000000000e+00 -1.0099998168307501e+01 +1.0431254428826542e-03 +0.0000000000000000e+00 +9.9999945594450712e-01
-1.0199999999999980e+01 +9.0959272965377433e+00 +0.0000000000000000e+00 -1.0199998113361508e+01 +1.0534533598379331e-03 +0.0000000000000000e+00 +9.9999944511785532e-01
-1.0299999999999979e+01 +9.0958214348057993e+00 +0.0000000000000000e+00 -1.0299998057327516e+01 +1.0637812794238627e-03 +0.0000000000000000e+00 +9.9999943418453463e-01
-1.0399999999999979e+01 +9.0957145402818007e+00 +0.0000000000000000e+00 -1.0399998000194859e+01 +1.0741092007500222e-03 +0.0000000000000000e+00 +9.9999942314454593e-01
-1.0499999999999979e+01 +9.0956066129656197e+00 +0.0000000000000000e+00 -1.0499997941952870e+01 +1.0844371229591081e-03 +0.0000000000000000e+00 +9.9999941199789022e-01
-1.0599999999999978e+01 +9.0954976528572082e+00 +0.0000000000000000e+00 -1.0599997882590882e+01 +1.0947650452269020e-03 +0.0000000000000000e+00 +9.9999940074456828e-01
-1.0699999999999978e+01 +9.0953876599566001e+00 +0.0000000000000000e+00 -1.0699997822098229e+01 +1.1050929667622395e-03 +0.0000000000000000e+00 +9.9999938938458088e-01
-1.0799999999999978e+01 +9.0952766342639055e+00 +0.0000000000000000e+00 -1.0799997760464244e+01 +1.1154208868069766e-03 +0.0000000000000000e+00 +9.9999937791792903e-01
-1.0899999999999977e+01 +9.0951645757793127e+00 +0.0000000000000000e+00 -1.0899997697678259e+01 +1.1257488046359566e-03 +0.0000000000000000e+00 +9.9999936634461351e-01
-1.0999999999999977e+01 +9.0950514845030757e+00 +0.0000000000000000e+00 -1.0999997633729610e+01 +1.1360767195569754e-03 +0.0000000000000000e+00 +9.9999935466463530e-01
-1.1099999999999977e+01 +9.0949373604355195e+00 +0.0000000000000000e+00 -1.1099997568607630e+01 +1.1464046309107463e-03 +0.0000000000000000e+00 +9.9999934287799508e-01
-1.1199999999999976e+01 +9.0948222035770332e+00 +0.0000000000000000e+00 -1.1199997502301654e+01 +1.1567325380708641e-03 +0.0000000000000000e+00 +9.9999933098469374e-01
-1.1299999999999976e+01 +9.0947060139280644e+00 +0.0000000000000000e+00 -1.1299997434801014e+01 +1.1670604404437678e-03 +0.0000000000000000e+00 +9.9999931898473216e-01
-1.1399999999999975e+01 +9.0945887914891212e+00 +0.0000000000000000e+00 -1.1399997366095045e+01 +1.1773883374687037e-03 +0.0000000000000000e+00 +9.9999930687811101e-01
-1.1499999999999975e+01 +9.0944705362607667e+00 +0.0000000000000000e+00 -1.1499997296173081e+01 +1.1877162286176865e-03 +0.0000000000000000e+00 +9.9999929466483117e-01
-1.1599999999999975e+01 +9.0943512482436102e+00 +0.0000000000000000e+00 -1.1599997225024456e+01 +1.1980441133983449e-03 +0.0000000000000000e+00 +9.9999928234489344e-01
-1.1699999999999974e+01 +9.0942309274383124e+00 +0.0000000000000000e+00 -1.1699997152638504e+01 +1.2083719913856196e-03 +0.0000000000000000e+00 +9.9999926991829846e-01
