# multipoles
# s[mm] polynom_b[n=0][T/m^n] polynom_b[n=1][T/m^n] polynom_b[n=2][T/m^n] polynom_b[n=3][T/m^n] polynom_b[n=4][T/m^n] polynom_b[n=5][T/m^n] polynom_b[n=6][T/m^n] 
-0.0000000000000000e+00 -1.0337119406931441e+00 +2.2956912974055519e+00 +2.7084947565998426e+01 -1.6148067646804967e+02 -1.3381693723047059e+05 +1.2239271598642699e+06 +6.8825183686487389e+08 
-1.0000000000000001e-01 -1.0337090520470593e+00 +2.2956124836372065e+00 +2.7181874247415497e+01 -1.6535213190970026e+02 -1.3635841650177035e+05 +1.2489836040024201e+06 +7.0123105766470194e+08 
-2.0000000000000001e-01 -1.0337060146075010e+00 +2.2955263571137423e+00 +2.7270007475610218e+01 -1.6904902049020737e+02 -1.3876313499990921e+05 +1.2732286121405500e+06 +7.1361324989467669e+08 
-2.9999999999999999e-01 -1.0337028383812863e+00 +2.2954329011217496e+00 +2.7349916339927937e+01 -1.7256765135702486e+02 -1.4104007000463438e+05 +1.2966124356297643e+06 +7.2543985471233773e+08 
-4.0000000000000002e-01 -1.0336995333751680e+00 +2.2953320990034873e+00 +2.7422169922181116e+01 -1.7590433511303166e+02 -1.4319819866463164e+05 +1.3190853341874199e+06 +7.3675231267049205e+08 
-5.0000000000000000e-01 -1.0336961095958186e+00 +2.2952239341635132e+00 +2.7487337295552770e+01 -1.7905538405574194e+02 -1.4524649796821681e+05 +1.3405975773774171e+06 +7.4759206355831420e+08 
-5.9999999999999998e-01 -1.0336925770498420e+00 +2.2951083900571789e+00 +2.7545987524118768e+01 -1.8201711189383522e+02 -1.4719394472837832e+05 +1.3610994429807314e+06 +7.5800054631809509e+08 
-6.9999999999999996e-01 -1.0336889457437481e+00 +2.2949854501898939e+00 +2.7598689659485299e+01 -1.8478583379980657e+02 -1.4904951551475780e+05 +1.3805412174532074e+06 +7.6801919871427488e+08 
-8.0000000000000004e-01 -1.0336852256839364e+00 +2.2948550981151090e+00 +2.7646012739283439e+01 -1.8735786639712771e+02 -1.5082218662025008e+05 +1.3988731958953089e+06 +7.7768945716615021e+08 
-9.0000000000000002e-01 -1.0336814268767516e+00 +2.2947173174220521e+00 +2.7688525794403056e+01 -1.8972952745451963e+02 -1.5252093419133933e+05 +1.4160456803589400e+06 +7.8705275734929144e+08 
-1.0000000000000000e+00 -1.0336775593283933e+00 +2.2945720917383934e+00 +2.7726797833991462e+01 -1.9189713604418651e+02 -1.5415473393881661e+05 +1.4320089808673928e+06 +7.9615053281534386e+08 
-1.1000000000000001e+00 -1.0336736330449763e+00 +2.2944194047252249e+00 +2.7761397856504701e+01 -1.9385701242140286e+02 -1.5573256134332062e+05 +1.4467134147519360e+06 +8.0502421595859098e+08 
-1.2000000000000000e+00 -1.0336696580325402e+00 +2.2942592400722610e+00 +2.7792894848706698e+01 -1.9560547797245013e+02 -1.5726339163551788e+05 +1.4601093064874553e+06 +8.1371523792490911e+08 
-1.3000000000000000e+00 -1.0336656442969459e+00 +2.2940915814890608e+00 +2.7821857772102579e+01 -1.9713885499681965e+02 -1.5875619951720751e+05 +1.4721469864758691e+06 +8.2226502722976315e+08 
-1.3999999999999999e+00 -1.0336616018439895e+00 +2.2939164127084819e+00 +2.7848855578263688e+01 -1.9845346686146553e+02 -1.6021995946959205e+05 +1.4827767919922553e+06 +8.3071501127684474e+08 
-1.5000000000000000e+00 -1.0336575406793067e+00 +2.2937337174772203e+00 +2.7874457194530731e+01 -1.9954563780266901e+02 -1.6166364545923853e+05 +1.4919490661899592e+06 +8.3910661490086949e+08 
-1.6000000000000001e+00 -1.0336534694128556e+00 +2.2935436097212727e+00 +2.7899155076446217e+01 -2.0041492808323642e+02 -1.6309483876895517e+05 +1.4996410086593686e+06 +8.4747420066835773e+08 
-1.7000000000000000e+00 -1.0336493910963391e+00 +2.2933467329741988e+00 +2.7923136820808562e+01 -2.0107453874599767e+02 -1.6451555849573252e+05 +1.5059428506604608e+06 +8.5582371763798451e+08 
-1.8000000000000000e+00 -1.0336453073983902e+00 +2.2931438654828051e+00 +2.7946514105279963e+01 -2.0154126043084656e+02 -1.6592643545631095e+05 +1.5109745454352139e+06 +8.6415396832675004e+08 
-1.8999999999999999e+00 -1.0336412199876208e+00 +2.2929357854853056e+00 +2.7969398602560432e+01 -2.0183188382371381e+02 -1.6732810035946214e+05 +1.5148560473078915e+06 +8.7246375464249003e+08 
-2.0000000000000000e+00 -1.0336371305326710e+00 +2.2927232712058894e+00 +2.7991901984715671e+01 -2.0196319950146392e+02 -1.6872118389089775e+05 +1.5177073107481876e+06 +8.8075187828985953e+08 
-2.1000000000000001e+00 -1.0336330407021952e+00 +2.2925071008467373e+00 +2.8014135923453850e+01 -2.0195199771169183e+02 -1.7010631672390344e+05 +1.5196482891569885e+06 +8.8901714082640100e+08 
-2.2000000000000002e+00 -1.0336289521649304e+00 +2.2922880525863598e+00 +2.8036212095680547e+01 -2.0181506832621719e+02 -1.7148412961783569e+05 +1.5207989346079552e+06 +8.9725834410560119e+08 
-2.2999999999999998e+00 -1.0336248665896210e+00 +2.2920669045740718e+00 +2.8058242175939760e+01 -2.0156920069450413e+02 -1.7285525328841494e+05 +1.5212791970399958e+06 +9.0547428968802512e+08 
-2.3999999999999999e+00 -1.0336207856450901e+00 +2.2918444349213503e+00 +2.8080337844542903e+01 -2.0123118339608081e+02 -1.7422031855131732e+05 +1.5212090228728978e+06 +9.1366377948588336e+08 
-2.5000000000000000e+00 -1.0336167110002752e+00 +2.2916214217009321e+00 +2.8102610791793971e+01 -2.0081780421904247e+02 -1.7557995641359934e+05 +1.5207083548757969e+06 +9.2182561622175813e+08 
-2.6000000000000001e+00 -1.0336126443241831e+00 +2.2913986429380748e+00 +2.8125172711597422e+01 -2.0034584993377709e+02 -1.7693479795074119e+05 +1.5198971309623106e+06 +9.2995860282900786e+08 
-2.7000000000000002e+00 -1.0336085872859284e+00 +2.2911768766111789e+00 +2.8148135307628127e+01 -1.9983210628469081e+02 -1.7828547442474883e+05 +1.5188952840927751e+06 +9.3806154300910425e+08 
-2.7999999999999998e+00 -1.0336045415547284e+00 +2.2909569006360897e+00 +2.8171610292081610e+01 -1.9929335756951713e+02 -1.7963261726705288e+05 +1.5178227399275585e+06 +9.4613324115934908e+08 
-2.8999999999999999e+00 -1.0336005088000222e+00 +2.2907394928730205e+00 +2.8195709397134106e+01 -1.9874638684678635e+02 -1.8097685829046741e+05 +1.5167994180475711e+06 +9.5417250335755444e+08 
-3.0000000000000000e+00 -1.0335964906912691e+00 +2.2905254311103915e+00 +2.8220544354900554e+01 -1.9820797545778058e+02 -1.8231882931437847e+05 +1.5159452292222707e+06 +9.6217813558672309e+08 
-3.1000000000000001e+00 -1.0335924888982133e+00 +2.2903154930695400e+00 +2.8246226927601199e+01 -1.9769490317981175e+02 -1.8365916274535167e+05 +1.5153800763151788e+06 +9.7014894650803959e+08 
-3.2000000000000002e+00 -1.0335885050906910e+00 +2.2901104563892223e+00 +2.8272868881743509e+01 -1.9722394779292836e+02 -1.8499849107607303e+05 +1.5152238518323638e+06 +9.7808374504203248e+08 
-3.2999999999999998e+00 -1.0335845409387661e+00 +2.2899110986329609e+00 +2.8300582008221088e+01 -1.9681188528760518e+02 -1.8633744727970677e+05 +1.5155964391544894e+06 +9.8598134226893234e+08 
-3.3999999999999999e+00 -1.0335805981126995e+00 +2.2897181972696123e+00 +2.8329478115954689e+01 -1.9647548930937700e+02 -1.8767666468536764e+05 +1.5166177093225592e+06 +9.9384055081751263e+08 
-3.5000000000000000e+00 -1.0335766782829450e+00 +2.2895325296758768e+00 +2.8359669030916802e+01 -1.9623153123393462e+02 -1.8901677696110524e+05 +1.5184075210043916e+06 +1.0016601847355336e+09 
-3.6000000000000001e+00 -1.0335727830222754e+00 +2.2893546690400974e+00 +2.8391237680413017e+01 -1.9609208956876586e+02 -1.9035815511621398e+05 +1.5210499347851933e+06 +1.0094383027075084e+09 
-3.7000000000000002e+00 -1.0335689134868498e+00 +2.2891843745756342e+00 +2.8424156594864378e+01 -1.9604967113847880e+02 -1.9170025373674565e+05 +1.5244814149074373e+06 +1.0171711541850246e+09 
-3.7999999999999998e+00 -1.0335650707210249e+00 +2.2890212016926350e+00 +2.8458371830023690e+01 -1.9609164943381543e+02 -1.9304233070697391e+05 +1.5286000035807251e+06 +1.0248548360302103e+09 
-3.8999999999999999e+00 -1.0335612557690976e+00 +2.2888647057836140e+00 +2.8493829430254685e+01 -1.9620539761302712e+02 -1.9438364366947487e+05 +1.5333037423194628e+06 +1.0324854440251254e+09 
-4.0000000000000000e+00 -1.0335574696752854e+00 +2.2887144422278234e+00 +2.8530475425049545e+01 -1.9637828868238580e+02 -1.9572344996801732e+05 +1.5384906733710701e+06 +1.0400590726117665e+09 
-4.0999999999999996e+00 -1.0335537134837165e+00 +2.2885699663786578e+00 +2.8568255831403800e+01 -1.9659769511631993e+02 -1.9706100668114788e+05 +1.5440588376078065e+06 +1.0475718150326357e+09 
-4.2000000000000002e+00 -1.0335499882384291e+00 +2.2884308335874688e+00 +2.8607116649227724e+01 -1.9685098957566760e+02 -1.9839557053697488e+05 +1.5499062787561079e+06 +1.0550197629412435e+09 
-4.2999999999999998e+00 -1.0335462949833494e+00 +2.2882965991814688e+00 +2.8647003861670374e+01 -1.9712554422437941e+02 -1.9972639791772733e+05 +1.5559310394256213e+06 +1.0623990064367939e+09 
-4.4000000000000004e+00 -1.0335426347623378e+00 +2.2881668184795618e+00 +2.8687863439304682e+01 -1.9740873119624385e+02 -2.0105274493731494e+05 +1.5620311638593683e+06 +1.0697056344330103e+09 
-4.5000000000000000e+00 -1.0335390086190930e+00 +2.2880410467874452e+00 +2.8729641329947256e+01 -1.9768792246449675e+02 -2.0237386724941735e+05 +1.5681046973069787e+06 +1.0769357337709160e+09 
-4.5999999999999996e+00 -1.0335354175972227e+00 +2.2879188394004584e+00 +2.8772283464753006e+01 -1.9795048990180206e+02 -2.0368902015988127e+05 +1.5740496863197307e+06 +1.0840853897484572e+09 
-4.7000000000000002e+00 -1.0335318627401902e+00 +2.2877997515971522e+00 +2.8815735753892589e+01 -1.9818380508268712e+02 -2.0499745854546313e+05 +1.5797641776717298e+06 +1.0911506857541249e+09 
-4.7999999999999998e+00 -1.0335283450913155e+00 +2.2876833386575814e+00 +2.8859944086986363e+01 -1.9837523982711312e+02 -2.0629843685852073e+05 +1.5851462216066513e+06 +1.0981277032907414e+09 
-4.9000000000000004e+00 -1.0335248656937701e+00 +2.2875691558380065e+00 +2.8904854329425149e+01 -1.9851216545293417e+02 -2.0759120905840569e+05 +1.5900938674832243e+06 +1.1050125216635616e+09 
-5.0000000000000000e+00 -1.0335214255906169e+00 +2.2874567584020795e+00 +2.8950412330604703e+01 -1.9858195367793681e+02 -2.0887502876299823e+05 +1.5945051691115319e+06 +1.1118012187029717e+09 
-5.0999999999999996e+00 -1.0335180258247052e+00 +2.2873457015927241e+00 +2.8996563909524511e+01 -1.9857197579132503e+02 -2.1014914898142175e+05 +1.5982781799258492e+06 +1.1184898695212543e+09 
-5.2000000000000002e+00 -1.0335146674387317e+00 +2.2872355406542604e+00 +2.9043254861444186e+01 -1.9846960330491353e+02 -2.1141282222849893e+05 +1.6013109568733177e+06 +1.1250745470359216e+09 
-5.2999999999999998e+00 -1.0335113514752112e+00 +2.2871258308200217e+00 +2.9090430956447243e+01 -1.9826220757645962e+02 -2.1266530050806137e+05 +1.6035015582351258e+06 +1.1315513219349296e+09 
-5.4000000000000004e+00 -1.0335080789765145e+00 +2.2870161273238883e+00 +2.9138037942244203e+01 -1.9793716013848888e+02 -2.1390583535806005e+05 +1.6047480455597211e+06 +1.1379162628784804e+09 
-5.5000000000000000e+00 -1.0335048509847440e+00 +2.2869059853980627e+00 +2.9186021530481050e+01 -1.9748183286945923e+02 -2.1513367761102752e+05 +1.6049484866526220e+06 +1.1441654355607803e+09 
-5.5999999999999996e+00 -1.0335016679796780e+00 +2.2867951457611979e+00 +2.9234255467534968e+01 -1.9688943699246195e+02 -2.1634683761608612e+05 +1.6040409183528419e+06 +1.1502900052918491e+09 
-5.7000000000000002e+00 -1.0334985282242217e+00 +2.2866841466483785e+00 +2.9282317121519757e+01 -1.9617725515218123e+02 -2.1753805334402449e+05 +1.6021205933893432e+06 +1.1562593011659455e+09 
-5.7999999999999998e+00 -1.0334954294316308e+00 +2.2865737423079935e+00 +2.9329706872679189e+01 -1.9536888250998888e+02 -2.1869865271982006e+05 +1.5993223199331120e+06 +1.1620365862742469e+09 
-5.9000000000000004e+00 -1.0334923693154607e+00 +2.2864646871304202e+00 +2.9375925136442476e+01 -1.9448791889798764e+02 -2.1981996427898284e+05 +1.5957809327584628e+06 +1.1675851264698572e+09 
-6.0000000000000000e+00 -1.0334893455895831e+00 +2.2863577356334694e+00 +2.9420472366468935e+01 -1.9355796837808597e+02 -2.2089331724746787e+05 +1.5916312906591296e+06 +1.1728681907993882e+09 
-6.0999999999999996e+00 -1.0334863559681766e+00 +2.2862536424781088e+00 +2.9462849050831228e+01 -1.9260263971310866e+02 -2.2191004145962017e+05 +1.5870082791050691e+06 +1.1778490510823560e+09 
-6.2000000000000002e+00 -1.0334833981657165e+00 +2.2861531624716385e+00 +2.9502555716527727e+01 -1.9164554644610016e+02 -2.2286146744914787e+05 +1.5820468106131996e+06 +1.1824909823566501e+09 
-6.2999999999999998e+00 -1.0334804698970577e+00 +2.2860570505716642e+00 +2.9539092934333453e+01 -1.9071030704839677e+02 -2.2373892653862145e+05 +1.5768818255233266e+06 +1.1867572632963953e+09 
-6.4000000000000004e+00 -1.0334775688774047e+00 +2.2859660618937139e+00 +2.9571961317751281e+01 -1.8982054513892373e+02 -2.2453375081916782e+05 +1.5716482931939061e+06 +1.1906111761098404e+09 
-6.5000000000000000e+00 -1.0334746928223353e+00 +2.2858809517197773e+00 +2.9600661526732210e+01 -1.8899988974393264e+02 -2.2523727321812979e+05 +1.5664812134327842e+06 +1.1940160068498592e+09 
-6.5999999999999996e+00 -1.0334718394477875e+00 +2.2858024755016086e+00 +2.9624694263870570e+01 -1.8827197541375327e+02 -2.2584082743089125e+05 +1.5615156171076661e+06 +1.1969350451050897e+09 
-6.7000000000000002e+00 -1.0334690064701222e+00 +2.2857313888647348e+00 +2.9643560284836266e+01 -1.8766044232958870e+02 -2.2633574811170480e+05 +1.5568865666578847e+06 +1.1993315848764462e+09 
-6.7999999999999998e+00 -1.0334661916061110e+00 +2.2856684476233085e+00 +2.9656760395738363e+01 -1.8718893675795471e+02 -2.2671337082835170e+05 +1.5527291586693565e+06 +1.2011689243784530e+09 
-6.9000000000000004e+00 -1.0334633925729326e+00 +2.2856144077747240e+00 +2.9663795451303642e+01 -1.8688111091242422e+02 -2.2696503202520436e+05 +1.5491785229977379e+06 +1.2024103658530369e+09 
-7.0000000000000000e+00 -1.0334606070882333e+00 +2.2855700255139606e+00 +2.9664166365123542e+01 -1.8676062335953870e+02 -2.2708206921259718e+05 +1.5463698250267373e+06 +1.2030192164527516e+09 
-7.0999999999999996e+00 -1.0334578328700645e+00 +2.2855360572362811e+00 +2.9657374100558652e+01 -1.8685113913724777e+02 -2.2705582079980933e+05 +1.5444382663297474e+06 +1.2029587874619009e+09 
-7.2000000000000002e+00 -1.0334550676370171e+00 +2.2855132595448291e+00 +2.9642919686817262e+01 -1.8717632995487503e+02 -2.2687762639612684e+05 +1.5435190856632644e+06 +1.2021923957113087e+09 
-7.2999999999999998e+00 -1.0334523091080581e+00 +2.2855023892580131e+00 +2.9620304202195147e+01 -1.8775987442482099e+02 -2.2653882648921586e+05 +1.5437475602923676e+06 +1.2006833620414095e+09 
-7.4000000000000004e+00 -1.0334495550027540e+00 +2.2855042034084270e+00 +2.9589028797039180e+01 -1.8862545806802171e+02 -2.2603076288975307e+05 +1.5452590059473102e+06 +1.1983950134348862e+09 
-7.5000000000000000e+00 -1.0334468030411583e+00 +2.2855194592760282e+00 +2.9548594685806300e+01 -1.8979677389582116e+02 -2.2534477853965008e+05 +1.5481887798726195e+06 +1.1952906820227847e+09 
-7.5999999999999996e+00 -1.0334440524201485e+00 +2.2855486376762473e+00 +2.9498701281403058e+01 -1.9128923193796390e+02 -2.2447559159057162e+05 +1.5526298650900770e+06 +1.1913481802438459e+09 
-7.7000000000000002e+00 -1.0334413080146649e+00 +2.2855908892118562e+00 +2.9439836721880329e+01 -1.9308165957634776e+02 -2.2343157521701106e+05 +1.5584970539304891e+06 +1.1866040353704627e+09 
-7.7999999999999998e+00 -1.0334385760728164e+00 +2.2856449727922552e+00 +2.9372688167005013e+01 -1.9514277332624886e+02 -2.2222460710770398e+05 +1.5656582220439657e+06 +1.1811098598179858e+09 
-7.9000000000000004e+00 -1.0334358628423150e+00 +2.2857096470719944e+00 +2.9297942736966011e+01 -1.9744128247044463e+02 -2.2086656435936620e+05 +1.5739812080301102e+06 +1.1749172629787443e+09 
-8.0000000000000000e+00 -1.0334331745702838e+00 +2.2857836704666759e+00 +2.9216287488032524e+01 -1.9994588915189763e+02 -2.1936932302419288e+05 +1.5833338094453453e+06 +1.1680778494396646e+09 
-8.0999999999999996e+00 -1.0334305175035037e+00 +2.2858658011338631e+00 +2.9128409441568916e+01 -2.0262528777087724e+02 -2.1774475866845789e+05 +1.5935837791742333e+06 +1.1606432216472323e+09 
-8.1999999999999993e+00 -1.0334278978880826e+00 +2.2859547969795981e+00 +2.9034995543128822e+01 -2.0544816519601375e+02 -2.1600474558682652e+05 +1.6045988268105215e+06 +1.1526649761392565e+09 
-8.3000000000000007e+00 -1.0334253219697040e+00 +2.2860494156336952e+00 +2.8936732692866293e+01 -2.0838319999902970e+02 -2.1416115740145202e+05 +1.6162466140641971e+06 +1.1441947064399643e+09 
-8.4000000000000004e+00 -1.0334227959934608e+00 +2.2861484144518189e+00 +2.8834307727822068e+01 -2.1139906251536013e+02 -2.1222586672652466e+05 +1.6283947552223678e+06 +1.1352840014595528e+09 
-8.5000000000000000e+00 -1.0334203262038775e+00 +2.2862505505030160e+00 +2.8728407423101118e+01 -2.1446441444071920e+02 -2.1021074519380380e+05 +1.6409108147102650e+06 +1.1259844456104569e+09 
-8.5999999999999996e+00 -1.0334179188448958e+00 +2.2863545805615999e+00 +2.8619718488496233e+01 -2.1754790861545334e+02 -2.0812766339624280e+05 +1.6536623059145936e+06 +1.1163476185556502e+09 
-8.6999999999999993e+00 -1.0334155801598712e+00 +2.2864592610917018e+00 +2.8508927573932620e+01 -2.2061818851338506e+02 -2.0598849099943764e+05 +1.6665166881573498e+06 +1.1064250957452946e+09 
-8.8000000000000007e+00 -1.0334133163914914e+00 +2.2865633482480248e+00 +2.8396721253910915e+01 -2.2364388827171709e+02 -2.0380509644839357e+05 +1.6793413668699018e+06 +1.0962684470208597e+09 
-8.9000000000000004e+00 -1.0334111337818337e+00 +2.2866655978615111e+00 +2.8283786037160279e+01 -2.2659363225285824e+02 -2.0158934715781489e+05 +1.6920036910681524e+06 +1.0859292375286067e+09 
-9.0000000000000000e+00 -1.0334090385723207e+00 +2.2867647654329160e+00 +2.8170808363449982e+01 -2.2943603483410325e+02 -1.9935310946181524e+05 +1.7043709521194918e+06 +1.0754590274984450e+09 
-9.0999999999999996e+00 -1.0334070370036610e+00 +2.2868596061182522e+00 +2.8058474592977472e+01 -2.3213969997515085e+02 -1.9710824841147548e+05 +1.7163103812199323e+06 +1.0649093712662619e+09 
-9.1999999999999993e+00 -1.0334051353159002e+00 +2.2869488747320599e+00 +2.7947471014533388e+01 -2.3467322128097808e+02 -1.9486662794133319e+05 +1.7276891497350531e+06 +1.0543318180908182e+09 
-9.3000000000000007e+00 -1.0334033397483446e+00 +2.2870313257215154e+00 +2.7838483837265908e+01 -2.3700518124135084e+02 -1.9264011071265832e+05 +1.7383743648197316e+06 +1.0437779113928277e+09 
-9.4000000000000004e+00 -1.0334016565395947e+00 +2.2871057131687609e+00 +2.7732199194466038e+01 -2.3910415127941314e+02 -1.9044055820271320e+05 +1.7482330696697398e+06 +1.0332991892221980e+09 
-9.5000000000000000e+00 -1.0334000919273110e+00 +2.2871707907152463e+00 +2.7629303106709219e+01 -2.4093868888936530e+02 -1.8827982989141578e+05 +1.7571322186654245e+06 +1.0229471794325991e+09 
-9.5999999999999996e+00 -1.0333986501988821e+00 +2.2872255508764785e+00 +2.7530322983710359e+01 -2.4248299170276408e+02 -1.8616719073584091e+05 +1.7649569830612221e+06 +1.0127618353212160e+09 
-9.6999999999999993e+00 -1.0333973281565016e+00 +2.2872700688856402e+00 +2.7435166357567855e+01 -2.4373677522317749e+02 -1.8410171937004483e+05 +1.7716811080703544e+06 +1.0027388664683108e+09 
-9.8000000000000007e+00 -1.0333961207949081e+00 +2.2873047218454339e+00 +2.7343586427166720e+01 -2.4470677297357582e+02 -1.8207993389082010e+05 +1.7773024796569403e+06 +9.9286314239494836e+08 
-9.9000000000000004e+00 -1.0333950231089446e+00 +2.2873298869638763e+00 +2.7255336386657319e+01 -2.4539972032109003e+02 -1.8009835220590179e+05 +1.7818189859851978e+06 +9.8311953260890484e+08 
-1.0000000000000000e+01 -1.0333940300934763e+00 +2.2873459415681499e+00 +2.7170169426384316e+01 -2.4582235560082992e+02 -1.7815349202026473e+05 +1.7852285343635697e+06 +9.7349290566691339e+08 
-1.0100000000000000e+01 -1.0333931367434952e+00 +2.2873532630971525e+00 +2.7087838738828804e+01 -2.4598141989110312e+02 -1.7624187094173155e+05 +1.7875290499047081e+06 +9.6396812966816604e+08 
