# multipoles
# s[mm] polynom_b[n=0][T/m^n] polynom_b[n=1][T/m^n] polynom_b[n=2][T/m^n] polynom_b[n=3][T/m^n] polynom_b[n=4][T/m^n] polynom_b[n=5][T/m^n] polynom_b[n=6][T/m^n] 
+0.0000000000000000e+00 -1.0353428223912444e+00 +2.2838034575188835e+00 +2.4905979848524268e+01 +2.0203746216395845e+02 -1.1187158923891856e+05 -4.2560334774859680e+05 +5.8913444584925056e+08 
-1.0000000000000001e-01 -1.0353415622101281e+00 +2.2841717367745455e+00 +2.4910388673955829e+01 +1.9681579993740661e+02 -1.1165566453960627e+05 -3.8740900796128792e+05 +5.8794257033349800e+08 
-2.0000000000000001e-01 -1.0353402111990548e+00 +2.2845353030648523e+00 +2.4907870711406460e+01 +1.9186692679036443e+02 -1.1135049063704546e+05 -3.5076200423601898e+05 +5.8640799697098470e+08 
-3.0000000000000004e-01 -1.0353387808245103e+00 +2.2848947669065094e+00 +2.4899164309105402e+01 +1.8716752732941845e+02 -1.1096809783038271e+05 -3.1564217778941692e+05 +5.8458151655169332e+08 
-4.0000000000000002e-01 -1.0353372825528331e+00 +2.2852507388437608e+00 +2.4885007792514326e+01 +1.8269428609497493e+02 -1.1052051596590850e+05 -2.8202937213216495e+05 +5.8251391770530045e+08 
-5.0000000000000000e-01 -1.0353357278503568e+00 +2.2856038294372767e+00 +2.4866139480715397e+01 +1.7842388795184766e+02 -1.1001977471407356e+05 -2.4990343556232430e+05 +5.8025598809415686e+08 
-5.9999999999999998e-01 -1.0353341281832293e+00 +2.2859546492571554e+00 +2.4843297662122584e+01 +1.7433301827663018e+02 -1.0947790305783342e+05 -2.1924422223235460e+05 +5.7785851180906391e+08 
-6.9999999999999996e-01 -1.0353324950175400e+00 +2.2863038088581553e+00 +2.4817220608515715e+01 +1.7039836373404822e+02 -1.0890692951825762e+05 -1.9003159684203673e+05 +5.7537227029741335e+08 
-7.9999999999999993e-01 -1.0353308398191423e+00 +2.2866519187811769e+00 +2.4788646550541390e+01 +1.6659661224561060e+02 -1.0831888163817044e+05 -1.6224543452117316e+05 +5.7284803973537779e+08 
-8.9999999999999991e-01 -1.0353291740537676e+00 +2.2869995895266997e+00 +2.4758313691216745e+01 +1.6290445378552599e+02 -1.0772578620374482e+05 -1.3586562554670157e+05 +5.7033659195426393e+08 
-9.9999999999999989e-01 -1.0353275091869130e+00 +2.2873474315527136e+00 +2.4726960189210065e+01 +1.5929858048530232e+02 -1.0713966887639991e+05 -1.1087207609750687e+05 +5.6788869251874352e+08 
-1.0999999999999999e+00 -1.0353258566838430e+00 +2.2876960552499104e+00 +2.4695324157305347e+01 +1.5575568735454209e+02 -1.0657255411752281e+05 -8.7244712469787148e+04 +5.6555510021055233e+08 
-1.2000000000000000e+00 -1.0353242280095669e+00 +2.2880460709451635e+00 +2.4664143658441581e+01 +1.5225247222173400e+02 -1.0603646507643191e+05 -6.4963480876214991e+04 +5.6338656636345196e+08 
-1.3000000000000000e+00 -1.0353226346288278e+00 +2.2883980888743585e+00 +2.4634156701275487e+01 +1.4876563654613423e+02 -1.0554342344967762e+05 -4.4008352257426865e+04 +5.6143383400399601e+08 
-1.4000000000000001e+00 -1.0353210880060477e+00 +2.2887527191747190e+00 +2.4606101233308156e+01 +1.4527188566520874e+02 -1.0510544932022119e+05 -2.4359323806186247e+04 +5.5974763697449756e+08 
-1.5000000000000002e+00 -1.0353195996053417e+00 +2.2891105718738198e+00 +2.4580715138951309e+01 +1.4174792915076813e+02 -1.0473456106308302e+05 -5.9964210568092694e+03 +5.5837869930357945e+08 
-1.6000000000000003e+00 -1.0353181783568077e+00 +2.2894723315414462e+00 +2.4558613213226245e+01 +1.3817211962687441e+02 -1.0444053594963651e+05 +1.1114569730757590e+04 +5.5736783505979478e+08 
-1.7000000000000004e+00 -1.0353168231640935e+00 +2.2898389823083587e+00 +2.4539932104064775e+01 +1.3452870871241225e+02 -1.0422453319580627e+05 +2.7067391289296251e+04 +5.5671752275357473e+08 
-1.8000000000000005e+00 -1.0353155304510633e+00 +2.2902115831689134e+00 +2.4524692366894421e+01 +1.3080326605970586e+02 -1.0408564068307544e+05 +4.1971325979730565e+04 +5.5642096542024589e+08 
-1.9000000000000006e+00 -1.0353142966414992e+00 +2.2905911930938050e+00 +2.4512914530600693e+01 +1.2698136214541339e+02 -1.0402294558877467e+05 +5.5935651840034159e+04 +5.5647136217144632e+08 
-2.0000000000000004e+00 -1.0353131181592949e+00 +2.2909788710249575e+00 +2.4504619123470281e+01 +1.2304856834447315e+02 -1.0403553491162753e+05 +6.9069642509336816e+04 +5.5686191080972850e+08 
-2.1000000000000005e+00 -1.0353119914283491e+00 +2.2913756758805972e+00 +2.4499826658755115e+01 +1.1899045666480535e+02 -1.0412249520187265e+05 +8.1482569311620115e+04 +5.5758580657457602e+08 
-2.2000000000000006e+00 -1.0353109128726963e+00 +2.2917826665656214e+00 +2.4498557652433135e+01 +1.1479259934500956e+02 -1.0428291292633265e+05 +9.3283704072271736e+04 +5.5863624397534418e+08 
-2.3000000000000007e+00 -1.0353098789164870e+00 +2.2922009019631160e+00 +2.4500832619382411e+01 +1.1044056902759918e+02 -1.0451587440295413e+05 +1.0458231851347767e+05 +5.6000641651935220e+08 
-2.4000000000000008e+00 -1.0353088859840061e+00 +2.2926314409540631e+00 +2.4506672077323255e+01 +1.0591993806388851e+02 -1.0482046589918951e+05 +1.1548768884539220e+05 +5.6168951726092458e+08 
-2.5000000000000009e+00 -1.0353079304997581e+00 +2.2930753424088199e+00 +2.4516096556802538e+01 +1.0121627868012078e+02 -1.0519577383609812e+05 +1.2610909522717384e+05 +5.6367873983305407e+08 
-2.6000000000000010e+00 -1.0353070088884397e+00 +2.2935336651926512e+00 +2.4529126597928471e+01 +9.6315162701788907e+01 -1.0564088474321626e+05 +1.3655582389090987e+05 +5.6596727829909790e+08 
-2.7000000000000011e+00 -1.0353061175749980e+00 +2.2940074681759137e+00 +2.4545782757773445e+01 +9.1202161178674345e+01 -1.0615488541221202e+05 +1.4693716974243813e+05 +5.6854832793490827e+08 
-2.8000000000000012e+00 -1.0353052529846625e+00 +2.2944978102297080e+00 +2.4566085615159409e+01 +8.5862844399230895e+01 -1.0673686301325566e+05 +1.5736243679433438e+05 +5.7141508587539065e+08 
-2.9000000000000012e+00 -1.0353044115429455e+00 +2.2950057502375207e+00 +2.4590055770244696e+01 +8.0282781464808735e+01 -1.0738590509707760e+05 +1.6794094108705877e+05 +5.7456075116891742e+08 
-3.0000000000000013e+00 -1.0353035896757188e+00 +2.2955323470914228e+00 +2.4617713854295296e+01 +7.4447540286381397e+01 -1.0810109979924391e+05 +1.7878201122645903e+05 +5.7797852581853437e+08 
-3.1000000000000014e+00 -1.0353027838091950e+00 +2.2960786597025562e+00 +2.4649080527361608e+01 +6.8342687199618865e+01 -1.0888153581095640e+05 +1.8999499104639955e+05 +5.8166161470586264e+08 
-3.2000000000000015e+00 -1.0353019903699927e+00 +2.2966457469995021e+00 +2.4684176487427315e+01 +6.1953786906744384e+01 -1.0972630257383936e+05 +2.0168924044101455e+05 +5.8560322658971655e+08 
-3.3000000000000016e+00 -1.0353012057851738e+00 +2.2972346679346889e+00 +2.4723022474778922e+01 +5.5266402188574240e+01 -1.1063449038158992e+05 +2.1397413752489901e+05 +5.8979657466653240e+08 
-3.4000000000000017e+00 -1.0353004264821912e+00 +2.2978464814898336e+00 +2.4765639264548611e+01 +4.8266093653062100e+01 -1.1160519024086557e+05 +2.2695908056591905e+05 +5.9423487592710280e+08 
-3.5000000000000018e+00 -1.0352996488890613e+00 +2.2984822466794266e+00 +2.4812047690533877e+01 +4.0938419439520224e+01 -1.1263749437492892e+05 +2.4075349007447038e+05 +5.9891135369744658e+08 
-3.6000000000000019e+00 -1.0352988701355030e+00 +2.2991426305892295e+00 +2.4862239111981705e+01 +3.3273746691722998e+01 -1.1373023375628979e+05 +2.5544956199905393e+05 +6.0381878417711067e+08 
-3.7000000000000020e+00 -1.0352980900209570e+00 +2.2998267691316912e+00 +2.4916084451649532e+01 +2.5282560744049412e+01 -1.1488101629254170e+05 +2.7106438798937108e+05 +6.0894699778573442e+08 
-3.8000000000000020e+00 -1.0352973089804136e+00 +2.3005334249532612e+00 +2.4973424117376698e+01 +1.6980556236724890e+01 -1.1608710853883752e+05 +2.8759499091259064e+05 +6.1428484864274907e+08 
-3.9000000000000021e+00 -1.0352965274489403e+00 +2.3012613606724881e+00 +2.5034098541846650e+01 +8.3834287893653805e+00 -1.1734577776599860e+05 +3.0503838689905842e+05 +6.1982119503814411e+08 
-4.0000000000000018e+00 -1.0352957458617738e+00 +2.3020093388912009e+00 +2.5097948196229929e+01 -4.9312525293737375e-01 -1.1865429224836979e+05 +3.2339158636691648e+05 +6.2554490089423370e+08 
-4.1000000000000014e+00 -1.0352949646542744e+00 +2.3027761221771237e+00 +2.5164813585716697e+01 -9.6334083243505937e+00 -1.2000992119421675e+05 +3.4265159103688400e+05 +6.3144483547591233e+08 
-4.2000000000000011e+00 -1.0352941842619574e+00 +2.3035604730809425e+00 +2.5234535256515549e+01 -1.9021722074681009e+01 -1.2140993491238005e+05 +3.6281539614587527e+05 +6.3750987428306293e+08 
-4.3000000000000007e+00 -1.0352934051204536e+00 +2.3043611541205560e+00 +2.5306953790953575e+01 -2.8642366916462354e+01 -1.2285160472657009e+05 +3.8387998769949516e+05 +6.4372889866260600e+08 
-4.4000000000000004e+00 -1.0352926276655274e+00 +2.3051769277940219e+00 +2.5381909813338645e+01 -3.8479642351562838e+01 -1.2433220312571402e+05 +4.0584234407609561e+05 +6.5009079663715887e+08 
-4.5000000000000000e+00 -1.0352918523330987e+00 +2.3060065565655417e+00 +2.5459243994300550e+01 -4.8517846541939122e+01 -1.2584900386474334e+05 +4.2869943333180260e+05 +6.5658446343624389e+08 
-4.5999999999999996e+00 -1.0352910795592183e+00 +2.3068488028765755e+00 +2.5538797048063358e+01 -5.8741276607162696e+01 -1.2739928192582403e+05 +4.5244821471706033e+05 +6.6319880135051131e+08 
-4.6999999999999993e+00 -1.0352903097800745e+00 +2.3077024291353014e+00 +2.5620409737242372e+01 -6.9134228287277679e+01 -1.2898031364855365e+05 +4.7708563648411271e+05 +6.6992272046276784e+08 
-4.7999999999999989e+00 -1.0352895434319727e+00 +2.3085661977265266e+00 +2.5703922870655550e+01 -7.9680996209451763e+01 -1.3058937669726819e+05 +5.0260863723244582e+05 +6.7674513851772439e+08 
-4.8999999999999986e+00 -1.0352887809514066e+00 +2.3094388710009572e+00 +2.5789177315359485e+01 -9.0365873547284906e+01 -1.3222375032723451e+05 +5.2901414371061907e+05 +6.8365498229859531e+08 
-4.9999999999999982e+00 -1.0352880227749659e+00 +2.3103192112811648e+00 +2.5876013985381061e+01 -1.0117315215358812e+02 -1.3388071517624953e+05 +5.5629907131967833e+05 +6.9064118664969289e+08 
-5.0999999999999979e+00 -1.0352872693394246e+00 +2.3112059808573444e+00 +2.5964273856461272e+01 -1.1208712242992189e+02 -1.3555755358673632e+05 +5.8446032320124656e+05 +6.9769269613043857e+08 
-5.1999999999999975e+00 -1.0352865210816151e+00 +2.3120979419928225e+00 +2.6053797950250040e+01 -1.2309207344573478e+02 -1.3725154930972404e+05 +6.1349479066874541e+05 +7.0479846362182784e+08 
-5.2999999999999972e+00 -1.0352857784386165e+00 +2.3129938569090602e+00 +2.6144427361770099e+01 -1.3417229247645912e+02 -1.3895998806688681e+05 +6.4339935029977665e+05 +7.1194745311092842e+08 
-5.3999999999999968e+00 -1.0352850418475661e+00 +2.3138924878089235e+00 +2.6236003236104349e+01 -1.4531206565429343e+02 -1.4068015711945694e+05 +6.7417086750952457e+05 +7.1912863767982304e+08 
-5.4999999999999964e+00 -1.0352843117458324e+00 +2.3147925968440641e+00 +2.6328366791481045e+01 -1.5649567695180826e+02 -1.4240934572943993e+05 +7.0580618849448161e+05 +7.2633100160067558e+08 
-5.5999999999999961e+00 -1.0352835883338307e+00 +2.3156928015240603e+00 +2.6421283382452643e+01 -1.6770537720278651e+02 -1.4414350153582179e+05 +7.3827701206017286e+05 +7.3353778882824278e+08 
-5.6999999999999957e+00 -1.0352828708045498e+00 +2.3165912259209711e+00 +2.6514215421845517e+01 -1.7891630432927946e+02 -1.4587315890955101e+05 +7.7145446364733798e+05 +7.4071011369032574e+08 
-5.7999999999999954e+00 -1.0352821580752127e+00 +2.3174858911523399e+00 +2.6606548155256075e+01 -1.9010202600448915e+02 -1.4758745920136035e+05 +8.0518352984047623e+05 +7.4780365538326049e+08 
-5.8999999999999950e+00 -1.0352814490622020e+00 +2.3183748186179987e+00 +2.6697666741339884e+01 -2.0123611954405919e+02 -1.4927554190277096e+05 +8.3930925181132695e+05 +7.5477408340734231e+08 
-5.9999999999999947e+00 -1.0352807426809278e+00 +2.3192560299989804e+00 +2.6786956237253154e+01 -2.1229217220954317e+02 -1.5092654434154526e+05 +8.7367673093512154e+05 +7.6157705572126448e+08 
-6.0999999999999943e+00 -1.0352800378457681e+00 +2.3201275472814102e+00 +2.6873801591105767e+01 -2.2324378198294681e+02 -1.5252960152230825e+05 +9.0813113343424723e+05 +7.6816821791288435e+08 
-6.1999999999999940e+00 -1.0352793334701416e+00 +2.3209873927560221e+00 +2.6957587651697345e+01 -2.3406455762372264e+02 -1.5407384629404711e+05 +9.4251769079646457e+05 +7.7450320392025006e+08 
-6.2999999999999936e+00 -1.0352786284664153e+00 +2.3218335890418982e+00 +2.7037699158279118e+01 -2.4472811944838961e+02 -1.5554840914974420e+05 +9.7668170447521098e+05 +7.8053763503458798e+08 
-6.3999999999999932e+00 -1.0352779217458039e+00 +2.3226641590918904e+00 +2.7113520727014869e+01 -2.5520809954726818e+02 -1.5694241794086745e+05 +1.0104685472059434e+06 +7.8622711843682373e+08 
-6.4999999999999929e+00 -1.0352772122184264e+00 +2.3234771262055407e+00 +2.7184436859976682e+01 -2.6547814223885456e+02 -1.5824499804108898e+05 +1.0437236657825084e+06 +7.9152724792665327e+08 
-6.5999999999999925e+00 -1.0352764987931899e+00 +2.3242705140418876e+00 +2.7249831929996425e+01 -2.7551190451905592e+02 -1.5944527203910708e+05 +1.0762925837737231e+06 +7.9639360238289404e+08 
-6.6999999999999922e+00 -1.0352757803777786e+00 +2.3250423466400654e+00 +2.7309090180117437e+01 -2.8528305673968470e+02 -1.6053235971515276e+05 +1.1080209056092633e+06 +8.0078174558815253e+08 
-6.7999999999999918e+00 -1.0352750558785915e+00 +2.3257906484123105e+00 +2.7361595716955549e+01 -2.9476528247586907e+02 -1.6149537789755870e+05 +1.1387543159082979e+06 +8.0464722546673751e+08 
-6.8999999999999915e+00 -1.0352743242007187e+00 +2.3265134441784934e+00 +2.7406732506831386e+01 -3.0393227959800532e+02 -1.6232344037167876e+05 +1.1683385857928691e+06 +8.0794557358019876e+08 
-6.9999999999999911e+00 -1.0352735842479222e+00 +2.3272087591637503e+00 +2.7443884375251354e+01 -3.1275776029469949e+02 -1.6300565786156862e+05 +1.1966195731984843e+06 +8.1063230498636198e+08 
-7.0999999999999908e+00 -1.0352728349225306e+00 +2.3278746190132660e+00 +2.7472434993378172e+01 -3.2121545156039241e+02 -1.6353113774884213e+05 +1.2234432257679421e+06 +8.1266291680816972e+08 
-7.1999999999999904e+00 -1.0352720751254201e+00 +2.3285090498119749e+00 +2.7491767876041699e+01 -3.2927909585373658e+02 -1.6388898402198299e+05 +1.2486555848221437e+06 +8.1399288792848492e+08 
-7.2999999999999901e+00 -1.0352713037560275e+00 +2.3291100780889340e+00 +2.7501266385212599e+01 -3.3692245129782742e+02 -1.6406829733631847e+05 +1.2721027866383744e+06 +8.1457767923373497e+08 
-7.3999999999999897e+00 -1.0352705197122103e+00 +2.3296757308313931e+00 +2.7500313710241350e+01 -3.4411929217083457e+02 -1.6405817460010067e+05 +1.2936310654291154e+06 +8.1437273150651586e+08 
-7.4999999999999893e+00 -1.0352697218902587e+00 +2.3302040355016267e+00 +2.7488292877774601e+01 -3.5084340818482906e+02 -1.6384770902464271e+05 +1.3130867500173103e+06 +8.1333346549660778e+08 
-7.5999999999999890e+00 -1.0352689097988157e+00 +2.3306935443238217e+00 +2.7464832247011767e+01 -3.5707237136927830e+02 -1.6343016586142199e+05 +1.3303340600281295e+06 +8.1143229661697388e+08 
-7.6999999999999886e+00 -1.0352680854286649e+00 +2.3311445500578976e+00 +2.7430501479221107e+01 -3.6279596124510630e+02 -1.6281527223037774e+05 +1.3453193496430221e+06 +8.0870828787145627e+08 
-7.7999999999999883e+00 -1.0352672514205923e+00 +2.3315576930005353e+00 +2.7386100616898819e+01 -3.6800619651024402e+02 -1.6201689390344807e+05 +1.3580129397011488e+06 +8.0521707354021835e+08 
-7.8999999999999879e+00 -1.0352664104158877e+00 +2.3319336130295922e+00 +2.7332429780203313e+01 -3.7269508264317091e+02 -1.6104889871949705e+05 +1.3683850870208156e+06 +8.0101429896287513e+08 
-7.9999999999999876e+00 -1.0352655650562368e+00 +2.3322729496210064e+00 +2.7270289145490118e+01 -3.7685461142028265e+02 -1.5992515619012775e+05 +1.3764059670832530e+06 +7.9615561986101687e+08 
-8.0999999999999872e+00 -1.0352647179836192e+00 +2.3325763418265870e+00 +2.7200478932372697e+01 -3.8047676015001082e+02 -1.5865953727131835e+05 +1.3820456693933199e+06 +7.9069670132768261e+08 
-8.1999999999999869e+00 -1.0352638718405069e+00 +2.3328444282645280e+00 +2.7123799429363594e+01 -3.8355349134234859e+02 -1.5726591487777734e+05 +1.3852741955736266e+06 +7.8469322037974370e+08 
-8.2999999999999865e+00 -1.0352630292697342e+00 +2.3330778471058093e+00 +2.7041050976126400e+01 -3.8607675221007463e+02 -1.5575816355729074e+05 +1.3860614563280800e+06 +7.7820086447270417e+08 
-8.3999999999999861e+00 -1.0352621929145633e+00 +2.3332772360447764e+00 +2.6953033971977735e+01 -3.8803847373130463e+02 -1.5415015967373614e+05 +1.3843772659061691e+06 +7.7127533245995831e+08 
-8.4999999999999858e+00 -1.0352613654187734e+00 +2.3334432322973124e+00 +2.6860548887458382e+01 -3.8943057050348790e+02 -1.5245578165095608e+05 +1.3801913411745969e+06 +7.6397233584787035e+08 
-8.5999999999999854e+00 -1.0352605494265890e+00 +2.3335764725809582e+00 +2.6764396254263392e+01 -3.9024494008919953e+02 -1.5068890979696542e+05 +1.3734732977322871e+06 +7.5634759803604364e+08 
-8.6999999999999851e+00 -1.0352597475827321e+00 +2.3336775930912697e+00 +2.6665376671972034e+01 -3.9047346223373404e+02 -1.4886342644959636e+05 +1.3641926452648065e+06 +7.4845685508611822e+08 
-8.7999999999999847e+00 -1.0352589625325224e+00 +2.3337472294984081e+00 +2.6564290820531070e+01 -3.9010799868062770e+02 -1.4699321623734967e+05 +1.3523187863909639e+06 +7.4035585705986226e+08 
-8.8999999999999844e+00 -1.0352581969217436e+00 +2.3337860169195417e+00 +2.6461939443085026e+01 -3.8914039228289994e+02 -1.4509216577098187e+05 +1.3378210113962502e+06 +7.3210036663318670e+08 
-8.9999999999999840e+00 -1.0352574533967951e+00 +2.3337945899078432e+00 +2.6359123364612341e+01 -3.8756246659401137e+02 -1.4317416401506864e+05 +1.3206684957755664e+06 +7.2374616093894351e+08 
-9.0999999999999837e+00 -1.0352567346046921e+00 +2.3337735824392380e+00 +2.6256643492767861e+01 -3.8536602539764101e+02 -1.4125310233051257e+05 +1.3008302974056827e+06 +7.1534903187562871e+08 
-9.1999999999999833e+00 -1.0352560431930353e+00 +2.3337236278909974e+00 +2.6155300812309676e+01 -3.8254285200298619e+02 -1.3934287437747189e+05 +1.2782753523813470e+06 +7.0696478569847095e+08 
-9.2999999999999829e+00 -1.0352553818100589e+00 +2.3336453590284796e+00 +2.6055896392038129e+01 -3.7908470875471545e+02 -1.3745737627491690e+05 +1.2529724720217397e+06 +6.9864924388617039e+08 
-9.3999999999999826e+00 -1.0352547531046661e+00 +2.3335394079881349e+00 +2.5959231388819187e+01 -3.7498333647765674e+02 -1.3561050669489495e+05 +1.2248903396280843e+06 +6.9045824366901636e+08 
-9.4999999999999822e+00 -1.0352541597266522e+00 +2.3334064063282471e+00 +2.5866107075762329e+01 -3.7023045897189974e+02 -1.3381616786142386e+05 +1.1939975357485160e+06 +6.8244764360569501e+08 
-9.5999999999999819e+00 -1.0352536039102096e+00 +2.3332466457139875e+00 +2.5777135376638945e+01 -3.6481948167360605e+02 -1.3208542593638977e+05 +1.1602803764407847e+06 +6.7466280967617738e+08 
-9.6999999999999815e+00 -1.0352530862329876e+00 +2.3330593460379934e+00 +2.5692207384571120e+01 -3.5874920594840052e+02 -1.3041784582495838e+05 +1.1237616784674230e+06 +6.6710566203672552e+08 
-9.7999999999999812e+00 -1.0352526068437666e+00 +2.3328435328868244e+00 +2.5611038777316740e+01 -3.5201978561460470e+02 -1.2881003633027087e+05 +1.0844654292343385e+06 +6.5976689539580286e+08 
-9.8999999999999808e+00 -1.0352521658902740e+00 +2.3325982320723857e+00 +2.5533345139912480e+01 -3.4463137836487209e+02 -1.2725860450167279e+05 +1.0424156095273714e+06 +6.5263719699328411e+08 
-9.9999999999999805e+00 -1.0352517635194960e+00 +2.3323224695913449e+00 +2.5458842013995135e+01 -3.3658414590933830e+02 -1.2576015655713835e+05 +9.9763621447697259e+05 +6.4570724935282481e+08 
-1.0099999999999980e+01 -1.0352513998776518e+00 +2.3320152716318439e+00 +2.5387244895806543e+01 -3.2787825412309263e+02 -1.2431129784071627e+05 +9.5015125413503381e+05 +6.3896773004392147e+08 
