# field on trajectory
# s[mm] rx[mm] ry[mm] rz[mm] bx[T] by[T] bz[T]
0.0000000000000000e+00 +9.1013000000000002e+00 +0.0000000000000000e+00 +0.0000000000000000e+00 +5.5090840752216846e-02 -1.0153892478841839e+00 -1.0553476646803873e-02
-1.0000000000000001e-01 +9.1012994832472547e+00 +0.0000000000000000e+00 -9.9999999998219777e-02 +5.5089991331557286e-02 -1.0153900003107164e+00 -1.0553365775731438e-02
-2.0000000000000001e-01 +9.1012979329885120e+00 +0.0000000000000000e+00 -1.9999999998575821e-01 +5.5089132863893324e-02 -1.0153907368396839e+00 -1.0553270618617263e-02
-3.0000000000000004e-01 +9.1012953492230224e+00 +0.0000000000000000e+00 -2.9999999995193394e-01 +5.5088264962225984e-02 -1.0153914588106090e+00 -1.0553189818485409e-02
-4.0000000000000002e-01 +9.1012917319500506e+00 +0.0000000000000000e+00 -3.9999999988606555e-01 +5.5087387239533998e-02 -1.0153921675628705e+00 -1.0553122018324416e-02
-5.0000000000000000e-01 +9.1012870811688753e+00 +0.0000000000000000e+00 -4.9999999977747167e-01 +5.5086499308779291e-02 -1.0153928644357113e+00 -1.0553065861096528e-02
-5.9999999999999998e-01 +9.1012813968787878e+00 +0.0000000000000000e+00 -5.9999999961547079e-01 +5.5085600782912643e-02 -1.0153935507682501e+00 -1.0553019989746892e-02
-6.9999999999999996e-01 +9.1012746790790917e+00 +0.0000000000000000e+00 -6.9999999938938151e-01 +5.5084691274878743e-02 -1.0153942278994872e+00 -1.0552983047212767e-02
-7.9999999999999993e-01 +9.1012669277690961e+00 +0.0000000000000000e+00 -7.9999999908852237e-01 +5.5083770397621974e-02 -1.0153948971683158e+00 -1.0552953676432733e-02
-8.9999999999999991e-01 +9.1012581429481223e+00 +0.0000000000000000e+00 -8.9999999870221192e-01 +5.5082837764091695e-02 -1.0153955599135300e+00 -1.0552930520355908e-02
-9.9999999999999989e-01 +9.1012483246154954e+00 +0.0000000000000000e+00 -9.9999999821976859e-01 +5.5081892987247749e-02 -1.0153962174738336e+00 -1.0552912221951155e-02
-1.0999999999999999e+00 +9.1012374727705474e+00 +0.0000000000000000e+00 -1.0999999976305108e+00 +5.5080935680065876e-02 -1.0153968711878492e+00 -1.0552897424216277e-02
-1.2000000000000000e+00 +9.1012255874126140e+00 +0.0000000000000000e+00 -1.1999999969237571e+00 +5.5079965455543209e-02 -1.0153975223941272e+00 -1.0552884770187265e-02
-1.3000000000000000e+00 +9.1012126685410326e+00 +0.0000000000000000e+00 -1.2999999960888258e+00 +5.5078981926703560e-02 -1.0153981724311549e+00 -1.0552872902947453e-02
-1.4000000000000001e+00 +9.1011987161551442e+00 +0.0000000000000000e+00 -1.3999999951150353e+00 +5.5077984706603175e-02 -1.0153988226373651e+00 -1.0552860465636792e-02
-1.5000000000000002e+00 +9.1011837302542880e+00 +0.0000000000000000e+00 -1.4999999939917041e+00 +5.5076973408335880e-02 -1.0153994743511456e+00 -1.0552846101461006e-02
-1.6000000000000003e+00 +9.1011677108378013e+00 +0.0000000000000000e+00 -1.5999999927081505e+00 +5.5075947645038634e-02 -1.0154001289108472e+00 -1.0552828453700829e-02
-1.7000000000000004e+00 +9.1011506579050199e+00 +0.0000000000000000e+00 -1.6999999912536929e+00 +5.5074907029897049e-02 -1.0154007876547937e+00 -1.0552806165721216e-02
-1.8000000000000005e+00 +9.1011325714552758e+00 +0.0000000000000000e+00 -1.7999999896176495e+00 +5.5073851176150740e-02 -1.0154014519212897e+00 -1.0552777880980559e-02
-1.9000000000000006e+00 +9.1011134514878940e+00 +0.0000000000000000e+00 -1.8999999877893388e+00 +5.5072779697098853e-02 -1.0154021230486314e+00 -1.0552742243039887e-02
-2.0000000000000004e+00 +9.1010932980021924e+00 +0.0000000000000000e+00 -1.9999999857580788e+00 +5.5071692206105409e-02 -1.0154028023751123e+00 -1.0552697895572071e-02
-2.1000000000000005e+00 +9.1010721109974835e+00 +0.0000000000000000e+00 -2.0999999835131877e+00 +5.5070588535392311e-02 -1.0154034909371057e+00 -1.0552643821143683e-02
-2.2000000000000006e+00 +9.1010498904730674e+00 +0.0000000000000000e+00 -2.1999999810439843e+00 +5.5069469392379715e-02 -1.0154041885632774e+00 -1.0552580357495176e-02
-2.3000000000000007e+00 +9.1010266364282373e+00 +0.0000000000000000e+00 -2.2999999783397862e+00 +5.5068335703275649e-02 -1.0154048947803807e+00 -1.0552508181141618e-02
-2.4000000000000008e+00 +9.1010023488622753e+00 +0.0000000000000000e+00 -2.3999999753899117e+00 +5.5067188394277822e-02 -1.0154056091151979e+00 -1.0552427968581440e-02
-2.5000000000000009e+00 +9.1009770277744586e+00 +0.0000000000000000e+00 -2.4999999721836792e+00 +5.5066028391569141e-02 -1.0154063310945436e+00 -1.0552340396289116e-02
-2.6000000000000010e+00 +9.1009506731640553e+00 +0.0000000000000000e+00 -2.5999999687104065e+00 +5.5064856621313607e-02 -1.0154070602452776e+00 -1.0552246140707849e-02
-2.7000000000000011e+00 +9.1009232850303245e+00 +0.0000000000000000e+00 -2.6999999649594120e+00 +5.5063674009652001e-02 -1.0154077960943104e+00 -1.0552145878242245e-02
-2.8000000000000012e+00 +9.1008948633725222e+00 +0.0000000000000000e+00 -2.7999999609200135e+00 +5.5062481482697531e-02 -1.0154085381686107e+00 -1.0552040285250971e-02
-2.9000000000000012e+00 +9.1008654081898950e+00 +0.0000000000000000e+00 -2.8999999565815293e+00 +5.5061279966531713e-02 -1.0154092859952153e+00 -1.0551930038039449e-02
-3.0000000000000013e+00 +9.1008349194816844e+00 +0.0000000000000000e+00 -2.9999999519332774e+00 +5.5060070387199983e-02 -1.0154100391012379e+00 -1.0551815812852543e-02
-3.1000000000000014e+00 +9.1008033972471285e+00 +0.0000000000000000e+00 -3.0999999469645760e+00 +5.5058853670707411e-02 -1.0154107970138724e+00 -1.0551698285867196e-02
-3.2000000000000015e+00 +9.1007708414854580e+00 +0.0000000000000000e+00 -3.1999999416647427e+00 +5.5057630743014542e-02 -1.0154115592604076e+00 -1.0551578133185141e-02
-3.3000000000000016e+00 +9.1007372521959002e+00 +0.0000000000000000e+00 -3.2999999360230956e+00 +5.5056402530033091e-02 -1.0154123253682310e+00 -1.0551456030825555e-02
-3.4000000000000017e+00 +9.1007026293776807e+00 +0.0000000000000000e+00 -3.3999999300289527e+00 +5.5055169957621532e-02 -1.0154130948648379e+00 -1.0551332654717731e-02
-3.5000000000000018e+00 +9.1006669730300196e+00 +0.0000000000000000e+00 -3.4999999236716319e+00 +5.5053933951581091e-02 -1.0154138672778403e+00 -1.0551208680693763e-02
-3.6000000000000019e+00 +9.1006302831521335e+00 +0.0000000000000000e+00 -3.5999999169404511e+00 +5.5052695437651164e-02 -1.0154146421349735e+00 -1.0551084784481215e-02
-3.7000000000000020e+00 +9.1005925597432391e+00 +0.0000000000000000e+00 -3.6999999098247280e+00 +5.5051455341505316e-02 -1.0154154189641063e+00 -1.0550961641695767e-02
-3.8000000000000020e+00 +9.1005538028025477e+00 +0.0000000000000000e+00 -3.7999999023137803e+00 +5.5050214588746829e-02 -1.0154161972932472e+00 -1.0550839927833922e-02
-3.9000000000000021e+00 +9.1005140123292723e+00 +0.0000000000000000e+00 -3.8999998943969261e+00 +5.5048974104904523e-02 -1.0154169766505532e+00 -1.0550720318265646e-02
-4.0000000000000018e+00 +9.1004731883226242e+00 +0.0000000000000000e+00 -3.9999998860634829e+00 +5.5047734815428372e-02 -1.0154177565643385e+00 -1.0550603488227046e-02
-4.1000000000000014e+00 +9.1004313307818148e+00 +0.0000000000000000e+00 -4.0999998773027686e+00 +5.5046497572784965e-02 -1.0154185367602488e+00 -1.0550490022836626e-02
-4.2000000000000011e+00 +9.1003884397060535e+00 +0.0000000000000000e+00 -4.1999998681041015e+00 +5.5045262937783161e-02 -1.0154193177527768e+00 -1.0550380147212992e-02
-4.3000000000000007e+00 +9.1003445150945499e+00 +0.0000000000000000e+00 -4.2999998584567987e+00 +5.5044031398331549e-02 -1.0154201002537735e+00 -1.0550273996499269e-02
-4.4000000000000004e+00 +9.1002995569465117e+00 +0.0000000000000000e+00 -4.3999998483501779e+00 +5.5042803442348708e-02 -1.0154208849752859e+00 -1.0550171705856202e-02
-4.5000000000000000e+00 +9.1002535652611467e+00 +0.0000000000000000e+00 -4.4999998377735571e+00 +5.5041579557764925e-02 -1.0154216726295717e+00 -1.0550073410464919e-02
-4.5999999999999996e+00 +9.1002065400376555e+00 +0.0000000000000000e+00 -4.5999998267162532e+00 +5.5040360232523698e-02 -1.0154224639291016e+00 -1.0549979245529618e-02
-4.6999999999999993e+00 +9.1001584812752387e+00 +0.0000000000000000e+00 -4.6999998151675841e+00 +5.5039145954583452e-02 -1.0154232595865709e+00 -1.0549889346280317e-02
-4.7999999999999989e+00 +9.1001093889730917e+00 +0.0000000000000000e+00 -4.7999998031168678e+00 +5.5037937211919102e-02 -1.0154240603149089e+00 -1.0549803847975561e-02
-4.8999999999999986e+00 +9.1000592631304063e+00 +0.0000000000000000e+00 -4.8999997905534212e+00 +5.5036734492523692e-02 -1.0154248668272856e+00 -1.0549722885905161e-02
-4.9999999999999982e+00 +9.1000081037463652e+00 +0.0000000000000000e+00 -4.9999997774665621e+00 +5.5035538284409935e-02 -1.0154256798371224e+00 -1.0549646595392901e-02
-5.0999999999999979e+00 +9.0999559108201460e+00 +0.0000000000000000e+00 -5.0999997638456085e+00 +5.5034349075611964e-02 -1.0154265000580978e+00 -1.0549575111799273e-02
-5.1999999999999975e+00 +9.0999026843509192e+00 +0.0000000000000000e+00 -5.1999997496798773e+00 +5.5033167354186792e-02 -1.0154273282041584e+00 -1.0549508570524200e-02
-5.2999999999999972e+00 +9.0998484243378481e+00 +0.0000000000000000e+00 -5.2999997349586865e+00 +5.5031993608216069e-02 -1.0154281649895285e+00 -1.0549447107009766e-02
-5.3999999999999968e+00 +9.0997931307800872e+00 +0.0000000000000000e+00 -5.3999997196713529e+00 +5.5030828325807545e-02 -1.0154290111287136e+00 -1.0549390856742931e-02
-5.4999999999999964e+00 +9.0997368036767803e+00 +0.0000000000000000e+00 -5.4999997038071937e+00 +5.5029671995096799e-02 -1.0154298673365159e+00 -1.0549339955258278e-02
-5.5999999999999961e+00 +9.0996794430270622e+00 +0.0000000000000000e+00 -5.5999996873555267e+00 +5.5028525104248903e-02 -1.0154307343280373e+00 -1.0549294538140732e-02
-5.6999999999999957e+00 +9.0996210488300555e+00 +0.0000000000000000e+00 -5.6999996703056688e+00 +5.5027388141459792e-02 -1.0154316128186915e+00 -1.0549254741028278e-02
-5.7999999999999954e+00 +9.0995616210848738e+00 +0.0000000000000000e+00 -5.7999996526469380e+00 +5.5026261594958180e-02 -1.0154325035242102e+00 -1.0549220699614715e-02
-5.8999999999999950e+00 +9.0995011597906164e+00 +0.0000000000000000e+00 -5.8999996343686503e+00 +5.5025145953006935e-02 -1.0154334071606534e+00 -1.0549192549652354e-02
-5.9999999999999947e+00 +9.0994396649463702e+00 +0.0000000000000000e+00 -5.9999996154601245e+00 +5.5024041703904902e-02 -1.0154343244444171e+00 -1.0549170426954801e-02
-6.0999999999999943e+00 +9.0993771365512064e+00 +0.0000000000000000e+00 -6.0999995959106768e+00 +5.5022949212342250e-02 -1.0154352559828181e+00 -1.0549154296808584e-02
-6.1999999999999940e+00 +9.0993135746041851e+00 +0.0000000000000000e+00 -6.1999995757096240e+00 +5.5021868348455155e-02 -1.0154362019455239e+00 -1.0549143442184909e-02
-6.2999999999999936e+00 +9.0992489791043507e+00 +0.0000000000000000e+00 -6.2999995548462842e+00 +5.5020798858762557e-02 -1.0154371623923053e+00 -1.0549136975501432e-02
-6.3999999999999932e+00 +9.0991833500507315e+00 +0.0000000000000000e+00 -6.3999995333099733e+00 +5.5019740489815561e-02 -1.0154381373823642e+00 -1.0549134009216305e-02
-6.4999999999999929e+00 +9.0991166874423417e+00 +0.0000000000000000e+00 -6.4999995110900093e+00 +5.5018692988198586e-02 -1.0154391269743039e+00 -1.0549133655829698e-02
-6.5999999999999925e+00 +9.0990489912781811e+00 +0.0000000000000000e+00 -6.5999994881757083e+00 +5.5017656100530728e-02 -1.0154401312261048e+00 -1.0549135027885299e-02
-6.6999999999999922e+00 +9.0989802615572355e+00 +0.0000000000000000e+00 -6.6999994645563881e+00 +5.5016629573466758e-02 -1.0154411501950924e+00 -1.0549137237971837e-02
-6.7999999999999918e+00 +9.0989104982784763e+00 +0.0000000000000000e+00 -6.7999994402213648e+00 +5.5015613153698649e-02 -1.0154421839379149e+00 -1.0549139398724578e-02
-6.8999999999999915e+00 +9.0988397014408573e+00 +0.0000000000000000e+00 -6.8999994151599555e+00 +5.5014606587956545e-02 -1.0154432325105116e+00 -1.0549140622826860e-02
-6.9999999999999911e+00 +9.0987678710433180e+00 +0.0000000000000000e+00 -6.9999993893614771e+00 +5.5013609623010142e-02 -1.0154442959680869e+00 -1.0549140023011588e-02
-7.0999999999999908e+00 +9.0986950070847854e+00 +0.0000000000000000e+00 -7.0999993628152467e+00 +5.5012622005669823e-02 -1.0154453743650826e+00 -1.0549136712062751e-02
-7.1999999999999904e+00 +9.0986211095641689e+00 +0.0000000000000000e+00 -7.1999993355105802e+00 +5.5011643482787975e-02 -1.0154464677551509e+00 -1.0549129802816941e-02
-7.2999999999999901e+00 +9.0985461784803618e+00 +0.0000000000000000e+00 -7.2999993074367948e+00 +5.5010673801260158e-02 -1.0154475761911257e+00 -1.0549118408164858e-02
-7.3999999999999897e+00 +9.0984702138322469e+00 +0.0000000000000000e+00 -7.3999992785832065e+00 +5.5009712708026327e-02 -1.0154486997249952e+00 -1.0549101641052839e-02
-7.4999999999999893e+00 +9.0983932156186871e+00 +0.0000000000000000e+00 -7.4999992489391323e+00 +5.5008759950072164e-02 -1.0154498384078758e+00 -1.0549078614484366e-02
-7.5999999999999890e+00 +9.0983151838385314e+00 +0.0000000000000000e+00 -7.5999992184938892e+00 +5.5007815274430126e-02 -1.0154509922899826e+00 -1.0549048441521571e-02
-7.6999999999999886e+00 +9.0982361184906146e+00 +0.0000000000000000e+00 -7.6999991872367932e+00 +5.5006878428180889e-02 -1.0154521614206025e+00 -1.0549010235286777e-02
-7.7999999999999883e+00 +9.0981560195737536e+00 +0.0000000000000000e+00 -7.7999991551571606e+00 +5.5005949158454408e-02 -1.0154533458480668e+00 -1.0548963108963983e-02
-7.8999999999999879e+00 +9.0980748870867529e+00 +0.0000000000000000e+00 -7.8999991222443082e+00 +5.5005027212431279e-02 -1.0154545456197246e+00 -1.0548906175800420e-02
-7.9999999999999876e+00 +9.0979927210283993e+00 +0.0000000000000000e+00 -7.9999990884875514e+00 +5.5004112337343904e-02 -1.0154557607819132e+00 -1.0548838549108042e-02
-8.0999999999999872e+00 +9.0979095213974652e+00 +0.0000000000000000e+00 -8.0999990538762070e+00 +5.5003204466851280e-02 -1.0154569912730267e+00 -1.0548759726980958e-02
-8.1999999999999869e+00 +9.0978252881927073e+00 +0.0000000000000000e+00 -8.1999990183995912e+00 +5.5002304280131781e-02 -1.0154582366032650e+00 -1.0548670746413101e-02
-8.2999999999999865e+00 +9.0977400214128661e+00 +0.0000000000000000e+00 -8.2999989820470201e+00 +5.5001412642664352e-02 -1.0154594961762238e+00 -1.0548573028998882e-02
-8.3999999999999861e+00 +9.0976537210566697e+00 +0.0000000000000000e+00 -8.3999989448078107e+00 +5.5000530419829059e-02 -1.0154607693959459e+00 -1.0548467996172836e-02
-8.4999999999999858e+00 +9.0975663871228303e+00 +0.0000000000000000e+00 -8.4999989066712782e+00 +5.4999658476903766e-02 -1.0154620556669398e+00 -1.0548357069204341e-02
-8.5999999999999854e+00 +9.0974780196100493e+00 +0.0000000000000000e+00 -8.5999988676267396e+00 +5.4998797679060789e-02 -1.0154633543941989e+00 -1.0548241669192285e-02
-8.6999999999999851e+00 +9.0973886185170141e+00 +0.0000000000000000e+00 -8.6999988276635101e+00 +5.4997948891363502e-02 -1.0154646649832200e+00 -1.0548123217059772e-02
-8.7999999999999847e+00 +9.0972981838423994e+00 +0.0000000000000000e+00 -8.7999987867709049e+00 +5.4997112978763016e-02 -1.0154659868400215e+00 -1.0548003133548827e-02
-8.8999999999999844e+00 +9.0972067155848695e+00 +0.0000000000000000e+00 -8.8999987449382409e+00 +5.4996290806094771e-02 -1.0154673193711616e+00 -1.0547882839215048e-02
-8.9999999999999840e+00 +9.0971142137430796e+00 +0.0000000000000000e+00 -8.9999987021548336e+00 +5.4995483238075120e-02 -1.0154686619837574e+00 -1.0547763754422304e-02
-9.0999999999999837e+00 +9.0970206783156708e+00 +0.0000000000000000e+00 -9.0999986584099979e+00 +5.4994691139298071e-02 -1.0154700140855044e+00 -1.0547647299337444e-02
-9.1999999999999833e+00 +9.0969261093012790e+00 +0.0000000000000000e+00 -9.1999986136930509e+00 +5.4993915374231817e-02 -1.0154713750846918e+00 -1.0547534893924930e-02
-9.2999999999999829e+00 +9.0968305066985273e+00 +0.0000000000000000e+00 -9.2999985679933079e+00 +5.4993156807215400e-02 -1.0154727443902252e+00 -1.0547427957941554e-02
-9.3999999999999826e+00 +9.0967338705060339e+00 +0.0000000000000000e+00 -9.3999985213000841e+00 +5.4992416302455306e-02 -1.0154741214116421e+00 -1.0547327910931086e-02
-9.4999999999999822e+00 +9.0966362007224060e+00 +0.0000000000000000e+00 -9.4999984736026946e+00 +5.4991694724022121e-02 -1.0154755055591320e+00 -1.0547236172218949e-02
-9.5999999999999819e+00 +9.0965374973462456e+00 +0.0000000000000000e+00 -9.5999984248904546e+00 +5.4990992935847187e-02 -1.0154768962435552e+00 -1.0547154160906904e-02
-9.6999999999999815e+00 +9.0964377603761495e+00 +0.0000000000000000e+00 -9.6999983751526813e+00 +5.4990311801719143e-02 -1.0154782928764590e+00 -1.0547083295867699e-02
-9.7999999999999812e+00 +9.0963369898107054e+00 +0.0000000000000000e+00 -9.7999983243786897e+00 +5.4989652185280527e-02 -1.0154796948700988e+00 -1.0547024995739743e-02
-9.8999999999999808e+00 +9.0962351856484975e+00 +0.0000000000000000e+00 -9.8999982725577933e+00 +5.4989014950024485e-02 -1.0154811016374552e+00 -1.0546980678921741e-02
-9.9999999999999805e+00 +9.0961323478881049e+00 +0.0000000000000000e+00 -9.9999982196793091e+00 +5.4988400959291354e-02 -1.0154825125922537e+00 -1.0546951763567389e-02
-1.0099999999999980e+01 +9.0960284765281010e+00 +0.0000000000000000e+00 -1.0099998165732552e+01 +5.4987810786800297e-02 -1.0154839272094975e+00 -1.0546939169073956e-02
-1.0199999999999980e+01 +9.0959235715670594e+00 +0.0000000000000000e+00 -1.0199998110706838e+01 +5.4987243848305938e-02 -1.0154853452066750e+00 -1.0546941820646345e-02
-1.0299999999999979e+01 +9.0958176330035467e+00 +0.0000000000000000e+00 -1.0299998054591482e+01 +5.4986699270229741e-02 -1.0154867663615765e+00 -1.0546958145209279e-02
-1.0399999999999979e+01 +9.0957106608361276e+00 +0.0000000000000000e+00 -1.0399997997375797e+01 +5.4986176179189820e-02 -1.0154881904516717e+00 -1.0546986570023478e-02
-1.0499999999999979e+01 +9.0956026550633648e+00 +0.0000000000000000e+00 -1.0499997939049100e+01 +5.4985673702006431e-02 -1.0154896172541037e+00 -1.0547025522694781e-02
-1.0599999999999978e+01 +9.0954936156838162e+00 +0.0000000000000000e+00 -1.0599997879600705e+01 +5.4985190965707226e-02 -1.0154910465456792e+00 -1.0547073431183246e-02
-1.0699999999999978e+01 +9.0953835426960392e+00 +0.0000000000000000e+00 -1.0699997819019929e+01 +5.4984727097532521e-02 -1.0154924781028596e+00 -1.0547128723812259e-02
-1.0799999999999978e+01 +9.0952724360985897e+00 +0.0000000000000000e+00 -1.0799997757296085e+01 +5.4984281224940777e-02 -1.0154939117017552e+00 -1.0547189829277654e-02
-1.0899999999999977e+01 +9.0951602958900200e+00 +0.0000000000000000e+00 -1.0899997694418488e+01 +5.4983852475613763e-02 -1.0154953471181136e+00 -1.0547255176656835e-02
-1.0999999999999977e+01 +9.0950471220688804e+00 +0.0000000000000000e+00 -1.0999997630376454e+01 +5.4983439977462002e-02 -1.0154967841273137e+00 -1.0547323195417889e-02
-1.1099999999999977e+01 +9.0949329146337199e+00 +0.0000000000000000e+00 -1.1099997565159295e+01 +5.4983042858630114e-02 -1.0154982225043567e+00 -1.0547392315428743e-02
-1.1199999999999976e+01 +9.0948176735830888e+00 +0.0000000000000000e+00 -1.1199997498756330e+01 +5.4982660247502035e-02 -1.0154996620238572e+00 -1.0547460966966241e-02
-1.1299999999999976e+01 +9.0947013989155323e+00 +0.0000000000000000e+00 -1.1299997431156871e+01 +5.4982291272706540e-02 -1.0155011024600364e+00 -1.0547527580725346e-02
-1.1399999999999975e+01 +9.0945840906295974e+00 +0.0000000000000000e+00 -1.1399997362350232e+01 +5.4981935063122371e-02 -1.0155025435867111e+00 -1.0547590587828216e-02
-1.1499999999999975e+01 +9.0944657487238292e+00 +0.0000000000000000e+00 -1.1499997292325730e+01 +5.4981590747883800e-02 -1.0155039851772891e+00 -1.0547648419833397e-02
-1.1599999999999975e+01 +9.0943463731967746e+00 +0.0000000000000000e+00 -1.1599997221072677e+01 +5.4981257456385851e-02 -1.0155054270047572e+00 -1.0547699508744948e-02
-1.1699999999999974e+01 +9.0942259640469771e+00 +0.0000000000000000e+00 -1.1699997148580389e+01 +5.4980934318289619e-02 -1.0155068688416757e+00 -1.0547742287021595e-02
