# field on trajectory
# s[mm] rx[mm] ry[mm] rz[mm] bx[T] by[T] bz[T]
0.0000000000000000e+00 +9.1013000000000002e+00 +0.0000000000000000e+00 +0.0000000000000000e+00 +1.1215444237756250e-02 -1.0332206202166017e+00 -5.8763555262745217e-02
-1.0000000000000001e-01 +9.1012994837021068e+00 +0.0000000000000000e+00 -9.9999999998222899e-02 +1.1215629562682764e-02 -1.0332180034054270e+00 -5.8763893385555245e-02
-2.0000000000000001e-01 +9.1012979348101783e+00 +0.0000000000000000e+00 -1.9999999998578333e-01 +1.1215816032844064e-02 -1.0332153472543784e+00 -5.8764231954060206e-02
-3.0000000000000004e-01 +9.1012953533268686e+00 +0.0000000000000000e+00 -2.9999999995201876e-01 +1.1216003698434710e-02 -1.0332126578892704e+00 -5.8764571504753629e-02
-4.0000000000000002e-01 +9.1012917392548651e+00 +0.0000000000000000e+00 -3.9999999988626689e-01 +1.1216192609627997e-02 -1.0332099414358129e+00 -5.8764912574108784e-02
-5.0000000000000000e-01 +9.1012870925968823e+00 +0.0000000000000000e+00 -4.9999999977786547e-01 +1.1216382816572527e-02 -1.0332072040196467e+00 -5.8765255698585331e-02
-5.9999999999999998e-01 +9.1012814133556557e+00 +0.0000000000000000e+00 -5.9999999961615225e-01 +1.1216574369388757e-02 -1.0332044517663868e+00 -5.8765601414635937e-02
-6.9999999999999996e-01 +9.1012747015339368e+00 +0.0000000000000000e+00 -6.9999999939046520e-01 +1.1216767318165554e-02 -1.0332016908016575e+00 -5.8765950258712812e-02
-7.9999999999999993e-01 +9.1012669571344844e+00 +0.0000000000000000e+00 -7.9999999909014230e-01 +1.1216961712956788e-02 -1.0331989272511335e+00 -5.8766302767274479e-02
-8.9999999999999991e-01 +9.1012581801600625e+00 +0.0000000000000000e+00 -8.9999999870452163e-01 +1.1217157603777853e-02 -1.0331961672405776e+00 -5.8766659476792132e-02
-9.9999999999999989e-01 +9.1012483706134280e+00 +0.0000000000000000e+00 -9.9999999822294139e-01 +1.1217355040602266e-02 -1.0331934168958790e+00 -5.8767020923756456e-02
-1.0999999999999999e+00 +9.1012375284973306e+00 +0.0000000000000000e+00 -1.0999999976347397e+00 +1.1217554073358189e-02 -1.0331906823430936e+00 -5.8767387644684144e-02
-1.2000000000000000e+00 +9.1012256538145042e+00 +0.0000000000000000e+00 -1.1999999969292550e+00 +1.1217754751925034e-02 -1.0331879697084820e+00 -5.8767760176124437e-02
-1.3000000000000000e+00 +9.1012127465676596e+00 +0.0000000000000000e+00 -1.2999999960958255e+00 +1.1217957126129979e-02 -1.0331852851185477e+00 -5.8768139054665852e-02
-1.4000000000000001e+00 +9.1011988067594807e+00 +0.0000000000000000e+00 -1.3999999951237900e+00 +1.1218161245744571e-02 -1.0331826347000765e+00 -5.8768524816942745e-02
-1.5000000000000002e+00 +9.1011838343926179e+00 +0.0000000000000000e+00 -1.4999999940024868e+00 +1.1218367160481253e-02 -1.0331800245801750e+00 -5.8768917999641790e-02
-1.6000000000000003e+00 +9.1011678294696807e+00 +0.0000000000000000e+00 -1.5999999927212547e+00 +1.1218574874721403e-02 -1.0331774589829830e+00 -5.8769318917000164e-02
-1.7000000000000004e+00 +9.1011507919932360e+00 +0.0000000000000000e+00 -1.6999999912694324e+00 +1.1218784211731118e-02 -1.0331749345196091e+00 -5.8769726993251059e-02
-1.8000000000000005e+00 +9.1011327219658078e+00 +0.0000000000000000e+00 -1.7999999896363588e+00 +1.1218994949511953e-02 -1.0331724458979288e+00 -5.8770141430088206e-02
-1.9000000000000006e+00 +9.1011136193898867e+00 +0.0000000000000000e+00 -1.8999999878113725e+00 +1.1219206866083015e-02 -1.0331699878258711e+00 -5.8770561429157188e-02
-2.0000000000000004e+00 +9.1010934842679312e+00 +0.0000000000000000e+00 -1.9999999857838127e+00 +1.1219419739488794e-02 -1.0331675550114032e+00 -5.8770986192046397e-02
-2.1000000000000005e+00 +9.1010723166023748e+00 +0.0000000000000000e+00 -2.0999999835430181e+00 +1.1219633347807057e-02 -1.0331651421625183e+00 -5.8771414920277591e-02
-2.2000000000000006e+00 +9.1010501163956317e+00 +0.0000000000000000e+00 -2.1999999810783279e+00 +1.1219847469156661e-02 -1.0331627439872204e+00 -5.8771846815296791e-02
-2.3000000000000007e+00 +9.1010268836501016e+00 +0.0000000000000000e+00 -2.2999999783790814e+00 +1.1220061881705464e-02 -1.0331603551935107e+00 -5.8772281078464890e-02
-2.4000000000000008e+00 +9.1010026183681756e+00 +0.0000000000000000e+00 -2.3999999754346177e+00 +1.1220276363678139e-02 -1.0331579704893727e+00 -5.8772716911048552e-02
-2.5000000000000009e+00 +9.1009773205522393e+00 +0.0000000000000000e+00 -2.4999999722342761e+00 +1.1220490693364062e-02 -1.0331555845827598e+00 -5.8773153514210794e-02
-2.6000000000000010e+00 +9.1009509902046801e+00 +0.0000000000000000e+00 -2.5999999687673956e+00 +1.1220704649125163e-02 -1.0331531921815791e+00 -5.8773590089001834e-02
-2.7000000000000011e+00 +9.1009236273278926e+00 +0.0000000000000000e+00 -2.6999999650233164e+00 +1.1220918009403788e-02 -1.0331507879936783e+00 -5.8774025836349816e-02
-2.8000000000000012e+00 +9.1008952319242820e+00 +0.0000000000000000e+00 -2.7999999609913773e+00 +1.1221130552730567e-02 -1.0331483667268329e+00 -5.8774459957051557e-02
-2.9000000000000012e+00 +9.1008658039962729e+00 +0.0000000000000000e+00 -2.8999999566609183e+00 +1.1221342057732266e-02 -1.0331459230887299e+00 -5.8774891651763271e-02
-3.0000000000000013e+00 +9.1008353435463096e+00 +0.0000000000000000e+00 -2.9999999520212790e+00 +1.1221552303139643e-02 -1.0331434517869558e+00 -5.8775320120991403e-02
-3.1000000000000014e+00 +9.1008038505768667e+00 +0.0000000000000000e+00 -3.0999999470617992e+00 +1.1221761067795327e-02 -1.0331409475289797e+00 -5.8775744565083166e-02
-3.2000000000000015e+00 +9.1007713250904505e+00 +0.0000000000000000e+00 -3.1999999417718183e+00 +1.1221968130661682e-02 -1.0331384050221435e+00 -5.8776164184217605e-02
-3.3000000000000016e+00 +9.1007377670896048e+00 +0.0000000000000000e+00 -3.2999999361406771e+00 +1.1222173270828650e-02 -1.0331358189736426e+00 -5.8776578178396092e-02
-3.4000000000000017e+00 +9.1007031765769195e+00 +0.0000000000000000e+00 -3.3999999301577151e+00 +1.1222376267521629e-02 -1.0331331840905174e+00 -5.8776985747433126e-02
-3.5000000000000018e+00 +9.1006675535550325e+00 +0.0000000000000000e+00 -3.4999999238122723e+00 +1.1222576900109344e-02 -1.0331304950796343e+00 -5.8777386090947244e-02
-3.6000000000000019e+00 +9.1006308980266333e+00 +0.0000000000000000e+00 -3.5999999170936889e+00 +1.1222774928467599e-02 -1.0331277476335410e+00 -5.8777778507709155e-02
-3.7000000000000020e+00 +9.1005932099944733e+00 +0.0000000000000000e+00 -3.6999999099913055e+00 +1.1222970033994070e-02 -1.0331249413877817e+00 -5.8778162693862553e-02
-3.8000000000000020e+00 +9.1005544894613610e+00 +0.0000000000000000e+00 -3.7999999024944624e+00 +1.1223161878436808e-02 -1.0331220769627800e+00 -5.8778538445129362e-02
-3.9000000000000021e+00 +9.1005147364301617e+00 +0.0000000000000000e+00 -3.8999998945925003e+00 +1.1223350123519278e-02 -1.0331191549778289e+00 -5.8778905557511738e-02
-4.0000000000000018e+00 +9.1004739509038011e+00 +0.0000000000000000e+00 -3.9999998862747601e+00 +1.1223534430935775e-02 -1.0331161760510241e+00 -5.8779263827315055e-02
-4.1000000000000014e+00 +9.1004321328852598e+00 +0.0000000000000000e+00 -4.0999998775305819e+00 +1.1223714462346832e-02 -1.0331131407991916e+00 -5.8779613051170743e-02
-4.2000000000000011e+00 +9.1003892823775772e+00 +0.0000000000000000e+00 -4.1999998683493072e+00 +1.1223889879374617e-02 -1.0331100498378185e+00 -5.8779953026059109e-02
-4.3000000000000007e+00 +9.1003453993838459e+00 +0.0000000000000000e+00 -4.2999998587202768e+00 +1.1224060343598323e-02 -1.0331069037809817e+00 -5.8780283549332145e-02
-4.4000000000000004e+00 +9.1003004839072137e+00 +0.0000000000000000e+00 -4.3999998486328318e+00 +1.1224225516549592e-02 -1.0331037032412780e+00 -5.8780604418736421e-02
-4.5000000000000000e+00 +9.1002545359508851e+00 +0.0000000000000000e+00 -4.4999998380763140e+00 +1.1224385059707909e-02 -1.0331004488297535e+00 -5.8780915432435861e-02
-4.5999999999999996e+00 +9.1002075555181179e+00 +0.0000000000000000e+00 -4.5999998270400635e+00 +1.1224538634496007e-02 -1.0330971411558361e+00 -5.8781216389034718e-02
-4.6999999999999993e+00 +9.1001595426122215e+00 +0.0000000000000000e+00 -4.6999998155134231e+00 +1.1224685902275275e-02 -1.0330937808272587e+00 -5.8781507087600285e-02
-4.7999999999999989e+00 +9.1001104972365603e+00 +0.0000000000000000e+00 -4.7999998034857336e+00 +1.1224826524341154e-02 -1.0330903684499966e+00 -5.8781787327685832e-02
-4.8999999999999986e+00 +9.1000604193945485e+00 +0.0000000000000000e+00 -4.8999997909463371e+00 +1.1224960161918545e-02 -1.0330869046281914e+00 -5.8782056909353377e-02
-4.9999999999999982e+00 +9.1000093090896534e+00 +0.0000000000000000e+00 -4.9999997778845753e+00 +1.1225086476157201e-02 -1.0330833899640834e+00 -5.8782315633196573e-02
-5.0999999999999979e+00 +9.0999571663253942e+00 +0.0000000000000000e+00 -5.0999997642897910e+00 +1.1225205128127160e-02 -1.0330798250579418e+00 -5.8782563300363591e-02
-5.1999999999999975e+00 +9.0999039911053377e+00 +0.0000000000000000e+00 -5.1999997501513260e+00 +1.1225315778814120e-02 -1.0330762105079918e+00 -5.8782799712579943e-02
-5.2999999999999972e+00 +9.0998497834331040e+00 +0.0000000000000000e+00 -5.2999997354585222e+00 +1.1225418089114843e-02 -1.0330725469103474e+00 -5.8783024672171259e-02
-5.3999999999999968e+00 +9.0997945433123579e+00 +0.0000000000000000e+00 -5.3999997202007224e+00 +1.1225511719832585e-02 -1.0330688348589383e+00 -5.8783237982086289e-02
-5.4999999999999964e+00 +9.0997382707468155e+00 +0.0000000000000000e+00 -5.4999997043672693e+00 +1.1225596331672465e-02 -1.0330650749454422e+00 -5.8783439445919607e-02
-5.5999999999999961e+00 +9.0996809657402409e+00 +0.0000000000000000e+00 -5.5999996879475047e+00 +1.1225671775129443e-02 -1.0330612684774148e+00 -5.8783629350888704e-02
-5.6999999999999957e+00 +9.0996226282964443e+00 +0.0000000000000000e+00 -5.6999996709307723e+00 +1.1225738660238746e-02 -1.0330574196342406e+00 -5.8783809916389547e-02
-5.7999999999999954e+00 +9.0995632584192769e+00 +0.0000000000000000e+00 -5.7999996533064149e+00 +1.1225797787017948e-02 -1.0330535333149571e+00 -5.8783983844520091e-02
-5.8999999999999950e+00 +9.0995028561126308e+00 +0.0000000000000000e+00 -5.8999996350637760e+00 +1.1225849955593016e-02 -1.0330496144204870e+00 -5.8784153837009939e-02
-5.9999999999999947e+00 +9.0994414213804262e+00 +0.0000000000000000e+00 -5.9999996161921985e+00 +1.1225895966203072e-02 -1.0330456678537563e+00 -5.8784322595196954e-02
-6.0999999999999943e+00 +9.0993789542266139e+00 +0.0000000000000000e+00 -6.0999995966810259e+00 +1.1225936619205191e-02 -1.0330416985198065e+00 -5.8784492820004176e-02
-6.1999999999999940e+00 +9.0993154546551676e+00 +0.0000000000000000e+00 -6.1999995765196019e+00 +1.1225972715079122e-02 -1.0330377113259084e+00 -5.8784667211916393e-02
-6.2999999999999936e+00 +9.0992509226700786e+00 +0.0000000000000000e+00 -6.2999995556972701e+00 +1.1226005054432091e-02 -1.0330337111816761e+00 -5.8784848470956899e-02
-6.3999999999999932e+00 +9.0991853582753510e+00 +0.0000000000000000e+00 -6.3999995342033742e+00 +1.1226034438003562e-02 -1.0330297029991824e+00 -5.8785039296664336e-02
-6.4999999999999929e+00 +9.0991187614749975e+00 +0.0000000000000000e+00 -6.4999995120272587e+00 +1.1226061666669999e-02 -1.0330256916930700e+00 -5.8785242388069273e-02
-6.5999999999999925e+00 +9.0990511322730327e+00 +0.0000000000000000e+00 -6.5999994891582672e+00 +1.1226087541449643e-02 -1.0330216821806684e+00 -5.8785460443671000e-02
-6.6999999999999922e+00 +9.0989824706734712e+00 +0.0000000000000000e+00 -6.6999994655857442e+00 +1.1226112863507266e-02 -1.0330176793821053e+00 -5.8785696161414241e-02
-6.7999999999999918e+00 +9.0989127766803186e+00 +0.0000000000000000e+00 -6.7999994412990334e+00 +1.1226138434158948e-02 -1.0330136882204228e+00 -5.8785952238665881e-02
-6.8999999999999915e+00 +9.0988420502975735e+00 +0.0000000000000000e+00 -6.8999994162874803e+00 +1.1226165054876832e-02 -1.0330097136216898e+00 -5.8786231372191584e-02
-6.9999999999999911e+00 +9.0987702915292132e+00 +0.0000000000000000e+00 -6.9999993905404283e+00 +1.1226193527293909e-02 -1.0330057605151159e+00 -5.8786536258132599e-02
-7.0999999999999908e+00 +9.0986975003791954e+00 +0.0000000000000000e+00 -7.0999993640472230e+00 +1.1226224653208751e-02 -1.0330018338331670e+00 -5.8786869591982413e-02
-7.1999999999999904e+00 +9.0986236768514530e+00 +0.0000000000000000e+00 -7.1999993367972088e+00 +1.1226259234590294e-02 -1.0329979385116772e+00 -5.8787234068563385e-02
-7.2999999999999901e+00 +9.0985488209498868e+00 +0.0000000000000000e+00 -7.2999993087797304e+00 +1.1226298073582611e-02 -1.0329940794899635e+00 -5.8787632382003602e-02
-7.3999999999999897e+00 +9.0984729326783604e+00 +0.0000000000000000e+00 -7.3999992799841330e+00 +1.1226341972509641e-02 -1.0329902617109401e+00 -5.8788067225713350e-02
-7.4999999999999893e+00 +9.0983960120406966e+00 +0.0000000000000000e+00 -7.4999992503997621e+00 +1.1226391733879997e-02 -1.0329864901212336e+00 -5.8788541292361940e-02
-7.5999999999999890e+00 +9.0983180590406718e+00 +0.0000000000000000e+00 -7.5999992200159623e+00 +1.1226447947168863e-02 -1.0329827684086446e+00 -5.8789056246272189e-02
-7.6999999999999886e+00 +9.0982390736820165e+00 +0.0000000000000000e+00 -7.6999991888220789e+00 +1.1226510348972223e-02 -1.0329790952123463e+00 -5.8789609640873111e-02
-7.7999999999999883e+00 +9.0981590559684076e+00 +0.0000000000000000e+00 -7.7999991568074574e+00 +1.1226578462397069e-02 -1.0329754679076475e+00 -5.8790198002033875e-02
-7.8999999999999879e+00 +9.0980780059034796e+00 +0.0000000000000000e+00 -7.8999991239614431e+00 +1.1226651810242618e-02 -1.0329718838681727e+00 -5.8790817855776827e-02
-7.9999999999999876e+00 +9.0979959234908243e+00 +0.0000000000000000e+00 -7.9999990902733806e+00 +1.1226729914989134e-02 -1.0329683404657914e+00 -5.8791465728285343e-02
-8.0999999999999872e+00 +9.0979128087339909e+00 +0.0000000000000000e+00 -8.0999990557326171e+00 +1.1226812298786684e-02 -1.0329648350705500e+00 -5.8792138145911235e-02
-8.1999999999999869e+00 +9.0978286616364930e+00 +0.0000000000000000e+00 -8.1999990203284963e+00 +1.1226898483443921e-02 -1.0329613650506020e+00 -5.8792831635182626e-02
-8.2999999999999865e+00 +9.0977434822018068e+00 +0.0000000000000000e+00 -8.2999989840503652e+00 +1.1226987990416912e-02 -1.0329579277721401e+00 -5.8793542722811516e-02
-8.3999999999999861e+00 +9.0976572704333769e+00 +0.0000000000000000e+00 -8.3999989468875693e+00 +1.1227080340797876e-02 -1.0329545205993258e+00 -5.8794267935701423e-02
-8.4999999999999858e+00 +9.0975700263346173e+00 +0.0000000000000000e+00 -8.4999989088294541e+00 +1.1227175055304000e-02 -1.0329511408942200e+00 -5.8795003800955155e-02
-8.5999999999999854e+00 +9.0974817499089156e+00 +0.0000000000000000e+00 -8.5999988698653649e+00 +1.1227271654266234e-02 -1.0329477860167164e+00 -5.8795746845882457e-02
-8.6999999999999851e+00 +9.0973924411596343e+00 +0.0000000000000000e+00 -8.6999988299846489e+00 +1.1227369657618048e-02 -1.0329444533244687e+00 -5.8796493598007663e-02
-8.7999999999999847e+00 +9.0973021000901149e+00 +0.0000000000000000e+00 -8.7999987891766516e+00 +1.1227468584884251e-02 -1.0329411401728232e+00 -5.8797240585077383e-02
-8.8999999999999844e+00 +9.0972107267036773e+00 +0.0000000000000000e+00 -8.8999987474307201e+00 +1.1227567955169774e-02 -1.0329378439147501e+00 -5.8797984335068346e-02
-8.9999999999999840e+00 +9.0971183210036255e+00 +0.0000000000000000e+00 -8.9999987047361998e+00 +1.1227667287148425e-02 -1.0329345619007726e+00 -5.8798721376194886e-02
-9.0999999999999837e+00 +9.0970248829932494e+00 +0.0000000000000000e+00 -9.0999986610824379e+00 +1.1227766099051741e-02 -1.0329312914789006e+00 -5.8799448236916851e-02
-9.1999999999999833e+00 +9.0969304126758281e+00 +0.0000000000000000e+00 -9.1999986164587799e+00 +1.1227863908657711e-02 -1.0329280299945569e+00 -5.8800161445947199e-02
-9.2999999999999829e+00 +9.0968349100546320e+00 +0.0000000000000000e+00 -9.2999985708545729e+00 +1.1227960233279616e-02 -1.0329247747905121e+00 -5.8800857532259790e-02
-9.3999999999999826e+00 +9.0967383751329240e+00 +0.0000000000000000e+00 -9.3999985242591624e+00 +1.1228054589754790e-02 -1.0329215232068136e+00 -5.8801533025097094e-02
-9.4999999999999822e+00 +9.0966408079139658e+00 +0.0000000000000000e+00 -9.4999984766618955e+00 +1.1228146494433409e-02 -1.0329182725807153e+00 -5.8802184453977883e-02
-9.5999999999999819e+00 +9.0965422084010150e+00 +0.0000000000000000e+00 -9.5999984280521193e+00 +1.1228235634421591e-02 -1.0329150221992720e+00 -5.8802809212597874e-02
-9.6999999999999815e+00 +9.0964425765973296e+00 +0.0000000000000000e+00 -9.6999983784191812e+00 +1.1228322381657439e-02 -1.0329117791592199e+00 -5.8803408150663546e-02
-9.7999999999999812e+00 +9.0963419125061602e+00 +0.0000000000000000e+00 -9.7999983277524283e+00 +1.1228407279644649e-02 -1.0329085525116264e+00 -5.8803982982124657e-02
-9.8999999999999808e+00 +9.0962402161307434e+00 +0.0000000000000000e+00 -9.8999982760412077e+00 +1.1228490872266279e-02 -1.0329053513095003e+00 -5.8804535421206970e-02
-9.9999999999999805e+00 +9.0961374874742873e+00 +0.0000000000000000e+00 -9.9999982232748650e+00 +1.1228573703796317e-02 -1.0329021846078505e+00 -5.8805067182419110e-02
-1.0099999999999980e+01 +9.0960337265399662e+00 +0.0000000000000000e+00 -1.0099998169442749e+01 +1.1228656318911219e-02 -1.0328990614637417e+00 -5.8805579980559262e-02
-1.0199999999999980e+01 +9.0959289333309137e+00 +0.0000000000000000e+00 -1.0199998114534207e+01 +1.1228739262701475e-02 -1.0328959909363498e+00 -5.8806075530722181e-02
-1.0299999999999979e+01 +9.0958231078502063e+00 +0.0000000000000000e+00 -1.0299998058538586e+01 +1.1228823080683147e-02 -1.0328929820870170e+00 -5.8806555548305828e-02
-1.0399999999999979e+01 +9.0957162501008639e+00 +0.0000000000000000e+00 -1.0399998001445233e+01 +1.1228908318809449e-02 -1.0328900439793101e+00 -5.8807021749018341e-02
-1.0499999999999979e+01 +9.0956083600858317e+00 +0.0000000000000000e+00 -1.0499997943243496e+01 +1.1228995523482265e-02 -1.0328871856790771e+00 -5.8807475848884828e-02
-1.0599999999999978e+01 +9.0954994378079785e+00 +0.0000000000000000e+00 -1.0599997883922722e+01 +1.1229085241563722e-02 -1.0328844162545001e+00 -5.8807919564254137e-02
-1.0699999999999978e+01 +9.0953894832700826e+00 +0.0000000000000000e+00 -1.0699997823472257e+01 +1.1229178020387726e-02 -1.0328817447761540e+00 -5.8808354611805724e-02
-1.0799999999999978e+01 +9.0952784964748243e+00 +0.0000000000000000e+00 -1.0799997761881450e+01 +1.1229274407771514e-02 -1.0328791803170618e+00 -5.8808782708556467e-02
-1.0899999999999977e+01 +9.0951664774247778e+00 +0.0000000000000000e+00 -1.0899997699139648e+01 +1.1229374952027195e-02 -1.0328767319527519e+00 -5.8809205571867459e-02
-1.0999999999999977e+01 +9.0950534261223996e+00 +0.0000000000000000e+00 -1.0999997635236198e+01 +1.1229480201973317e-02 -1.0328744087613118e+00 -5.8809624919450819e-02
-1.1099999999999977e+01 +9.0949393425700258e+00 +0.0000000000000000e+00 -1.1099997570160449e+01 +1.1229590706946378e-02 -1.0328722198234466e+00 -5.8810042469376517e-02
-1.1199999999999976e+01 +9.0948242267698536e+00 +0.0000000000000000e+00 -1.1199997503901745e+01 +1.1229707016812397e-02 -1.0328701742225332e+00 -5.8810459940079204e-02
-1.1299999999999976e+01 +9.0947080787239383e+00 +0.0000000000000000e+00 -1.1299997436449436e+01 +1.1229829681978437e-02 -1.0328682810446772e+00 -5.8810879050364931e-02
-1.1399999999999975e+01 +9.0945908984341841e+00 +0.0000000000000000e+00 -1.1399997367792867e+01 +1.1229959253404163e-02 -1.0328665493787705e+00 -5.8811301519418054e-02
-1.1499999999999975e+01 +9.0944726859023337e+00 +0.0000000000000000e+00 -1.1499997297921386e+01 +1.1230096282613365e-02 -1.0328649883165444e+00 -5.8811729066807983e-02
-1.1599999999999975e+01 +9.0943534411299591e+00 +0.0000000000000000e+00 -1.1599997226824337e+01 +1.1230241093975602e-02 -1.0328636025882068e+00 -5.8812163184559979e-02
-1.1699999999999974e+01 +9.0942331641184602e+00 +0.0000000000000000e+00 -1.1699997154491070e+01 +1.1230393101125696e-02 -1.0328623794645870e+00 -5.8812604452917021e-02
