# trajectory
# s[mm] rx[mm] ry[mm] rz[mm] px[rad] py[rad] pz[rad]
0.0000000000000000e+00 +9.1013000000000002e+00 +0.0000000000000000e+00 +0.0000000000000000e+00 +0.0000000000000000e+00 +0.0000000000000000e+00 +1.0000000000000000e+00
-1.0000000000000001e-01 +9.1012994837021068e+00 +0.0000000000000000e+00 -9.9999999998222899e-02 +1.0325953499445427e-05 +0.0000000000000000e+00 +9.9999999994668731e-01
-2.0000000000000001e-01 +9.1012979348101783e+00 +0.0000000000000000e+00 -1.9999999998578333e-01 +2.0651880643798735e-05 +0.0000000000000000e+00 +9.9999999978674992e-01
-3.0000000000000004e-01 +9.1012953533268686e+00 +0.0000000000000000e+00 -2.9999999995201876e-01 +3.0977781069408456e-05 +0.0000000000000000e+00 +9.9999999952018859e-01
-4.0000000000000002e-01 +9.1012917392548651e+00 +0.0000000000000000e+00 -3.9999999988626689e-01 +4.1303654473843725e-05 +0.0000000000000000e+00 +9.9999999914700410e-01
-5.0000000000000000e-01 +9.1012870925968823e+00 +0.0000000000000000e+00 -4.9999999977786547e-01 +5.1629500615893442e-05 +0.0000000000000000e+00 +9.9999999866719735e-01
-5.9999999999999998e-01 +9.1012814133556557e+00 +0.0000000000000000e+00 -5.9999999961615225e-01 +6.1955319315565755e-05 +0.0000000000000000e+00 +9.9999999808076923e-01
-6.9999999999999996e-01 +9.1012747015339368e+00 +0.0000000000000000e+00 -6.9999999939046520e-01 +7.2281110454088023e-05 +0.0000000000000000e+00 +9.9999999738772061e-01
-7.9999999999999993e-01 +9.1012669571344844e+00 +0.0000000000000000e+00 -7.9999999909014230e-01 +8.2606873973907068e-05 +0.0000000000000000e+00 +9.9999999658805228e-01
-8.9999999999999991e-01 +9.1012581801600625e+00 +0.0000000000000000e+00 -8.9999999870452163e-01 +9.2932609878689919e-05 +0.0000000000000000e+00 +9.9999999568176512e-01
-9.9999999999999989e-01 +9.1012483706134280e+00 +0.0000000000000000e+00 -9.9999999822294139e-01 +1.0325831823332483e-04 +0.0000000000000000e+00 +9.9999999466885992e-01
-1.0999999999999999e+00 +9.1012375284973306e+00 +0.0000000000000000e+00 -1.0999999976347397e+00 +1.1358399916392280e-04 +0.0000000000000000e+00 +9.9999999354933766e-01
-1.2000000000000000e+00 +9.1012256538145042e+00 +0.0000000000000000e+00 -1.1999999969292550e+00 +1.2390965285781936e-04 +0.0000000000000000e+00 +9.9999999232319903e-01
-1.3000000000000000e+00 +9.1012127465676596e+00 +0.0000000000000000e+00 -1.2999999960958255e+00 +1.3423527956357687e-04 +0.0000000000000000e+00 +9.9999999099044490e-01
-1.4000000000000001e+00 +9.1011988067594807e+00 +0.0000000000000000e+00 -1.3999999951237900e+00 +1.4456087959098713e-04 +0.0000000000000000e+00 +9.9999998955107605e-01
-1.5000000000000002e+00 +9.1011838343926179e+00 +0.0000000000000000e+00 -1.4999999940024868e+00 +1.5488645331107438e-04 +0.0000000000000000e+00 +9.9999998800509327e-01
-1.6000000000000003e+00 +9.1011678294696807e+00 +0.0000000000000000e+00 -1.5999999927212547e+00 +1.6521200115134324e-04 +0.0000000000000000e+00 +9.9999998635249732e-01
-1.7000000000000004e+00 +9.1011507919932360e+00 +0.0000000000000000e+00 -1.6999999912694324e+00 +1.7553752354347227e-04 +0.0000000000000000e+00 +9.9999998459328887e-01
-1.8000000000000005e+00 +9.1011327219658078e+00 +0.0000000000000000e+00 -1.7999999896363588e+00 +1.8586302087100580e-04 +0.0000000000000000e+00 +9.9999998272746871e-01
-1.9000000000000006e+00 +9.1011136193898867e+00 +0.0000000000000000e+00 -1.8999999878113725e+00 +1.9618849346459921e-04 +0.0000000000000000e+00 +9.9999998075503749e-01
-2.0000000000000004e+00 +9.1010934842679312e+00 +0.0000000000000000e+00 -1.9999999857838127e+00 +2.0651394160201925e-04 +0.0000000000000000e+00 +9.9999997867599588e-01
-2.1000000000000005e+00 +9.1010723166023748e+00 +0.0000000000000000e+00 -2.0999999835430181e+00 +2.1683936550814456e-04 +0.0000000000000000e+00 +9.9999997649034467e-01
-2.2000000000000006e+00 +9.1010501163956317e+00 +0.0000000000000000e+00 -2.1999999810783279e+00 +2.2716476535496571e-04 +0.0000000000000000e+00 +9.9999997419808451e-01
-2.3000000000000007e+00 +9.1010268836501016e+00 +0.0000000000000000e+00 -2.2999999783790814e+00 +2.3749014126158525e-04 +0.0000000000000000e+00 +9.9999997179921618e-01
-2.4000000000000008e+00 +9.1010026183681756e+00 +0.0000000000000000e+00 -2.3999999754346177e+00 +2.4781549329421773e-04 +0.0000000000000000e+00 +9.9999996929374035e-01
-2.5000000000000009e+00 +9.1009773205522393e+00 +0.0000000000000000e+00 -2.4999999722342761e+00 +2.5814082146618925e-04 +0.0000000000000000e+00 +9.9999996668165780e-01
-2.6000000000000010e+00 +9.1009509902046801e+00 +0.0000000000000000e+00 -2.5999999687673956e+00 +2.6846612573793729e-04 +0.0000000000000000e+00 +9.9999996396296920e-01
-2.7000000000000011e+00 +9.1009236273278926e+00 +0.0000000000000000e+00 -2.6999999650233164e+00 +2.7879140601701007e-04 +0.0000000000000000e+00 +9.9999996113767542e-01
-2.8000000000000012e+00 +9.1008952319242820e+00 +0.0000000000000000e+00 -2.7999999609913773e+00 +2.8911666215806586e-04 +0.0000000000000000e+00 +9.9999995820577714e-01
-2.9000000000000012e+00 +9.1008658039962729e+00 +0.0000000000000000e+00 -2.8999999566609183e+00 +2.9944189396287232e-04 +0.0000000000000000e+00 +9.9999995516727525e-01
-3.0000000000000013e+00 +9.1008353435463096e+00 +0.0000000000000000e+00 -2.9999999520212790e+00 +3.0976710118030547e-04 +0.0000000000000000e+00 +9.9999995202217051e-01
-3.1000000000000014e+00 +9.1008038505768667e+00 +0.0000000000000000e+00 -3.0999999470617992e+00 +3.2009228350634851e-04 +0.0000000000000000e+00 +9.9999994877046383e-01
-3.2000000000000015e+00 +9.1007713250904505e+00 +0.0000000000000000e+00 -3.1999999417718183e+00 +3.3041744058409075e-04 +0.0000000000000000e+00 +9.9999994541215609e-01
-3.3000000000000016e+00 +9.1007377670896048e+00 +0.0000000000000000e+00 -3.2999999361406771e+00 +3.4074257200372623e-04 +0.0000000000000000e+00 +9.9999994194724817e-01
-3.4000000000000017e+00 +9.1007031765769195e+00 +0.0000000000000000e+00 -3.3999999301577151e+00 +3.5106767730255209e-04 +0.0000000000000000e+00 +9.9999993837574108e-01
-3.5000000000000018e+00 +9.1006675535550325e+00 +0.0000000000000000e+00 -3.4999999238122723e+00 +3.6139275596496704e-04 +0.0000000000000000e+00 +9.9999993469763582e-01
-3.6000000000000019e+00 +9.1006308980266333e+00 +0.0000000000000000e+00 -3.5999999170936889e+00 +3.7171780742493277e-04 +0.0000000000000000e+00 +9.9999993091293338e-01
-3.7000000000000020e+00 +9.1005932099944733e+00 +0.0000000000000000e+00 -3.6999999099913055e+00 +3.8204283109306598e-04 +0.0000000000000000e+00 +9.9999992702163487e-01
-3.8000000000000020e+00 +9.1005544894613610e+00 +0.0000000000000000e+00 -3.7999999024944624e+00 +3.9236782638372590e-04 +0.0000000000000000e+00 +9.9999992302374141e-01
-3.9000000000000021e+00 +9.1005147364301617e+00 +0.0000000000000000e+00 -3.8999998945925003e+00 +4.0269279271746671e-04 +0.0000000000000000e+00 +9.9999991891925399e-01
-4.0000000000000018e+00 +9.1004739509038011e+00 +0.0000000000000000e+00 -3.9999998862747601e+00 +4.1301772952102590e-04 +0.0000000000000000e+00 +9.9999991470817384e-01
-4.1000000000000014e+00 +9.1004321328852598e+00 +0.0000000000000000e+00 -4.0999998775305819e+00 +4.2334263622731188e-04 +0.0000000000000000e+00 +9.9999991039050207e-01
-4.2000000000000011e+00 +9.1003892823775772e+00 +0.0000000000000000e+00 -4.1999998683493072e+00 +4.3366751227539105e-04 +0.0000000000000000e+00 +9.9999990596623989e-01
-4.3000000000000007e+00 +9.1003453993838459e+00 +0.0000000000000000e+00 -4.2999998587202768e+00 +4.4399235711047388e-04 +0.0000000000000000e+00 +9.9999990143538842e-01
-4.4000000000000004e+00 +9.1003004839072137e+00 +0.0000000000000000e+00 -4.3999998486328318e+00 +4.5431717018390075e-04 +0.0000000000000000e+00 +9.9999989679794898e-01
-4.5000000000000000e+00 +9.1002545359508851e+00 +0.0000000000000000e+00 -4.4999998380763140e+00 +4.6464195095312659e-04 +0.0000000000000000e+00 +9.9999989205392270e-01
-4.5999999999999996e+00 +9.1002075555181179e+00 +0.0000000000000000e+00 -4.5999998270400635e+00 +4.7496669888170506e-04 +0.0000000000000000e+00 +9.9999988720331090e-01
-4.6999999999999993e+00 +9.1001595426122215e+00 +0.0000000000000000e+00 -4.6999998155134231e+00 +4.8529141343927207e-04 +0.0000000000000000e+00 +9.9999988224611491e-01
-4.7999999999999989e+00 +9.1001104972365603e+00 +0.0000000000000000e+00 -4.7999998034857336e+00 +4.9561609410152848e-04 +0.0000000000000000e+00 +9.9999987718233596e-01
-4.8999999999999986e+00 +9.1000604193945485e+00 +0.0000000000000000e+00 -4.8999997909463371e+00 +5.0594074035022218e-04 +0.0000000000000000e+00 +9.9999987201197527e-01
-4.9999999999999982e+00 +9.1000093090896534e+00 +0.0000000000000000e+00 -4.9999997778845753e+00 +5.1626535167312944e-04 +0.0000000000000000e+00 +9.9999986673503427e-01
-5.0999999999999979e+00 +9.0999571663253942e+00 +0.0000000000000000e+00 -5.0999997642897910e+00 +5.2658992756403550e-04 +0.0000000000000000e+00 +9.9999986135151431e-01
-5.1999999999999975e+00 +9.0999039911053377e+00 +0.0000000000000000e+00 -5.1999997501513260e+00 +5.3691446752271465e-04 +0.0000000000000000e+00 +9.9999985586141671e-01
-5.2999999999999972e+00 +9.0998497834331040e+00 +0.0000000000000000e+00 -5.2999997354585222e+00 +5.4723897105490925e-04 +0.0000000000000000e+00 +9.9999985026474292e-01
-5.3999999999999968e+00 +9.0997945433123579e+00 +0.0000000000000000e+00 -5.3999997202007224e+00 +5.5756343767230830e-04 +0.0000000000000000e+00 +9.9999984456149427e-01
-5.4999999999999964e+00 +9.0997382707468155e+00 +0.0000000000000000e+00 -5.4999997043672693e+00 +5.6788786689252553e-04 +0.0000000000000000e+00 +9.9999983875167220e-01
-5.5999999999999961e+00 +9.0996809657402409e+00 +0.0000000000000000e+00 -5.5999996879475047e+00 +5.7821225824087057e-04 +0.0000000000000000e+00 +9.9999983283527816e-01
-5.6999999999999957e+00 +9.0996226282964443e+00 +0.0000000000000000e+00 -5.6999996709307723e+00 +5.8853661127006892e-04 +0.0000000000000000e+00 +9.9999982681231347e-01
-5.7999999999999954e+00 +9.0995632584192769e+00 +0.0000000000000000e+00 -5.7999996533064149e+00 +5.9886092558000402e-04 +0.0000000000000000e+00 +9.9999982068277971e-01
-5.8999999999999950e+00 +9.0995028561126308e+00 +0.0000000000000000e+00 -5.8999996350637760e+00 +6.0918520081952967e-04 +0.0000000000000000e+00 +9.9999981444667818e-01
-5.9999999999999947e+00 +9.0994414213804262e+00 +0.0000000000000000e+00 -5.9999996161921985e+00 +6.1950943668648913e-04 +0.0000000000000000e+00 +9.9999980810401035e-01
-6.0999999999999943e+00 +9.0993789542266139e+00 +0.0000000000000000e+00 -6.0999995966810259e+00 +6.2983363292773583e-04 +0.0000000000000000e+00 +9.9999980165477753e-01
-6.1999999999999940e+00 +9.0993154546551676e+00 +0.0000000000000000e+00 -6.1999995765196019e+00 +6.4015778933915505e-04 +0.0000000000000000e+00 +9.9999979509898118e-01
-6.2999999999999936e+00 +9.0992509226700786e+00 +0.0000000000000000e+00 -6.2999995556972701e+00 +6.5048190576568691e-04 +0.0000000000000000e+00 +9.9999978843662252e-01
-6.3999999999999932e+00 +9.0991853582753510e+00 +0.0000000000000000e+00 -6.3999995342033742e+00 +6.6080598210134999e-04 +0.0000000000000000e+00 +9.9999978166770298e-01
-6.4999999999999929e+00 +9.0991187614749975e+00 +0.0000000000000000e+00 -6.4999995120272587e+00 +6.7113001828926684e-04 +0.0000000000000000e+00 +9.9999977479222368e-01
-6.5999999999999925e+00 +9.0990511322730327e+00 +0.0000000000000000e+00 -6.5999994891582672e+00 +6.8145401432169006e-04 +0.0000000000000000e+00 +9.9999976781018596e-01
-6.6999999999999922e+00 +9.0989824706734712e+00 +0.0000000000000000e+00 -6.6999994655857442e+00 +6.9177797024002978e-04 +0.0000000000000000e+00 +9.9999976072159102e-01
-6.7999999999999918e+00 +9.0989127766803186e+00 +0.0000000000000000e+00 -6.7999994412990334e+00 +7.0210188613488227e-04 +0.0000000000000000e+00 +9.9999975352644010e-01
-6.8999999999999915e+00 +9.0988420502975735e+00 +0.0000000000000000e+00 -6.8999994162874803e+00 +7.1242576214605941e-04 +0.0000000000000000e+00 +9.9999974622473420e-01
-6.9999999999999911e+00 +9.0987702915292132e+00 +0.0000000000000000e+00 -6.9999993905404283e+00 +7.2274959846261959e-04 +0.0000000000000000e+00 +9.9999973881647453e-01
-7.0999999999999908e+00 +9.0986975003791954e+00 +0.0000000000000000e+00 -7.0999993640472230e+00 +7.3307339532289973e-04 +0.0000000000000000e+00 +9.9999973130166209e-01
-7.1999999999999904e+00 +9.0986236768514530e+00 +0.0000000000000000e+00 -7.1999993367972088e+00 +7.4339715301454843e-04 +0.0000000000000000e+00 +9.9999972368029788e-01
-7.2999999999999901e+00 +9.0985488209498868e+00 +0.0000000000000000e+00 -7.2999993087797304e+00 +7.5372087187456022e-04 +0.0000000000000000e+00 +9.9999971595238291e-01
-7.3999999999999897e+00 +9.0984729326783604e+00 +0.0000000000000000e+00 -7.3999992799841330e+00 +7.6404455228931060e-04 +0.0000000000000000e+00 +9.9999970811791805e-01
-7.4999999999999893e+00 +9.0983960120406966e+00 +0.0000000000000000e+00 -7.4999992503997621e+00 +7.7436819469459302e-04 +0.0000000000000000e+00 +9.9999970017690420e-01
-7.5999999999999890e+00 +9.0983180590406718e+00 +0.0000000000000000e+00 -7.5999992200159623e+00 +7.8469179957250165e-04 +0.0000000000000000e+00 +9.9999969212934203e-01
-7.6999999999999886e+00 +9.0982390736820165e+00 +0.0000000000000000e+00 -7.6999991888220789e+00 +7.9501536741676177e-04 +0.0000000000000000e+00 +9.9999968397523242e-01
-7.7999999999999883e+00 +9.0981590559684076e+00 +0.0000000000000000e+00 -7.7999991568074574e+00 +8.0533889869802979e-04 +0.0000000000000000e+00 +9.9999967571457615e-01
-7.8999999999999879e+00 +9.0980780059034796e+00 +0.0000000000000000e+00 -7.8999991239614431e+00 +8.1566239386072245e-04 +0.0000000000000000e+00 +9.9999966734737389e-01
-7.9999999999999876e+00 +9.0979959234908243e+00 +0.0000000000000000e+00 -7.9999990902733806e+00 +8.2598585332300004e-04 +0.0000000000000000e+00 +9.9999965887362652e-01
-8.0999999999999872e+00 +9.0979128087339909e+00 +0.0000000000000000e+00 -8.0999990557326171e+00 +8.3630927747674842e-04 +0.0000000000000000e+00 +9.9999965029333471e-01
-8.1999999999999869e+00 +9.0978286616364930e+00 +0.0000000000000000e+00 -8.1999990203284963e+00 +8.4663266668756035e-04 +0.0000000000000000e+00 +9.9999964160649923e-01
-8.2999999999999865e+00 +9.0977434822018068e+00 +0.0000000000000000e+00 -8.2999989840503652e+00 +8.5695602129471618e-04 +0.0000000000000000e+00 +9.9999963281312099e-01
-8.3999999999999861e+00 +9.0976572704333769e+00 +0.0000000000000000e+00 -8.3999989468875693e+00 +8.6727934161116426e-04 +0.0000000000000000e+00 +9.9999962391320074e-01
-8.4999999999999858e+00 +9.0975700263346173e+00 +0.0000000000000000e+00 -8.4999989088294541e+00 +8.7760262792349998e-04 +0.0000000000000000e+00 +9.9999961490673928e-01
-8.5999999999999854e+00 +9.0974817499089156e+00 +0.0000000000000000e+00 -8.5999988698653649e+00 +8.8792588049194435e-04 +0.0000000000000000e+00 +9.9999960579373737e-01
-8.6999999999999851e+00 +9.0973924411596343e+00 +0.0000000000000000e+00 -8.6999988299846489e+00 +8.9824909955032236e-04 +0.0000000000000000e+00 +9.9999959657419590e-01
-8.7999999999999847e+00 +9.0973021000901149e+00 +0.0000000000000000e+00 -8.7999987891766516e+00 +9.0857228530603993e-04 +0.0000000000000000e+00 +9.9999958724811566e-01
-8.8999999999999844e+00 +9.0972107267036773e+00 +0.0000000000000000e+00 -8.8999987474307201e+00 +9.1889543794006071e-04 +0.0000000000000000e+00 +9.9999957781549764e-01
-8.9999999999999840e+00 +9.0971183210036255e+00 +0.0000000000000000e+00 -8.9999987047361998e+00 +9.2921855760688178e-04 +0.0000000000000000e+00 +9.9999956827634262e-01
-9.0999999999999837e+00 +9.0970248829932494e+00 +0.0000000000000000e+00 -9.0999986610824379e+00 +9.3954164443450902e-04 +0.0000000000000000e+00 +9.9999955863065149e-01
-9.1999999999999833e+00 +9.0969304126758281e+00 +0.0000000000000000e+00 -9.1999986164587799e+00 +9.4986469852443168e-04 +0.0000000000000000e+00 +9.9999954887842524e-01
-9.2999999999999829e+00 +9.0968349100546320e+00 +0.0000000000000000e+00 -9.2999985708545729e+00 +9.6018771995159599e-04 +0.0000000000000000e+00 +9.9999953901966476e-01
-9.3999999999999826e+00 +9.0967383751329240e+00 +0.0000000000000000e+00 -9.3999985242591624e+00 +9.7051070876437841e-04 +0.0000000000000000e+00 +9.9999952905437095e-01
-9.4999999999999822e+00 +9.0966408079139658e+00 +0.0000000000000000e+00 -9.4999984766618955e+00 +9.8083366498455805e-04 +0.0000000000000000e+00 +9.9999951898254491e-01
-9.5999999999999819e+00 +9.0965422084010150e+00 +0.0000000000000000e+00 -9.5999984280521193e+00 +9.9115658861216724e-04 +0.0000000000000000e+00 +9.9999950880418753e-01
-9.6999999999999815e+00 +9.0964425765973296e+00 +0.0000000000000000e+00 -9.6999983784191812e+00 +1.0014794796791345e-03 +0.0000000000000000e+00 +9.9999949851929992e-01
-9.7999999999999812e+00 +9.0963419125061602e+00 +0.0000000000000000e+00 -9.7999983277524283e+00 +1.0118023383029568e-03 +0.0000000000000000e+00 +9.9999948812788286e-01
-9.8999999999999808e+00 +9.0962402161307434e+00 +0.0000000000000000e+00 -9.8999982760412077e+00 +1.0221251646915968e-03 +0.0000000000000000e+00 +9.9999947762993724e-01
-9.9999999999999805e+00 +9.0961374874742873e+00 +0.0000000000000000e+00 -9.9999982232748650e+00 +1.0324479591435022e-03 +0.0000000000000000e+00 +9.9999946702546361e-01
-1.0099999999999980e+01 +9.0960337265399662e+00 +0.0000000000000000e+00 -1.0099998169442749e+01 +1.0427707220476265e-03 +0.0000000000000000e+00 +9.9999945631446263e-01
-1.0199999999999980e+01 +9.0959289333309137e+00 +0.0000000000000000e+00 -1.0199998114534207e+01 +1.0530934538834494e-03 +0.0000000000000000e+00 +9.9999944549693476e-01
-1.0299999999999979e+01 +9.0958231078502063e+00 +0.0000000000000000e+00 -1.0299998058538586e+01 +1.0634161552209988e-03 +0.0000000000000000e+00 +9.9999943457288032e-01
-1.0399999999999979e+01 +9.0957162501008639e+00 +0.0000000000000000e+00 -1.0399998001445233e+01 +1.0737388267208720e-03 +0.0000000000000000e+00 +9.9999942354229965e-01
-1.0499999999999979e+01 +9.0956083600858317e+00 +0.0000000000000000e+00 -1.0499997943243496e+01 +1.0840614691342584e-03 +0.0000000000000000e+00 +9.9999941240519274e-01
-1.0599999999999978e+01 +9.0954994378079785e+00 +0.0000000000000000e+00 -1.0599997883922722e+01 +1.0943840833029632e-03 +0.0000000000000000e+00 +9.9999940116155961e-01
-1.0699999999999978e+01 +9.0953894832700826e+00 +0.0000000000000000e+00 -1.0699997823472257e+01 +1.1047066701594297e-03 +0.0000000000000000e+00 +9.9999938981140013e-01
-1.0799999999999978e+01 +9.0952784964748243e+00 +0.0000000000000000e+00 -1.0799997761881450e+01 +1.1150292307267650e-03 +0.0000000000000000e+00 +9.9999937835471397e-01
-1.0899999999999977e+01 +9.0951664774247778e+00 +0.0000000000000000e+00 -1.0899997699139648e+01 +1.1253517661187636e-03 +0.0000000000000000e+00 +9.9999936679150070e-01
-1.0999999999999977e+01 +9.0950534261223996e+00 +0.0000000000000000e+00 -1.0999997635236198e+01 +1.1356742775399335e-03 +0.0000000000000000e+00 +9.9999935512175964e-01
-1.1099999999999977e+01 +9.0949393425700258e+00 +0.0000000000000000e+00 -1.1099997570160449e+01 +1.1459967662855212e-03 +0.0000000000000000e+00 +9.9999934334549012e-01
-1.1199999999999976e+01 +9.0948242267698536e+00 +0.0000000000000000e+00 -1.1199997503901745e+01 +1.1563192337415390e-03 +0.0000000000000000e+00 +9.9999933146269127e-01
-1.1299999999999976e+01 +9.0947080787239383e+00 +0.0000000000000000e+00 -1.1299997436449436e+01 +1.1666416813847914e-03 +0.0000000000000000e+00 +9.9999931947336196e-01
-1.1399999999999975e+01 +9.0945908984341841e+00 +0.0000000000000000e+00 -1.1399997367792867e+01 +1.1769641107829028e-03 +0.0000000000000000e+00 +9.9999930737750098e-01
-1.1499999999999975e+01 +9.0944726859023337e+00 +0.0000000000000000e+00 -1.1499997297921386e+01 +1.1872865235943459e-03 +0.0000000000000000e+00 +9.9999929517510688e-01
-1.1599999999999975e+01 +9.0943534411299591e+00 +0.0000000000000000e+00 -1.1599997226824337e+01 +1.1976089215575659e-03 +0.0000000000000000e+00 +9.9999928286617823e-01
-1.1699999999999974e+01 +9.0942331641184602e+00 +0.0000000000000000e+00 -1.1699997154491070e+01 +1.2079313063710442e-03 +0.0000000000000000e+00 +9.9999927045071324e-01
