# multipoles
# s[mm] polynom_b[n=0][T/m^n] polynom_b[n=1][T/m^n] polynom_b[n=2][T/m^n] polynom_b[n=3][T/m^n] polynom_b[n=4][T/m^n] polynom_b[n=5][T/m^n] polynom_b[n=6][T/m^n] 
-0.0000000000000000e+00 -1.0332497813563282e+00 +2.2985067934807244e+00 +1.9885049877829147e+01 -5.6931094274678321e+02 -4.1024399383815153e+03 +4.9344243524295725e+06 +1.2061499420682320e+08 
-1.0000000000000001e-01 -1.0332480254234904e+00 +2.2979912996848668e+00 +1.9630499544503749e+01 -5.5581308965485937e+02 +4.9812568172904002e+02 +4.8641162206688356e+06 +1.0012894122145557e+08 
-2.0000000000000001e-01 -1.0332462844555843e+00 +2.2975008524282567e+00 +1.9372537697966933e+01 -5.4281015420771121e+02 +5.1587635209899172e+03 +4.7955504666998321e+06 +7.9333513771470606e+07 
-2.9999999999999999e-01 -1.0332445642664547e+00 +2.2970360586840148e+00 +1.9112363737623692e+01 -5.3031411988042476e+02 +9.8597552602133765e+03 +4.7288007177989837e+06 +5.8314014902232014e+07 
-4.0000000000000002e-01 -1.0332428706700778e+00 +2.2965975253747679e+00 +1.8851177065487011e+01 -5.1833696814364191e+02 +1.4581382700216349e+04 +4.6639405877864277e+06 +3.7155746594124869e+07 
-5.0000000000000000e-01 -1.0332412094805867e+00 +2.2961858593539866e+00 +1.8590177091460063e+01 -5.0689067787476893e+02 +1.9303927650281046e+04 +4.6010436735197883e+06 +1.5944010345799303e+07 
-5.9999999999999998e-01 -1.0332395865122639e+00 +2.2958016673924515e+00 +1.8330563231048266e+01 -4.9598722502700701e+02 +2.4007671961569253e+04 +4.5401835531486971e+06 -5.2358929373983135e+06 
-6.9999999999999996e-01 -1.0332380075795691e+00 +2.2954455561598146e+00 +1.8073534908986343e+01 -4.8563858207037822e+02 +2.8672897448856827e+04 +4.4814337828194508e+06 -2.6298662525816388e+07 
-8.0000000000000004e-01 -1.0332364784971981e+00 +2.2951181322108698e+00 +1.7820291568942903e+01 -4.7585671762690635e+02 +3.3279885686356967e+04 +4.4248678947001323e+06 -4.7158996817163229e+07 
-9.0000000000000002e-01 -1.0332350050800065e+00 +2.2948200019696219e+00 +1.7572032663910559e+01 -4.6665359600109440e+02 +3.7808918185738417e+04 +4.3705593942538565e+06 -6.7731594150000721e+07 
-1.0000000000000000e+00 -1.0332335931431880e+00 +2.2945517717154384e+00 +1.7329957676812750e+01 -4.5804117680677462e+02 +4.2240275985872227e+04 +4.3185817581424769e+06 -8.7931150781536385e+07 
-1.1000000000000001e+00 -1.0332322485021181e+00 +2.2943140475638115e+00 +1.7095266103672433e+01 -4.5003141440701160e+02 +4.6554239969626804e+04 +4.2690084310360681e+06 -1.0767236236597534e+08 
-1.2000000000000000e+00 -1.0332309769725057e+00 +2.2941074354542068e+00 +1.6869157471902621e+01 -4.4263625758762981e+02 +5.0731090494474862e+04 +4.2219128237860166e+06 -1.2686992211466466e+08 
-1.3000000000000000e+00 -1.0332297843703386e+00 +2.2939325411338194e+00 +1.6652831335126969e+01 -4.3586764906298180e+02 +5.4751107484263855e+04 +4.1773683105312316e+06 -1.4543852119410133e+08 
-1.3999999999999999e+00 -1.0332286765119494e+00 +2.2937899701405455e+00 +1.6447487279892417e+01 -4.2973752504975221e+02 +5.8594570292304445e+04 +4.1354482264337721e+06 -1.6329284803080282e+08 
-1.5000000000000000e+00 -1.0332276592140393e+00 +2.2936803277902751e+00 +1.6254324930242618e+01 -4.2425781485923812e+02 +6.2241757593995244e+04 +4.0962258651995412e+06 -1.8034758772034910e+08 
-1.6000000000000001e+00 -1.0332267369408312e+00 +2.2936037773466267e+00 +1.6074288130018051e+01 -4.1942895981481104e+02 +6.5677158217175835e+04 +4.0597096802264028e+06 -1.9653515812608224e+08 
-1.7000000000000000e+00 -1.0332259086549198e+00 +2.2935587765443461e+00 +1.5907292704740566e+01 -4.1520601277286698e+02 +6.8902151692081898e+04 +4.0256494005574221e+06 -2.1185900240504649e+08 
-1.8000000000000000e+00 -1.0332251719199139e+00 +2.2935433720568184e+00 +1.5752996069937423e+01 -4.1153280778192857e+02 +7.1922355672429185e+04 +3.9937301483687381e+06 -2.2634035545653424e+08 
-1.8999999999999999e+00 -1.0332245242994078e+00 +2.2935556104473815e+00 +1.5611055631626799e+01 -4.0835317530905382e+02 +7.4743388028581074e+04 +3.9636370227134461e+06 -2.4000045310772347e+08 
-2.0000000000000000e+00 -1.0332239633570239e+00 +2.2935935381718027e+00 +1.5481128789296585e+01 -4.0561094237017261e+02 +7.7370866791853317e+04 +3.9350551002841564e+06 -2.5286053184457314e+08 
-2.1000000000000001e+00 -1.0332234866563015e+00 +2.2936552015875566e+00 +1.5362872924853969e+01 -4.0324993278213179e+02 +7.9810410350924503e+04 +3.9076694367123069e+06 -2.6494182969547603e+08 
-2.2000000000000002e+00 -1.0332230917607672e+00 +2.2937386469569847e+00 +1.5255945409995311e+01 -4.0121396728775119e+02 +8.2067637308635574e+04 +3.8811650672241282e+06 -2.7626558553117436e+08 
-2.2999999999999998e+00 -1.0332227762337893e+00 +2.2938419204523752e+00 +1.5160003587687811e+01 -3.9944686371039734e+02 +8.4148166832711562e+04 +3.8552270074235885e+06 -2.8685304072434497e+08 
-2.3999999999999999e+00 -1.0332225376386552e+00 +2.2939630681661933e+00 +1.5074704784509608e+01 -3.9789243726965918e+02 +8.6057618404205365e+04 +3.8295402550570751e+06 -2.9672543788886702e+08 
-2.5000000000000000e+00 -1.0332223735384800e+00 +2.2941001361144577e+00 +1.4999706296820746e+01 -3.9649450069843056e+02 +8.7801612085252695e+04 +3.8037897905873344e+06 -3.0590402216172713e+08 
-2.6000000000000001e+00 -1.0332222814961269e+00 +2.2942511702423349e+00 +1.4934665381552927e+01 -3.9519686441479780e+02 +8.9385768683315648e+04 +3.7776605780795137e+06 -3.1441004194220114e+08 
-2.7000000000000002e+00 -1.0332222590743259e+00 +2.2944142164339509e+00 +1.4879239272665467e+01 -3.9394333682749243e+02 +9.0815709431561103e+04 +3.7508375669109435e+06 -3.2226474734292662e+08 
-2.7999999999999998e+00 -1.0332223038355079e+00 +2.2945873205137062e+00 +1.4833085160130409e+01 -3.9267772438006455e+02 +9.2097056381612114e+04 +3.7230056918930444e+06 -3.2948939202918971e+08 
-2.8999999999999999e+00 -1.0332224133418160e+00 +2.2947685282567671e+00 +1.4795860188447676e+01 -3.9134383189272302e+02 +9.3235432429845489e+04 +3.6938498751965314e+06 -3.3610523332963693e+08 
-3.0000000000000000e+00 -1.0332225851551011e+00 +2.2949558853888958e+00 +1.4767221461523006e+01 -3.8988546254067006e+02 +9.4236461215540810e+04 +3.6630550260930518e+06 -3.4213353171436012e+08 
-3.1000000000000001e+00 -1.0332228168368749e+00 +2.2951474376011061e+00 +1.4746826033527759e+01 -3.8824641832512373e+02 +9.5105767286031201e+04 +3.6303060436405963e+06 -3.4759555154803675e+08 
-3.2000000000000002e+00 -1.0332231059482322e+00 +2.2953412305500529e+00 +1.4734330899597412e+01 -3.8637050008276026e+02 +9.5848976273622990e+04 +3.5952878165939460e+06 -3.5251256192173284e+08 
-3.2999999999999998e+00 -1.0332234500499058e+00 +2.2955353098675899e+00 +1.4729393004443278e+01 -3.8420150778537527e+02 +9.6471714720340489e+04 +3.5576852250908301e+06 -3.5690583577595812e+08 
-3.3999999999999999e+00 -1.0332238467021619e+00 +2.2957277211579727e+00 +1.4731669227996001e+01 -3.8168324047427649e+02 +9.6979610348338596e+04 +3.5171831401493927e+06 -3.6079665117225760e+08 
-3.5000000000000000e+00 -1.0332242934648332e+00 +2.2959165100224053e+00 +1.4740816389837843e+01 -3.7875949707812993e+02 +9.7378291953657448e+04 +3.4734664283696897e+06 -3.6420629072126776e+08 
-3.6000000000000001e+00 -1.0332247858573094e+00 +2.2960995805151869e+00 +1.4756405808143725e+01 -3.7537913501198722e+02 +9.7674230265566584e+04 +3.4262733015163550e+06 -3.6715919929030561e+08 
-3.7000000000000002e+00 -1.0332253113141643e+00 +2.2962742205658677e+00 +1.4777684133294811e+01 -3.7150995273341562e+02 +9.7877255246234199e+04 +3.3755533379338151e+06 -3.6969368411614513e+08 
-3.7999999999999998e+00 -1.0332258552639084e+00 +2.2964375528927201e+00 +1.4803820765946304e+01 -3.6712426672789468e+02 +9.7998042386194516e+04 +3.3213093066237154e+06 -3.7185187300954556e+08 
-3.8999999999999999e+00 -1.0332264031343497e+00 +2.2965867005395650e+00 +1.4833985050093098e+01 -3.6219440337752354e+02 +9.8047268174132638e+04 +3.2635440417195396e+06 -3.7367589917245346e+08 
-4.0000000000000000e+00 -1.0332269403525269e+00 +2.2967187868964940e+00 +1.4867346261883499e+01 -3.5669269946523457e+02 +9.8035610294640719e+04 +3.2022604450874208e+06 -3.7520790210535175e+08 
-4.0999999999999996e+00 -1.0332274523446427e+00 +2.2968309357164811e+00 +1.4903073610220009e+01 -3.5059150266267034e+02 +9.7973747602233008e+04 +3.1374614897257620e+06 -3.7649002750632203e+08 
-4.2000000000000002e+00 -1.0332279245361076e+00 +2.2969202711525001e+00 +1.4940336238347278e+01 -3.4386317267446310e+02 +9.7872360088423738e+04 +3.0691502270072843e+06 -3.7756442717504609e+08 
-4.2999999999999998e+00 -1.0332283423513982e+00 +2.2969839177762621e+00 +1.4978303213755295e+01 -3.3648008179815287e+02 +9.7742129059432234e+04 +2.9973297905183914e+06 -3.7847325988075513e+08 
-4.4000000000000004e+00 -1.0332286912141313e+00 +2.2970190006045792e+00 +1.5016143535367386e+01 -3.2841461574315292e+02 +9.7593737005947987e+04 +2.9220034014110384e+06 -3.7925869082934201e+08 
-4.5000000000000000e+00 -1.0332289565469026e+00 +2.2970226451254594e+00 +1.5053026119684692e+01 -3.1963917442133533e+02 +9.7437867848246722e+04 +2.8431743736043298e+06 -3.7996289284212029e+08 
-4.5999999999999996e+00 -1.0332291237713516e+00 +2.2969919773230361e+00 +1.5088119807402398e+01 -3.1012617269809698e+02 +9.7285206809070543e+04 +2.7608461186588705e+06 -3.8062804581458586e+08 
-4.7000000000000002e+00 -1.0332291783080432e+00 +2.2969241237039997e+00 +1.5120593353221480e+01 -2.9984804121108192e+02 +9.7146440601721857e+04 +2.6750221512047523e+06 -3.8129633765847552e+08 
-4.7999999999999998e+00 -1.0332291055764915e+00 +2.2968162113215129e+00 +1.5149615432266222e+01 -2.8877722709370988e+02 +9.7032257296104217e+04 +2.5857060937014762e+06 -3.8200996370014262e+08 
-4.9000000000000004e+00 -1.0332288909951084e+00 +2.2966653678017837e+00 +1.5174354632087951e+01 -2.7688619478795391e+02 +9.6953346470782315e+04 +2.4929016817247188e+06 -3.8281112746685427e+08 
-5.0000000000000000e+00 -1.0332285199811306e+00 +2.2964687213691235e+00 +1.5193979450184147e+01 -2.6414742680759400e+02 +9.6920399245377179e+04 +2.3966127690270757e+06 -3.8374204086753529e+08 
-5.0999999999999996e+00 -1.0332279779505860e+00 +2.2962234008706908e+00 +1.5207658289060513e+01 -2.5053342449282187e+02 +9.6944108378445395e+04 +2.2968433324795743e+06 -3.8484492473420334e+08 
-5.2000000000000002e+00 -1.0332272503182931e+00 +2.2959265358043632e+00 +1.5214559459216105e+01 -2.3601670885872940e+02 +9.7035168195700273e+04 +2.1935974775941130e+06 -3.8616200850396132e+08 
-5.2999999999999998e+00 -1.0332263224977849e+00 +2.2955752563408893e+00 +1.5213851173675172e+01 -2.2056982128012109e+02 +9.7204274688948557e+04 +2.0868794431262698e+06 -3.8773553074219209e+08 
-5.4000000000000004e+00 -1.0332251799013175e+00 +2.2951666933498331e+00 +1.5204701548959541e+01 -2.0416532426627600e+02 +9.7462125491973682e+04 +1.9766936060822131e+06 -3.8960773907863808e+08 
-5.5000000000000000e+00 -1.0332238079397940e+00 +2.2946979784420889e+00 +1.5186278602614887e+01 -1.8677580246406515e+02 +9.7819419939343599e+04 +1.8630444871207688e+06 -3.9182089063932300e+08 
-5.5999999999999996e+00 -1.0332221959588348e+00 +2.2941675061859490e+00 +1.5157944189618691e+01 -1.6839708663094018e+02 +9.8284403823246859e+04 +1.7460300492801326e+06 -3.9440768220049781e+08 
-5.7000000000000002e+00 -1.0332203493690812e+00 +2.2935788239068047e+00 +1.5119794474045861e+01 -1.4912055635241887e+02 +9.8856187049632019e+04 +1.6261309081747103e+06 -3.9736441859961796e+08 
-5.7999999999999998e+00 -1.0332182777016705e+00 +2.2929367959812788e+00 +1.5072101723988677e+01 -1.2906207816166690e+02 +9.9531710152249841e+04 +1.5039246026423750e+06 -4.0067847762287623e+08 
-5.9000000000000004e+00 -1.0332159904889999e+00 +2.2922462867601672e+00 +1.5015138354386556e+01 -1.0833751737315238e+02 +1.0030791107454685e+05 +1.3799886584608806e+06 -4.0433722528788596e+08 
-6.0000000000000000e+00 -1.0332134972647664e+00 +2.2915121605856736e+00 +1.4949176929007422e+01 -8.7062739111410252e+01 +1.0118172521138779e+05 +1.2549005977735077e+06 -4.0832801650633562e+08 
-6.0999999999999996e+00 -1.0332108075640181e+00 +2.2907392817743415e+00 +1.4874490163392540e+01 -6.5353607829805640e+01 +1.0215008536422746e+05 +1.1292379360431919e+06 -4.1263819488460118e+08 
-6.2000000000000002e+00 -1.0332079309232181e+00 +2.2899325146171194e+00 +1.4791350936445470e+01 -4.3325987274186836e+01 +1.0320992153799966e+05 +1.0035781815351652e+06 -4.1725509179630774e+08 
-6.2999999999999998e+00 -1.0332048768803319e+00 +2.2890967233634951e+00 +1.4700032295380845e+01 -2.1095740047116255e+01 +1.0435816085916747e+05 +8.7849883251035598e+05 -4.2216602601508456e+08 
-6.4000000000000004e+00 -1.0332016549748932e+00 +2.2882367722124668e+00 +1.4600807463454965e+01 +1.2212726730495076e+00 +1.0559172744497265e+05 +7.5457737530510291e+05 -4.2735830311993885e+08 
-6.5000000000000000e+00 -1.0331982747480739e+00 +2.2873575253075620e+00 +1.4493949850051258e+01 +2.3509191267227976e+01 +1.0690754222063179e+05 +6.3239128332931490e+05 -4.3281921464340132e+08 
-6.5999999999999996e+00 -1.0331947457427457e+00 +2.2864638467255278e+00 +1.4379733053698668e+01 +4.5652158024194030e+01 +1.0830252288059116e+05 +5.1251801467050193e+05 -4.3853603792429274e+08 
-6.7000000000000002e+00 -1.0331910775036204e+00 +2.2855606004661122e+00 +1.4258430880603337e+01 +6.7534317427883124e+01 +1.0977358354950033e+05 +3.9553501022452995e+05 -4.4449603451868117e+08 
-6.7999999999999998e+00 -1.0331872795772397e+00 +2.2846526504430988e+00 +1.4130317341350304e+01 +8.9039816428301492e+01 +1.1131763485645237e+05 +2.8201969180642464e+05 -4.5068645057464409e+08 
-6.9000000000000004e+00 -1.0331833615120716e+00 +2.2837448604762742e+00 +1.3995666660011302e+01 +1.1005280466676747e+02 +1.1293158377605479e+05 +1.7254946058165174e+05 -4.5709451610248303e+08 
-7.0000000000000000e+00 -1.0331793328586245e+00 +2.2828420942821195e+00 +1.3854753289875916e+01 +1.3045743476625424e+02 +1.1461233334392494e+05 +6.7701695081094076e+04 -4.6370744364840358e+08 
-7.0999999999999996e+00 -1.0331752031695065e+00 +2.2819492154615673e+00 +1.3707851917319109e+01 +1.5013786267861906e+02 +1.1635678259898201e+05 -3.1946251074405562e+04 -4.7051242805222023e+08 
-7.2000000000000002e+00 -1.0331709819994448e+00 +2.2810710874963567e+00 +1.3555237462974413e+01 +1.6897824779765770e+02 +1.1816182657104840e+05 -1.2581705012477638e+05 -4.7749664640499574e+08 
-7.2999999999999998e+00 -1.0331666789054330e+00 +2.2802125737356169e+00 +1.3397185102501869e+01 +1.8686275336586382e+02 +1.2002435590206269e+05 -2.1333340281092192e+05 -4.8464725627711755e+08 
-7.4000000000000004e+00 -1.0331623034467250e+00 +2.2793785373843338e+00 +1.3233970257707151e+01 +2.0367554677562421e+02 +1.2194125703023671e+05 -2.9391804036668147e+05 -4.9195139662478906e+08 
-7.5000000000000000e+00 -1.0331578651849718e+00 +2.2785738413918977e+00 +1.3065868605091195e+01 +2.1930080475913016e+02 +1.2390941237831062e+05 -3.6699375700359518e+05 -4.9939618954869360e+08 
-7.5999999999999996e+00 -1.0331533749220334e+00 +2.2778028176771126e+00 +1.2893204440395605e+01 +2.3364535868266597e+02 +1.2592605539780582e+05 -4.3212139598840533e+05 -5.0697360136624706e+08 
-7.7000000000000002e+00 -1.0331488483784252e+00 +2.2770678704781844e+00 +1.2716537576008879e+01 +2.4669666967861883e+02 +1.2798796073330019e+05 -4.8934978161583043e+05 -5.1468352569940722e+08 
-7.7999999999999998e+00 -1.0331443024872864e+00 +2.2763709546100759e+00 +1.2536495017481645e+01 +2.5846062070054927e+02 +1.3009139136988696e+05 -5.3883831631030946e+05 -5.2252538907291526e+08 
-7.9000000000000004e+00 -1.0331397541829230e+00 +2.2757140241878733e+00 +1.2353703844800455e+01 +2.6894311252325599e+02 +1.3223260886337311e+05 -5.8074650161642989e+05 -5.3049860960261440e+08 
-8.0000000000000000e+00 -1.0331352204008286e+00 +2.2750990326086207e+00 +1.2168791213299157e+01 +2.7815006386721853e+02 +1.3440787338352200e+05 -6.1523393953248137e+05 -5.3860259719763565e+08 
-8.0999999999999996e+00 -1.0331307180777167e+00 +2.2745279325338128e+00 +1.1982384353534126e+01 +2.8608741178430591e+02 +1.3661344371497881e+05 -6.4246033461821941e+05 -5.4683675349755263e+08 
-8.1999999999999993e+00 -1.0331262641515513e+00 +2.2740026758633909e+00 +1.1795110575278811e+01 +2.9276111233769097e+02 +1.3884557717700023e+05 -6.6258549783630995e+05 -5.5520047141144872e+08 
-8.3000000000000007e+00 -1.0331218755615488e+00 +2.2735252137077984e+00 +1.1607597260625235e+01 +2.9817714133168153e+02 +1.4110052976060606e+05 -6.7576935078122444e+05 -5.6369313572300446e+08 
-8.4000000000000004e+00 -1.0331175692482206e+00 +2.2730974963665047e+00 +1.1420471872052492e+01 +3.0234149485342886e+02 +1.4337455596495254e+05 -6.8217192870849965e+05 -5.7231412221869338e+08 
-8.5000000000000000e+00 -1.0331133621534114e+00 +2.2727214733025094e+00 +1.1234361952250801e+01 +3.0526018991613142e+02 +1.4566390880468063e+05 -6.8195338417523552e+05 -5.8106279766714132e+08 
-8.5999999999999996e+00 -1.0331092712203114e+00 +2.2723990931153577e+00 +1.1049895122159796e+01 +3.0693926515759898e+02 +1.4796483983998510e+05 -6.7527399104002060e+05 -5.8993851988040328e+08 
-8.6999999999999993e+00 -1.0331053133934645e+00 +2.2721323035186058e+00 +1.0867699083861998e+01 +3.0738478142533728e+02 +1.5027359912475446e+05 -6.6229414777108119e+05 -5.9894063740567803e+08 
-8.8000000000000007e+00 -1.0331015056188628e+00 +2.2719230513138129e+00 +1.0688401625599001e+01 +3.0660282242475108e+02 +1.5258643510754564e+05 -6.4317438112691871e+05 -6.0806848898412943e+08 
-8.9000000000000004e+00 -1.0330978648438718e+00 +2.2717732823679637e+00 +1.0512630611405323e+01 +3.0459949530438342e+02 +1.5489959482669778e+05 -6.1807534949744213e+05 -6.1732140440409970e+08 
-9.0000000000000000e+00 -1.0330944080173248e+00 +2.2716849415869720e+00 +1.0341013993531295e+01 +3.0138093132764243e+02 +1.5720932366874232e+05 -5.8715784667082841e+05 -6.2669870327404463e+08 
-9.0999999999999996e+00 -1.0330911520895663e+00 +2.2716599728864248e+00 +1.0174179810392548e+01 +2.9695328664506189e+02 +1.5951186541480743e+05 -5.5058280630020075e+05 -6.3619969519818449e+08 
-9.1999999999999993e+00 -1.0330881140124017e+00 +2.2717003191763250e+00 +1.0012756181599501e+01 +2.9132274264730194e+02 +1.6180346231883034e+05 -5.0851130384332803e+05 -6.4582368003695261e+08 
-9.3000000000000007e+00 -1.0330853107391915e+00 +2.2718079223287742e+00 +9.8573713167229311e+00 +2.8449550682164892e+02 +1.6408035495597104e+05 -4.6110456145343411e+05 -6.5556994716436458e+08 
-9.4000000000000004e+00 -1.0330827592248806e+00 +2.2719847231555308e+00 +9.7086535157441887e+00 +2.7647781331428632e+02 +1.6633878219810987e+05 -4.0852395117788477e+05 -6.6543777523842669e+08 
-9.5000000000000000e+00 -1.0330804764259389e+00 +2.2722326615405306e+00 +9.5672311756428421e+00 +2.6727591495648971e+02 +1.6857498046638511e+05 -3.5093094313375233e+05 -6.7542642696377385e+08 
-9.5999999999999996e+00 -1.0330784750648969e+00 +2.2725525419209216e+00 +9.4336418814886791e+00 +2.5690919359205515e+02 +1.7078462790049161e+05 -2.8852347082571860e+05 -6.8552762600892746e+08 
-9.6999999999999993e+00 -1.0330767501653491e+00 +2.2729399061053650e+00 +9.3080970963881953e+00 +2.4547265404283891e+02 +1.7296143938477940e+05 -2.2177861291545222e+05 -6.9570732901774538e+08 
-9.8000000000000007e+00 -1.0330752921064552e+00 +2.2733887991387851e+00 +9.1907371105563449e+00 +2.3308536095637956e+02 +1.7509863334176058e+05 -1.5127189248421829e+05 -7.0592567231809080e+08 
-9.9000000000000004e+00 -1.0330740912644876e+00 +2.2738932661349307e+00 +9.0817019460620401e+00 +2.1986637751209955e+02 +1.7718943283142021e+05 -7.7578827222868887e+04 -7.1614281329194379e+08 
-1.0000000000000000e+01 -1.0330731380129170e+00 +2.2744473522884876e+00 +8.9811313670900841e+00 +2.0593476688334701e+02 +1.7922706517928408e+05 -1.2749411157007844e+03 -7.2631892808752990e+08 
-1.0100000000000000e+01 -1.0330724227223900e+00 +2.2750451028956631e+00 +8.8891648725748880e+00 +1.9140959167857449e+02 +1.8120476210353841e+05 +7.7064238673200845e+04 -7.3641421220752811e+08 
