# multipoles
# s[mm] polynom_b[n=0][T/m^n] polynom_b[n=1][T/m^n] polynom_b[n=2][T/m^n] polynom_b[n=3][T/m^n] polynom_b[n=4][T/m^n] polynom_b[n=5][T/m^n] polynom_b[n=6][T/m^n] 
+0.0000000000000000e+00 -6.6053277565979607e-01 +1.4715618713502321e+00 +1.2974647303749645e+01 -1.3468231636622212e+01 +1.1814860640820707e+03 +4.9088132001368864e+05 +8.9583078789466619e+06 
+1.0000000000000001e-01 -6.6053246405381927e-01 +1.4715570544289092e+00 +1.2975313905087935e+01 -1.3578507625686122e+01 +1.1700126674332919e+03 +4.9207336020937498e+05 +8.9566455339095518e+06 
+2.0000000000000001e-01 -6.6053215706376089e-01 +1.4715531484256774e+00 +1.2975757343743767e+01 -1.3698197418597745e+01 +1.1602117072070764e+03 +4.9328846631388739e+05 +8.9548867356202882e+06 
+2.9999999999999999e-01 -6.6053185548534377e-01 +1.4715501282080667e+00 +1.2975993735792214e+01 -1.3825860084416703e+01 +1.1520137206331324e+03 +4.9451549946025136e+05 +8.9528811753757261e+06 
+4.0000000000000002e-01 -6.6053156011429004e-01 +1.4715479686482511e+00 +1.2976039196103697e+01 -1.3960054816844574e+01 +1.1453492682932065e+03 +4.9574332137443137e+05 +8.9504784436664116e+06 
+5.0000000000000000e-01 -6.6053127174633131e-01 +1.4715466446181984e+00 +1.2975909841232150e+01 -1.4099340769131816e+01 +1.1401488773844994e+03 +4.9696079336897348e+05 +8.9475283041567933e+06 
+5.9999999999999998e-01 -6.6053099117720959e-01 +1.4715461309981728e+00 +1.2975621787933026e+01 -1.4242277348960714e+01 +1.1363430750449677e+03 +4.9815677820025216e+05 +8.9438805203050431e+06 
+6.9999999999999996e-01 -6.6053071920265483e-01 +1.4715464026631890e+00 +1.2975191150400562e+01 -1.4387423809299799e+01 +1.1338624394315930e+03 +4.9932013766055502e+05 +8.9393846165797524e+06 
+8.0000000000000004e-01 -6.6053045661842358e-01 +1.4715474344989397e+00 +1.2974634045987413e+01 -1.4533339739160253e+01 +1.1326374907256809e+03 +5.0043973554474296e+05 +8.9338903974794615e+06 
+9.0000000000000002e-01 -6.6053020422023878e-01 +1.4715492013863098e+00 +1.2973966587491807e+01 -1.4678584603182793e+01 +1.1325988416769505e+03 +5.0150443494892522e+05 +8.9272472198193483e+06 
+1.0000000000000000e+00 -6.6052996280386111e-01 +1.4715516782143419e+00 +1.2973204890195664e+01 -1.4821718148767060e+01 +1.1336770629946882e+03 +5.0250310072910454e+05 +8.9193046355326865e+06 
+1.1000000000000001e+00 -6.6052973316501529e-01 +1.4715548398727369e+00 +1.2972365064945217e+01 -1.4961300194158019e+01 +1.1358028161137895e+03 +5.0342459832857788e+05 +8.9099117553576920e+06 
+1.2000000000000000e+00 -6.6052951609944333e-01 +1.4715586612529368e+00 +1.2971463223144978e+01 -1.5095890661337469e+01 +1.1389067581932197e+03 +5.0425779396445217e+05 +8.8989177018963508e+06 
+1.3000000000000000e+00 -6.6052931240288071e-01 +1.4715631172504271e+00 +1.2970515474635619e+01 -1.5224049657731159e+01 +1.1429195862755641e+03 +5.0499155518624577e+05 +8.8861713880045097e+06 
+1.3999999999999999e+00 -6.6052912287104193e-01 +1.4715681827620681e+00 +1.2969537925689911e+01 -1.5344337413937366e+01 +1.1477720697951966e+03 +5.0561475055409560e+05 +8.8715213771632910e+06 
+1.5000000000000000e+00 -6.6052894829965259e-01 +1.4715738326886219e+00 +1.2968546681444025e+01 -1.5455314363865805e+01 +1.1533950164056939e+03 +5.0611625014632638e+05 +8.8548160130796563e+06 
+1.6000000000000001e+00 -6.6052878948442062e-01 +1.4715800419303635e+00 +1.2967557844948240e+01 -1.5555541022183668e+01 +1.1597192788816778e+03 +5.0648492488536291e+05 +8.8359034164347798e+06 
+1.7000000000000000e+00 -6.6052864722102878e-01 +1.4715867853944768e+00 +1.2966587513947378e+01 -1.5643578225515892e+01 +1.1666758246584914e+03 +5.0670964802288305e+05 +8.8146311310086884e+06 
+1.8000000000000000e+00 -6.6052852230518544e-01 +1.4715940379871761e+00 +1.2965651787614062e+01 -1.5717986890688811e+01 +1.1741956060607868e+03 +5.0677929371246876e+05 +8.7908467473877873e+06 
+1.8999999999999999e+00 -6.6052841553254860e-01 +1.4716017746158063e+00 +1.2964766758006100e+01 -1.5777328103629715e+01 +1.1822097245694699e+03 +5.0668273763728503e+05 +8.7643971122512612e+06 
+2.0000000000000000e+00 -6.6052832769877712e-01 +1.4716099701957230e+00 +1.2963948514757252e+01 -1.5820163334409889e+01 +1.1906493425971312e+03 +5.0640885830396850e+05 +8.7351287491387017e+06 
+2.1000000000000001e+00 -6.6052825934358417e-01 +1.4716185915941111e+00 +1.2963205814644747e+01 -1.5845430857336117e+01 +1.1995189023139958e+03 +5.0595071680378128e+05 +8.7026359744720627e+06 
+2.2000000000000002e+00 -6.6052820999164952e-01 +1.4716275688132670e+00 +1.2962519540137903e+01 -1.5853498402485926e+01 +1.2090998508124883e+03 +5.0531781568458519e+05 +8.6655263383478876e+06 
+2.2999999999999998e+00 -6.6052817891614635e-01 +1.4716368214750351e+00 +1.2961863986291453e+01 -1.5845073399781686e+01 +1.2197385528782115e+03 +5.0452371322289557e+05 +8.6221675310796667e+06 
+2.3999999999999999e+00 -6.6052816539026860e-01 +1.4716462691975321e+00 +1.2961213451872814e+01 -1.5820863155385281e+01 +1.2317812971622886e+03 +5.0358196697872557e+05 +8.5709276125577185e+06 
+2.5000000000000000e+00 -6.6052816868718700e-01 +1.4716558315989821e+00 +1.2960542233682656e+01 -1.5781574954173085e+01 +1.2455743988844918e+03 +5.0250613435131905e+05 +8.5101745348536298e+06 
+2.6000000000000001e+00 -6.6052818808007996e-01 +1.4716654283017421e+00 +1.2959824630007843e+01 -1.5727916174920722e+01 +1.2614641387355573e+03 +5.0130977324009547e+05 +8.4382764194564410e+06 
+2.7000000000000002e+00 -6.6052822284213719e-01 +1.4716749789249237e+00 +1.2959034942681743e+01 -1.5660594041713150e+01 +1.2797967173792490e+03 +5.0000644050504680e+05 +8.3536017895255387e+06 
+2.7999999999999998e+00 -6.6052827224652544e-01 +1.4716844030892648e+00 +1.2958147472115316e+01 -1.5580315784479392e+01 +1.3009183503689364e+03 +4.9860969295397034e+05 +8.2545191152761262e+06 
+2.8999999999999999e+00 -6.6052833556642487e-01 +1.4716936204127931e+00 +1.2957136520713197e+01 -1.5487788495627264e+01 +1.3251752026889569e+03 +4.9713308643408259e+05 +8.1393971247217683e+06 
+3.0000000000000000e+00 -6.6052841207499258e-01 +1.4717025505155481e+00 +1.2955976391843375e+01 -1.5383719243759971e+01 +1.3529134020010865e+03 +4.9559017646074691e+05 +8.0066047579336055e+06 
+3.1000000000000001e+00 -6.6052850104541760e-01 +1.4717111130163867e+00 +1.2954641393966988e+01 -1.5268814988042378e+01 +1.3844789663856006e+03 +4.9399451770893275e+05 +7.8545114893487254e+06 
+3.2000000000000002e+00 -6.6052860175087691e-01 +1.4717192275300399e+00 +1.2953105836097450e+01 -1.5143782467556926e+01 +1.4202178821950433e+03 +4.9235966329805838e+05 +7.6814869824481737e+06 
+3.2999999999999998e+00 -6.6052871346453901e-01 +1.4717268136734905e+00 +1.2951344029341238e+01 -1.5009328396179571e+01 +1.4604760773320313e+03 +4.9069916596818250e+05 +7.4859012048948752e+06 
+3.3999999999999999e+00 -6.6052883545957908e-01 +1.4717337910623391e+00 +1.2949330288242979e+01 -1.4866159335677814e+01 +1.5055993901162324e+03 +4.8902657725809613e+05 +7.2661245920213256e+06 
+3.5000000000000000e+00 -6.6052896700918040e-01 +1.4717400793075752e+00 +1.2947038930461900e+01 -1.4714981591736647e+01 +1.5559335793918287e+03 +4.8735544687428104e+05 +7.0205279865073068e+06 
+3.6000000000000001e+00 -6.6052910738651716e-01 +1.4717455980213190e+00 +1.2944444276600352e+01 -1.4556501372509610e+01 +1.6118243213273890e+03 +4.8569932360227499e+05 +6.7474826688938420e+06 
+3.7000000000000002e+00 -6.6052925586476974e-01 +1.4717502668116889e+00 +1.2941520650806877e+01 -1.4391424633518128e+01 +1.6736171991357289e+03 +4.8407175435751857e+05 +6.4453604015201805e+06 
+3.7999999999999998e+00 -6.6052941171713064e-01 +1.4717540052879239e+00 +1.2938242381884889e+01 -1.4220457217925418e+01 +1.7416576803373398e+03 +4.8248628499506187e+05 +6.1125335395561382e+06 
+3.8999999999999999e+00 -6.6052957421676239e-01 +1.4717567330499701e+00 +1.2934583799540817e+01 -1.4044304529505114e+01 +1.8162911851066112e+03 +4.8095645833254990e+05 +5.7473747137047071e+06 
+4.0000000000000000e+00 -6.6052974263688180e-01 +1.4717583697044563e+00 +1.2930519242564946e+01 -1.3863672007051548e+01 +1.8978629307008684e+03 +4.7949581690723466e+05 +5.3482575651328424e+06 
+4.0999999999999996e+00 -6.6052991645566217e-01 +1.4717588557572472e+00 +1.2926034129061955e+01 -1.3679171934796985e+01 +1.9865471413425034e+03 +4.7811492767917830e+05 +4.9143491260566581e+06 
+4.2000000000000002e+00 -6.6053009596530665e-01 +1.4717582149645727e+00 +1.2921156312436276e+01 -1.3490943419987676e+01 +2.0818461069211362e+03 +4.7681135779824218e+05 +4.4480586726818969e+06 
+4.2999999999999998e+00 -6.6053028165959060e-01 +1.4717564917235899e+00 +1.2915923722951247e+01 -1.3298972420817021e+01 +2.1830980399471991e+03 +4.7557905851352453e+05 +3.9526208781886525e+06 
+4.4000000000000004e+00 -6.6053047403226339e-01 +1.4717537304321833e+00 +1.2910374287291260e+01 -1.3103244945040228e+01 +2.2896412213320364e+03 +4.7441198134863953e+05 +3.4312701086858520e+06 
+4.5000000000000000e+00 -6.6053067357707917e-01 +1.4717499754868921e+00 +1.2904545932753928e+01 -1.2903747008418303e+01 +2.4008139258479982e+03 +4.7330407799258694e+05 +2.8872407608732269e+06 
+4.5999999999999996e+00 -6.6053088078780420e-01 +1.4717452712844381e+00 +1.2898476586448009e+01 -1.2700464679043902e+01 +2.5159544398140411e+03 +4.7224930053103511e+05 +2.3237671684686798e+06 
+4.7000000000000002e+00 -6.6053109615819283e-01 +1.4717396622237264e+00 +1.2892204174237230e+01 -1.2493384156811745e+01 +2.6344010767515260e+03 +4.7124160198823520e+05 +1.7440835438199851e+06 
+4.7999999999999998e+00 -6.6053132018199179e-01 +1.4717331927006485e+00 +1.2885766620503739e+01 -1.2282491605567714e+01 +2.7554921897284039e+03 +4.7027493530465418e+05 +1.1514238987220477e+06 
+4.9000000000000004e+00 -6.6053155335294955e-01 +1.4717259071125657e+00 +1.2879201848300694e+01 -1.2067773302461291e+01 +2.8785661627939180e+03 +4.6934325422230765e+05 +5.4902210010291869e+05 
+5.0000000000000000e+00 -6.6053179616482016e-01 +1.4717178498593624e+00 +1.2872547781126014e+01 -1.1849215667399671e+01 +3.0029613819387037e+03 +4.6844051348908053e+05 -5.9888000506670171e+04 
+5.0999999999999996e+00 -6.6053204911136076e-01 +1.4717090653346254e+00 +1.2865842341415997e+01 -1.1626805009343283e+01 +3.1280162647265615e+03 +4.6756066736601351e+05 -6.7207271022050281e+05 
+5.2000000000000002e+00 -6.6053231268629442e-01 +1.4716995979395375e+00 +1.2859123446554646e+01 -1.1400527942112992e+01 +3.2530693326680730e+03 +4.6669767207650980e+05 -1.2842988303514512e+06 
+5.2999999999999998e+00 -6.6053258738337983e-01 +1.4716894920689798e+00 +1.2852429017314458e+01 -1.1170370976578393e+01 +3.3774590566582874e+03 +4.6584548343816446e+05 -1.8933329318758228e+06 
+5.4000000000000004e+00 -6.6053287369636537e-01 +1.4716787921215939e+00 +1.2845796971557249e+01 -1.0936320820041555e+01 +3.5005239755252160e+03 +4.6499805859550537e+05 -2.4959419185629124e+06 
+5.5000000000000000e+00 -6.6053317211897444e-01 +1.4716675424932701e+00 +1.2839265223579362e+01 -1.0698364187562262e+01 +3.6216027091361207e+03 +4.6414935494685505e+05 -3.0888930872352370e+06 
+5.5999999999999996e+00 -6.6053348314494897e-01 +1.4716557875825029e+00 +1.2832871687682799e+01 -1.0456487981776437e+01 +3.7400338882700325e+03 +4.6329333123105421e+05 -3.6689537878177650e+06 
+5.7000000000000002e+00 -6.6053380726803479e-01 +1.4716435717876741e+00 +1.2826654277486041e+01 -1.0210679184363245e+01 +3.8551561767456287e+03 +4.6242394682962087e+05 -4.2328915513616521e+06 
+5.7999999999999998e+00 -6.6053414498195850e-01 +1.4716309395041280e+00 +1.2820650902626133e+01 -9.9609248062529367e+00 +3.9663083243981469e+03 +4.6153516155989381e+05 -4.7774743146952614e+06 
+5.9000000000000004e+00 -6.6053449678045351e-01 +1.4716179351298349e+00 +1.2814899472390429e+01 -9.7072120355150773e+00 +4.0728291069914076e+03 +4.6062093649817898e+05 -5.2994701575301997e+06 
+6.0000000000000000e+00 -6.6053486315725163e-01 +1.4716046030619303e+00 +1.2809437894079185e+01 -9.4495281399758824e+00 +4.1740573575113895e+03 +4.5967523361396196e+05 -5.7956474341368200e+06 
+6.0999999999999996e+00 -6.6053524436400335e-01 +1.4715909984793800e+00 +1.2804296066723310e+01 -9.1880704119985133e+00 +4.2694767599081488e+03 +4.5869364939739316e+05 -6.2634665696138572e+06 
+6.2000000000000002e+00 -6.6053563968341333e-01 +1.4715772156351277e+00 +1.2799471018528173e+01 -8.9241216320827697e+00 +4.3591698391884356e+03 +4.5767999356188287e+05 -6.7033008830932947e+06 
+6.2999999999999998e+00 -6.6053604815665568e-01 +1.4715633577154243e+00 +1.2794951482862176e+01 -8.6593050787636212e+00 +4.4433725539627103e+03 +4.5664062140553724e+05 -7.1162849107318111e+06 
+6.4000000000000004e+00 -6.6053646882490413e-01 +1.4715495279108661e+00 +1.2790726191077121e+01 -8.3952442436611197e+00 +4.5223209206952624e+03 +4.5558188966214441e+05 -7.5035535102422899e+06 
+6.5000000000000000e+00 -6.6053690072937454e-01 +1.4715358294085592e+00 +1.2786783877998532e+01 -8.1335625521462767e+00 +4.5962509119063561e+03 +4.5451015476319205e+05 -7.8662413848589715e+06 
+6.5999999999999996e+00 -6.6053734291130184e-01 +1.4715223654039078e+00 +1.2783113278251971e+01 -7.8758837216736657e+00 +4.6653985170245314e+03 +4.5343177495751565e+05 -8.2054833443318531e+06 
+6.7000000000000002e+00 -6.6053779441196470e-01 +1.4715092390869673e+00 +1.2779703130371214e+01 -7.6238313491723870e+00 +4.7299996711327676e+03 +4.5235310786706774e+05 -8.5224139874237049e+06 
+6.7999999999999998e+00 -6.6053825427265489e-01 +1.4714965536548965e+00 +1.2776542171488940e+01 -7.3790292873445820e+00 +4.7902903590345513e+03 +4.5128051272196154e+05 -8.8181682039063089e+06 
+6.9000000000000004e+00 -6.6053872153469440e-01 +1.4714844123036486e+00 +1.2773619140063124e+01 -7.1431014071739209e+00 +4.8465065539072557e+03 +4.5022034897317557e+05 -9.0938808577637263e+06 
+7.0000000000000000e+00 -6.6053919523946314e-01 +1.4714729182296216e+00 +1.2770922779534938e+01 -6.9176716263007378e+00 +4.8988841585858427e+03 +4.4917897641974501e+05 -9.3506865357579049e+06 
+7.0999999999999996e+00 -6.6053967442833217e-01 +1.4714621746349270e+00 +1.2768441829327319e+01 -6.7043640852154525e+00 +4.9476591740901213e+03 +4.4816275629103096e+05 -9.5897203434241507e+06 
+7.2000000000000002e+00 -6.6054015814274913e-01 +1.4714522847199443e+00 +1.2766165035311632e+01 -6.5048029248394243e+00 +4.9930674985864180e+03 +4.4717804992686782e+05 -9.8121169423005376e+06 
+7.2999999999999998e+00 -6.6054064542415381e-01 +1.4714433516898988e+00 +1.2764081141277385e+01 -6.3206124659875176e+00 +5.0353450936447916e+03 +4.4623121981670684e+05 -1.0019011351461269e+07 
+7.4000000000000004e+00 -6.6054113531406522e-01 +1.4714354787486015e+00 +1.2762178896029765e+01 -6.1534170517641913e+00 +5.0747278477210111e+03 +4.4532862870677741e+05 -1.0211538294782927e+07 
+7.5000000000000000e+00 -6.6054162685400075e-01 +1.4714287691045136e+00 +1.2760447046155830e+01 -6.0048412026727567e+00 +5.1114517163327537e+03 +4.4447664047619596e+05 -1.0390832873521661e+07 
+7.5999999999999996e+00 -6.6054211908555438e-01 +1.4714233259651885e+00 +1.2758874344451913e+01 -5.8765094686387895e+00 +5.1457525604379707e+03 +4.4368161930090241e+05 -1.0558029795084083e+07 
+7.7000000000000002e+00 -6.6054261105031553e-01 +1.4714192525448024e+00 +1.2757449540371818e+01 -5.7700466510894053e+00 +5.1778663310934880e+03 +4.4294993095979677e+05 -1.0714264258451354e+07 
+7.7999999999999998e+00 -6.6054310178994879e-01 +1.4714166520564969e+00 +1.2756161389800114e+01 -5.6870775637662305e+00 +5.2080288802936275e+03 +4.4228794139292394e+05 -1.0860671045334158e+07 
+7.9000000000000004e+00 -6.6054359034614307e-01 +1.4714156277145578e+00 +1.2754998647153592e+01 -5.6292271207118239e+00 +5.2364761171249829e+03 +4.4170201726991346e+05 -1.0998385279730277e+07 
+8.0000000000000000e+00 -6.6054407576063712e-01 +1.4714162827404096e+00 +1.2753950070821146e+01 -5.5981206015250855e+00 +5.2634438837504686e+03 +4.4119852715897467e+05 -1.1128541825490393e+07 
+8.0999999999999996e+00 -6.6054455726394790e-01 +1.4714186837428900e+00 +1.2753005910550145e+01 -5.5949428864116255e+00 +5.2891062568039770e+03 +4.4078261724621436e+05 -1.1251957665878858e+07 
+8.1999999999999993e+00 -6.6054503482647120e-01 +1.4714227613714843e+00 +1.2752163738693785e+01 -5.6187934553856751e+00 +5.3133854606529676e+03 +4.4045342847546178e+05 -1.1368255339744594e+07 
+8.3000000000000007e+00 -6.6054550859952588e-01 +1.4714284149066619e+00 +1.2751423195020482e+01 -5.6681825009862061e+00 +5.3361385906949054e+03 +4.4020846089999180e+05 -1.1476776856805272e+07 
+8.4000000000000004e+00 -6.6054597873442644e-01 +1.4714355436199724e+00 +1.2750783921451635e+01 -5.7416196400783086e+00 +5.3572226821537515e+03 +4.4004521127199056e+05 -1.1576864018840274e+07 
+8.5000000000000000e+00 -6.6054644538242446e-01 +1.4714440467680898e+00 +1.2750245554806412e+01 -5.8376137215240353e+00 +5.3764948442439872e+03 +4.3996117086673831e+05 -1.1667858962539678e+07 
+8.5999999999999996e+00 -6.6054690869480059e-01 +1.4714538236008015e+00 +1.2749807735246961e+01 -5.9546730617100625e+00 +5.3938121122889652e+03 +4.3995382684891508e+05 -1.1749103492330577e+07 
+8.6999999999999993e+00 -6.6054736882275356e-01 +1.4714647733472821e+00 +1.2749470097500327e+01 -6.0913050029835860e+00 +5.4090316005656223e+03 +4.4002065961694700e+05 -1.1819939769777909e+07 
+8.8000000000000007e+00 -6.6054782591748873e-01 +1.4714767952328984e+00 +1.2749232277971888e+01 -6.2460164321918583e+00 +5.4220103739813894e+03 +4.4015914587002539e+05 -1.1879709725774447e+07 
+8.9000000000000004e+00 -6.6054828013015066e-01 +1.4714897884625318e+00 +1.2749093907443280e+01 -6.4173132536807698e+00 +5.4326055845111459e+03 +4.4036675543259043e+05 -1.1927755701558482e+07 
+9.0000000000000000e+00 -6.6054873161187133e-01 +1.4715036522299454e+00 +1.2749054619030087e+01 -6.6037006662817914e+00 +5.4406743165694825e+03 +4.4064095289013983e+05 -1.1963419707005125e+07 
+9.0999999999999996e+00 -6.6054918051373801e-01 +1.4715182857142166e+00 +1.2749114041270406e+01 -6.8036830471777971e+00 +5.4460737229787292e+03 +4.4097919685796526e+05 -1.1986044081830159e+07 
+9.1999999999999993e+00 -6.6054962698682285e-01 +1.4715335880798521e+00 +1.2749271803696631e+01 -7.0157639415501132e+00 +5.4486609123998805e+03 +4.4137893988329294e+05 -1.1994970942583738e+07 
+9.3000000000000007e+00 -6.6055007118214037e-01 +1.4715494584772013e+00 +1.2749527531679446e+01 -7.2384460697658275e+00 +5.4482930520169130e+03 +4.4183762849334080e+05 -1.1989542685171260e+07 
+9.4000000000000004e+00 -6.6055051325067382e-01 +1.4715657960406419e+00 +1.2749880849265235e+01 -7.4702312538176132e+00 +5.4448273086770851e+03 +4.4235270268126344e+05 -1.1969101693719165e+07 
+9.5000000000000000e+00 -6.6055095334337821e-01 +1.4715824998894382e+00 +1.2750331379831382e+01 -7.7096204434736517e+00 +5.4381208364450131e+03 +4.4292159607512498e+05 -1.1932990281787798e+07 
+9.5999999999999996e+00 -6.6055139161116583e-01 +1.4715994691256467e+00 +1.2750878744201161e+01 -7.9551136428058014e+00 +5.4280308143054353e+03 +4.4354173546880786e+05 -1.1880550879206590e+07 
+9.6999999999999993e+00 -6.6055182820490443e-01 +1.4716166028365281e+00 +1.2751522560057126e+01 -8.2052099633355358e+00 +5.4144144561084340e+03 +4.4421054107504571e+05 -1.1811126077165900e+07 
+9.8000000000000007e+00 -6.6055226327541527e-01 +1.4716338000921341e+00 +1.2752262444255729e+01 -8.4584075462867592e+00 +5.3971289599196271e+03 +4.4492542607984407e+05 -1.1724058370463584e+07 
+9.9000000000000004e+00 -6.6055269697351249e-01 +1.4716509599447458e+00 +1.2753098012812410e+01 -8.7132035409071413e+00 +5.3760315178112678e+03 +4.4568379644357093e+05 -1.1618690230997110e+07 
+1.0000000000000000e+01 -6.6055312944989963e-01 +1.4716679814213185e+00 +1.2754028872940665e+01 -8.9680937217414911e+00 +5.3509794901824935e+03 +4.4648304954107612e+05 -1.1494364910863521e+07 
+1.0100000000000000e+01 -6.6055356073475890e-01 +1.4716847743551429e+00 +1.2755051272285924e+01 -9.2215800748446437e+00 +5.3219473316229605e+03 +4.4731970151164895e+05 -1.1350981864701685e+07 
