# trajectory
# s[mm] rx[mm] ry[mm] rz[mm] px[rad] py[rad] pz[rad]
0.0000000000000000e+00 +9.1013000000000002e+00 +0.0000000000000000e+00 +0.0000000000000000e+00 +0.0000000000000000e+00 +0.0000000000000000e+00 +1.0000000000000000e+00
-1.0000000000000001e-01 +9.1012994833301661e+00 +0.0000000000000000e+00 -9.9999999998220360e-02 +1.0333400906500706e-05 +0.0000000000000000e+00 +9.9999999994661037e-01
-2.0000000000000001e-01 +9.1012979333189676e+00 +0.0000000000000000e+00 -1.9999999998576279e-01 +2.0666827355503218e-05 +0.0000000000000000e+00 +9.9999999978644105e-01
-3.0000000000000004e-01 +9.1012953499638289e+00 +0.0000000000000000e+00 -2.9999999995194926e-01 +3.1000279801543515e-05 +0.0000000000000000e+00 +9.9999999951949126e-01
-4.0000000000000002e-01 +9.1012917332621281e+00 +0.0000000000000000e+00 -3.9999999988610169e-01 +4.1333758647556213e-05 +0.0000000000000000e+00 +9.9999999914576010e-01
-5.0000000000000000e-01 +9.1012870832112078e+00 +0.0000000000000000e+00 -4.9999999977754189e-01 +5.1667264244875660e-05 +0.0000000000000000e+00 +9.9999999866524680e-01
-5.9999999999999998e-01 +9.1012813998083768e+00 +0.0000000000000000e+00 -5.9999999961559158e-01 +6.2000796893236962e-05 +0.0000000000000000e+00 +9.9999999807795048e-01
-6.9999999999999996e-01 +9.1012746830509190e+00 +0.0000000000000000e+00 -6.9999999938957247e-01 +7.2334356840776860e-05 +0.0000000000000000e+00 +9.9999999738387024e-01
-7.9999999999999993e-01 +9.1012669329360918e+00 +0.0000000000000000e+00 -7.9999999908880615e-01 +8.2667944284034510e-05 +0.0000000000000000e+00 +9.9999999658300531e-01
-8.9999999999999991e-01 +9.1012581494611400e+00 +0.0000000000000000e+00 -8.9999999870261405e-01 +9.3001559367952185e-05 +0.0000000000000000e+00 +9.9999999567535480e-01
-9.9999999999999989e-01 +9.1012483326232942e+00 +0.0000000000000000e+00 -9.9999999822031760e-01 +1.0333520218587582e-04 +0.0000000000000000e+00 +9.9999999466091782e-01
-1.0999999999999999e+00 +9.1012374824197781e+00 +0.0000000000000000e+00 -1.0999999976312380e+00 +1.1366887277955545e-04 +0.0000000000000000e+00 +9.9999999353969349e-01
-1.2000000000000000e+00 +9.1012255988478135e+00 +0.0000000000000000e+00 -1.1999999969246966e+00 +1.2400257113914562e-04 +0.0000000000000000e+00 +9.9999999231168102e-01
-1.3000000000000000e+00 +9.1012126819046273e+00 +0.0000000000000000e+00 -1.2999999960900146e+00 +1.3433629720320550e-04 +0.0000000000000000e+00 +9.9999999097687942e-01
-1.4000000000000001e+00 +9.1011987315874538e+00 +0.0000000000000000e+00 -1.3999999951165130e+00 +1.4467005085869915e-04 +0.0000000000000000e+00 +9.9999998953528801e-01
-1.5000000000000002e+00 +9.1011837478935416e+00 +0.0000000000000000e+00 -1.4999999939935125e+00 +1.5500383194099547e-04 +0.0000000000000000e+00 +9.9999998798690581e-01
-1.6000000000000003e+00 +9.1011677308201584e+00 +0.0000000000000000e+00 -1.5999999927103343e+00 +1.6533764023732859e-04 +0.0000000000000000e+00 +9.9999998633173215e-01
-1.7000000000000004e+00 +9.1011506803645936e+00 +0.0000000000000000e+00 -1.6999999912562991e+00 +1.7567147552486389e-04 +0.0000000000000000e+00 +9.9999998456976613e-01
-1.8000000000000005e+00 +9.1011325965241596e+00 +0.0000000000000000e+00 -1.7999999896207277e+00 +1.8600533760876475e-04 +0.0000000000000000e+00 +9.9999998270100698e-01
-1.9000000000000006e+00 +9.1011134792961847e+00 +0.0000000000000000e+00 -1.8999999877929408e+00 +1.9633922632565469e-04 +0.0000000000000000e+00 +9.9999998072545382e-01
-2.0000000000000004e+00 +9.1010933286780116e+00 +0.0000000000000000e+00 -1.9999999857622588e+00 +2.0667314154361913e-04 +0.0000000000000000e+00 +9.9999997864310597e-01
-2.1000000000000005e+00 +9.1010721446669951e+00 +0.0000000000000000e+00 -2.0999999835180021e+00 +2.1700708316220734e-04 +0.0000000000000000e+00 +9.9999997645396255e-01
-2.2000000000000006e+00 +9.1010499272605010e+00 +0.0000000000000000e+00 -2.1999999810494915e+00 +2.2734105111243445e-04 +0.0000000000000000e+00 +9.9999997415802278e-01
-2.3000000000000007e+00 +9.1010266764558967e+00 +0.0000000000000000e+00 -2.2999999783460470e+00 +2.3767504535678380e-04 +0.0000000000000000e+00 +9.9999997175528588e-01
-2.4000000000000008e+00 +9.1010023922505532e+00 +0.0000000000000000e+00 -2.3999999753969887e+00 +2.4800906588920928e-04 +0.0000000000000000e+00 +9.9999996924575096e-01
-2.5000000000000009e+00 +9.1009770746418415e+00 +0.0000000000000000e+00 -2.4999999721916373e+00 +2.5834311273513792e-04 +0.0000000000000000e+00 +9.9999996662941726e-01
-2.6000000000000010e+00 +9.1009507236271272e+00 +0.0000000000000000e+00 -2.5999999687193123e+00 +2.6867718595147253e-04 +0.0000000000000000e+00 +9.9999996390628398e-01
-2.7000000000000011e+00 +9.1009233392037689e+00 +0.0000000000000000e+00 -2.6999999649693338e+00 +2.7901128562659482e-04 +0.0000000000000000e+00 +9.9999996107635025e-01
-2.8000000000000012e+00 +9.1008949213691164e+00 +0.0000000000000000e+00 -2.7999999609310220e+00 +2.8934541188036818e-04 +0.0000000000000000e+00 +9.9999995813961517e-01
-2.9000000000000012e+00 +9.1008654701205032e+00 +0.0000000000000000e+00 -2.8999999565936965e+00 +2.9967956486414099e-04 +0.0000000000000000e+00 +9.9999995509607797e-01
-3.0000000000000013e+00 +9.1008349854552471e+00 +0.0000000000000000e+00 -2.9999999519466773e+00 +3.1001374476075013e-04 +0.0000000000000000e+00 +9.9999995194573765e-01
-3.1000000000000014e+00 +9.1008034673706462e+00 +0.0000000000000000e+00 -3.0999999469792838e+00 +3.2034795178452426e-04 +0.0000000000000000e+00 +9.9999994868859332e-01
-3.2000000000000015e+00 +9.1007709158639774e+00 +0.0000000000000000e+00 -3.1999999416808356e+00 +3.3068218618128762e-04 +0.0000000000000000e+00 +9.9999994532464409e-01
-3.3000000000000016e+00 +9.1007373309324890e+00 +0.0000000000000000e+00 -3.2999999360406522e+00 +3.4101644822836396e-04 +0.0000000000000000e+00 +9.9999994185388907e-01
-3.4000000000000017e+00 +9.1007027125733995e+00 +0.0000000000000000e+00 -3.3999999300480530e+00 +3.5135073823458040e-04 +0.0000000000000000e+00 +9.9999993827632716e-01
-3.5000000000000018e+00 +9.1006670607838984e+00 +0.0000000000000000e+00 -3.4999999236923571e+00 +3.6168505654027175e-04 +0.0000000000000000e+00 +9.9999993459195746e-01
-3.6000000000000019e+00 +9.1006303755611366e+00 +0.0000000000000000e+00 -3.5999999169628842e+00 +3.7201940351419956e-04 +0.0000000000000000e+00 +9.9999993080077898e-01
-3.7000000000000020e+00 +9.1005926569022275e+00 +0.0000000000000000e+00 -3.6999999098489527e+00 +3.8235377951961996e-04 +0.0000000000000000e+00 +9.9999992690279060e-01
-3.8000000000000020e+00 +9.1005539048042525e+00 +0.0000000000000000e+00 -3.7999999023398821e+00 +3.9268818488034799e-04 +0.0000000000000000e+00 +9.9999992289799133e-01
-3.9000000000000021e+00 +9.1005141192642629e+00 +0.0000000000000000e+00 -3.8999998944249907e+00 +4.0302261987767139e-04 +0.0000000000000000e+00 +9.9999991878638017e-01
-4.0000000000000018e+00 +9.1004733002792815e+00 +0.0000000000000000e+00 -3.9999998860935975e+00 +4.1335708475034898e-04 +0.0000000000000000e+00 +9.9999991456795612e-01
-4.1000000000000014e+00 +9.1004314478463098e+00 +0.0000000000000000e+00 -4.0999998773350210e+00 +4.2369157969460901e-04 +0.0000000000000000e+00 +9.9999991024271817e-01
-4.2000000000000011e+00 +9.1003885619623350e+00 +0.0000000000000000e+00 -4.1999998681385806e+00 +4.3402610486414700e-04 +0.0000000000000000e+00 +9.9999990581066522e-01
-4.3000000000000007e+00 +9.1003446426243269e+00 +0.0000000000000000e+00 -4.2999998584935941e+00 +4.4436066037012364e-04 +0.0000000000000000e+00 +9.9999990127179639e-01
-4.4000000000000004e+00 +9.1002996898292476e+00 +0.0000000000000000e+00 -4.3999998483893794e+00 +4.5469524628116221e-04 +0.0000000000000000e+00 +9.9999989662611066e-01
-4.5000000000000000e+00 +9.1002537035740563e+00 +0.0000000000000000e+00 -4.4999998378152553e+00 +4.6502986262334596e-04 +0.0000000000000000e+00 +9.9999989187360705e-01
-4.5999999999999996e+00 +9.1002066838557099e+00 +0.0000000000000000e+00 -4.5999998267605404e+00 +4.7536450938021518e-04 +0.0000000000000000e+00 +9.9999988701428466e-01
-4.6999999999999993e+00 +9.1001586306711690e+00 +0.0000000000000000e+00 -4.6999998152145519e+00 +4.8569918649276391e-04 +0.0000000000000000e+00 +9.9999988204814261e-01
-4.7999999999999989e+00 +9.1001095440174034e+00 +0.0000000000000000e+00 -4.7999998031666085e+00 +4.9603389385943666e-04 +0.0000000000000000e+00 +9.9999987697518000e-01
-4.8999999999999986e+00 +9.1000594238913930e+00 +0.0000000000000000e+00 -4.8999997906060271e+00 +5.0636863133612475e-04 +0.0000000000000000e+00 +9.9999987179539584e-01
-4.9999999999999982e+00 +9.1000082702901377e+00 +0.0000000000000000e+00 -4.9999997775221265e+00 +5.1670339873616255e-04 +0.0000000000000000e+00 +9.9999986650878947e-01
-5.0999999999999979e+00 +9.0999560832106550e+00 +0.0000000000000000e+00 -5.0999997639042238e+00 +5.2703819583032306e-04 +0.0000000000000000e+00 +9.9999986111535999e-01
-5.1999999999999975e+00 +9.0999028626499907e+00 +0.0000000000000000e+00 -5.1999997497416377e+00 +5.3737302234681380e-04 +0.0000000000000000e+00 +9.9999985561510651e-01
-5.2999999999999972e+00 +9.0998486086052157e+00 +0.0000000000000000e+00 -5.2999997350236843e+00 +5.4770787797127243e-04 +0.0000000000000000e+00 +9.9999985000802849e-01
-5.3999999999999968e+00 +9.0997933210734381e+00 +0.0000000000000000e+00 -5.3999997197396823e+00 +5.5804276234676159e-04 +0.0000000000000000e+00 +9.9999984429412514e-01
-5.4999999999999964e+00 +9.0997370000518014e+00 +0.0000000000000000e+00 -5.4999997038789488e+00 +5.6837767507376415e-04 +0.0000000000000000e+00 +9.9999983847339580e-01
-5.5999999999999961e+00 +9.0996796455374920e+00 +0.0000000000000000e+00 -5.5999996874308007e+00 +5.7871261571067992e-04 +0.0000000000000000e+00 +9.9999983254583980e-01
-5.6999999999999957e+00 +9.0996212575277440e+00 +0.0000000000000000e+00 -5.6999996703845559e+00 +5.8904758377934343e-04 +0.0000000000000000e+00 +9.9999982651145658e-01
-5.7999999999999954e+00 +9.0995618360198378e+00 +0.0000000000000000e+00 -5.7999996527295314e+00 +5.9938257877054568e-04 +0.0000000000000000e+00 +9.9999982037024560e-01
-5.8999999999999950e+00 +9.0995013810111089e+00 +0.0000000000000000e+00 -5.8999996344550443e+00 +6.0971760014453722e-04 +0.0000000000000000e+00 +9.9999981412220640e-01
-5.9999999999999947e+00 +9.0994398924989479e+00 +0.0000000000000000e+00 -5.9999996155504114e+00 +6.2005264733102955e-04 +0.0000000000000000e+00 +9.9999980776733843e-01
-6.0999999999999943e+00 +9.0993773704808021e+00 +0.0000000000000000e+00 -6.0999995960049507e+00 +6.3038771972919654e-04 +0.0000000000000000e+00 +9.9999980130564126e-01
-6.1999999999999940e+00 +9.0993138149541828e+00 +0.0000000000000000e+00 -6.1999995758079791e+00 +6.4072281670767570e-04 +0.0000000000000000e+00 +9.9999979473711464e-01
-6.2999999999999936e+00 +9.0992492259166635e+00 +0.0000000000000000e+00 -6.2999995549488128e+00 +6.5105793760457007e-04 +0.0000000000000000e+00 +9.9999978806175815e-01
-6.3999999999999932e+00 +9.0991836033658871e+00 +0.0000000000000000e+00 -6.3999995334167696e+00 +6.6139308172744960e-04 +0.0000000000000000e+00 +9.9999978127957145e-01
-6.4999999999999929e+00 +9.0991169472995672e+00 +0.0000000000000000e+00 -6.4999995112011666e+00 +6.7172824835335287e-04 +0.0000000000000000e+00 +9.9999977439055443e-01
-6.5999999999999925e+00 +9.0990492577154907e+00 +0.0000000000000000e+00 -6.5999994882913198e+00 +6.8206343672878910e-04 +0.0000000000000000e+00 +9.9999976739470675e-01
-6.6999999999999922e+00 +9.0989805346115222e+00 +0.0000000000000000e+00 -6.6999994646765471e+00 +6.9239864606973969e-04 +0.0000000000000000e+00 +9.9999976029202842e-01
-6.7999999999999918e+00 +9.0989107779856049e+00 +0.0000000000000000e+00 -6.7999994403461645e+00 +7.0273387556166037e-04 +0.0000000000000000e+00 +9.9999975308251932e-01
-6.8999999999999915e+00 +9.0988399878357669e+00 +0.0000000000000000e+00 -6.8999994152894901e+00 +7.1306912435948309e-04 +0.0000000000000000e+00 +9.9999974576617934e-01
-6.9999999999999911e+00 +9.0987681641601199e+00 +0.0000000000000000e+00 -6.9999993894958399e+00 +7.2340439158761799e-04 +0.0000000000000000e+00 +9.9999973834300859e-01
-7.0999999999999908e+00 +9.0986953069568663e+00 +0.0000000000000000e+00 -7.0999993629545308e+00 +7.3373967633995590e-04 +0.0000000000000000e+00 +9.9999973081300719e-01
-7.1999999999999904e+00 +9.0986214162242991e+00 +0.0000000000000000e+00 -7.1999993356548799e+00 +7.4407497767987028e-04 +0.0000000000000000e+00 +9.9999972317617525e-01
-7.2999999999999901e+00 +9.0985464919608088e+00 +0.0000000000000000e+00 -7.2999993075862042e+00 +7.5441029464021951e-04 +0.0000000000000000e+00 +9.9999971543251298e-01
-7.3999999999999897e+00 +9.0984705341648837e+00 +0.0000000000000000e+00 -7.3999992787378215e+00 +7.6474562622334927e-04 +0.0000000000000000e+00 +9.9999970758202061e-01
-7.4999999999999893e+00 +9.0983935428351117e+00 +0.0000000000000000e+00 -7.4999992490990479e+00 +7.7508097140109524e-04 +0.0000000000000000e+00 +9.9999969962469859e-01
-7.5999999999999890e+00 +9.0983155179701853e+00 +0.0000000000000000e+00 -7.5999992186592005e+00 +7.8541632911943943e-04 +0.0000000000000000e+00 +9.9999969156054724e-01
-7.6999999999999886e+00 +9.0982364595689038e+00 +0.0000000000000000e+00 -7.6999991874075961e+00 +7.9575169834970806e-04 +0.0000000000000000e+00 +9.9999968338956702e-01
-7.7999999999999883e+00 +9.0981563676301640e+00 +0.0000000000000000e+00 -7.7999991553335528e+00 +8.0608707813977160e-04 +0.0000000000000000e+00 +9.9999967511175836e-01
-7.8999999999999879e+00 +9.0980752421529534e+00 +0.0000000000000000e+00 -7.8999991224263875e+00 +8.1642246761870322e-04 +0.0000000000000000e+00 +9.9999966672712159e-01
-7.9999999999999876e+00 +9.0979930831363429e+00 +0.0000000000000000e+00 -7.9999990886754162e+00 +8.2675786599678309e-04 +0.0000000000000000e+00 +9.9999965823565706e-01
-8.0999999999999872e+00 +9.0979098905794800e+00 +0.0000000000000000e+00 -8.0999990540699578e+00 +8.3709327256550285e-04 +0.0000000000000000e+00 +9.9999964963736510e-01
-8.1999999999999869e+00 +9.0978256644815776e+00 +0.0000000000000000e+00 -8.1999990185993283e+00 +8.4742868669757056e-04 +0.0000000000000000e+00 +9.9999964093224603e-01
-8.2999999999999865e+00 +9.0977404048419075e+00 +0.0000000000000000e+00 -8.2999989822528466e+00 +8.5776410784691489e-04 +0.0000000000000000e+00 +9.9999963212029996e-01
-8.3999999999999861e+00 +9.0976541116597911e+00 +0.0000000000000000e+00 -8.3999989450198278e+00 +8.6809953554869057e-04 +0.0000000000000000e+00 +9.9999962320152724e-01
-8.4999999999999858e+00 +9.0975667849345925e+00 +0.0000000000000000e+00 -8.4999989068895907e+00 +8.7843496941928279e-04 +0.0000000000000000e+00 +9.9999961417592786e-01
-8.5999999999999854e+00 +9.0974784246657112e+00 +0.0000000000000000e+00 -8.5999988678514523e+00 +8.8877040915631277e-04 +0.0000000000000000e+00 +9.9999960504350194e-01
-8.6999999999999851e+00 +9.0973890308525736e+00 +0.0000000000000000e+00 -8.6999988278947296e+00 +8.9910585453864262e-04 +0.0000000000000000e+00 +9.9999959580424946e-01
-8.7999999999999847e+00 +9.0972986034946199e+00 +0.0000000000000000e+00 -8.7999987870087413e+00 +9.0944130542638100e-04 +0.0000000000000000e+00 +9.9999958645817044e-01
-8.8999999999999844e+00 +9.0972071425913068e+00 +0.0000000000000000e+00 -8.8999987451828027e+00 +9.1977676176088828e-04 +0.0000000000000000e+00 +9.9999957700526476e-01
-8.9999999999999840e+00 +9.0971146481420870e+00 +0.0000000000000000e+00 -8.9999987024062325e+00 +9.3011222356478222e-04 +0.0000000000000000e+00 +9.9999956744553220e-01
-9.0999999999999837e+00 +9.0970211201464082e+00 +0.0000000000000000e+00 -9.0999986586683477e+00 +9.4044769094194360e-04 +0.0000000000000000e+00 +9.9999955777897254e-01
-9.1999999999999833e+00 +9.0969265586037054e+00 +0.0000000000000000e+00 -9.1999986139584653e+00 +9.5078316407752226e-04 +0.0000000000000000e+00 +9.9999954800558533e-01
-9.2999999999999829e+00 +9.0968309635133906e+00 +0.0000000000000000e+00 -9.2999985682659041e+00 +9.6111864323794268e-04 +0.0000000000000000e+00 +9.9999953812537012e-01
-9.3999999999999826e+00 +9.0967343348748457e+00 +0.0000000000000000e+00 -9.3999985215799793e+00 +9.7145412877091013e-04 +0.0000000000000000e+00 +9.9999952813832649e-01
-9.4999999999999822e+00 +9.0966366726874099e+00 +0.0000000000000000e+00 -9.4999984738900078e+00 +9.8178962110541694e-04 +0.0000000000000000e+00 +9.9999951804445375e-01
-9.5999999999999819e+00 +9.0965379769503798e+00 +0.0000000000000000e+00 -9.5999984251853085e+00 +9.9212512074672442e-04 +0.0000000000000000e+00 +9.9999950784375125e-01
-9.6999999999999815e+00 +9.0964382476629986e+00 +0.0000000000000000e+00 -9.6999983754551966e+00 +1.0024606282210977e-03 +0.0000000000000000e+00 +9.9999949753621820e-01
-9.7999999999999812e+00 +9.0963374848244580e+00 +0.0000000000000000e+00 -9.7999983246889908e+00 +1.0127961440205239e-03 +0.0000000000000000e+00 +9.9999948712185383e-01
-9.8999999999999808e+00 +9.0962356884339020e+00 +0.0000000000000000e+00 -9.8999982728760063e+00 +1.0231316685976695e-03 +0.0000000000000000e+00 +9.9999947660065736e-01
-9.9999999999999805e+00 +9.0961328584904315e+00 +0.0000000000000000e+00 -9.9999982200055602e+00 +1.0334672023658601e-03 +0.0000000000000000e+00 +9.9999946597262823e-01
-1.0099999999999980e+01 +9.0960289949931088e+00 +0.0000000000000000e+00 -1.0099998166066969e+01 +1.0438027456990606e-03 +0.0000000000000000e+00 +9.9999945523776568e-01
-1.0199999999999980e+01 +9.0959240979409604e+00 +0.0000000000000000e+00 -1.0199998111049551e+01 +1.0541382989318541e-03 +0.0000000000000000e+00 +9.9999944439606903e-01
-1.0299999999999979e+01 +9.0958181673329825e+00 +0.0000000000000000e+00 -1.0299998054942622e+01 +1.0644738623594213e-03 +0.0000000000000000e+00 +9.9999943344753772e-01
-1.0399999999999979e+01 +9.0957112031681415e+00 +0.0000000000000000e+00 -1.0399997997735497e+01 +1.0748094362375180e-03 +0.0000000000000000e+00 +9.9999942239217110e-01
-1.0499999999999979e+01 +9.0956032054453804e+00 +0.0000000000000000e+00 -1.0499997939417494e+01 +1.0851450207824537e-03 +0.0000000000000000e+00 +9.9999941122996860e-01
-1.0599999999999978e+01 +9.0954941741636244e+00 +0.0000000000000000e+00 -1.0599997879977929e+01 +1.0954806161710680e-03 +0.0000000000000000e+00 +9.9999939996092979e-01
-1.0699999999999978e+01 +9.0953841093217811e+00 +0.0000000000000000e+00 -1.0699997819406118e+01 +1.1058162225407078e-03 +0.0000000000000000e+00 +9.9999938858505411e-01
-1.0799999999999978e+01 +9.0952730109187474e+00 +0.0000000000000000e+00 -1.0799997757691377e+01 +1.1161518399892035e-03 +0.0000000000000000e+00 +9.9999937710234110e-01
-1.0899999999999977e+01 +9.0951608789534113e+00 +0.0000000000000000e+00 -1.0899997694823025e+01 +1.1264874685748441e-03 +0.0000000000000000e+00 +9.9999936551279034e-01
-1.0999999999999977e+01 +9.0950477134246590e+00 +0.0000000000000000e+00 -1.0999997630790375e+01 +1.1368231083163528e-03 +0.0000000000000000e+00 +9.9999935381640148e-01
-1.1099999999999977e+01 +9.0949335143313768e+00 +0.0000000000000000e+00 -1.1099997565582743e+01 +1.1471587591928613e-03 +0.0000000000000000e+00 +9.9999934201317420e-01
-1.1199999999999976e+01 +9.0948182816724525e+00 +0.0000000000000000e+00 -1.1199997499189449e+01 +1.1574944211438843e-03 +0.0000000000000000e+00 +9.9999933010310815e-01
-1.1299999999999976e+01 +9.0947020154467832e+00 +0.0000000000000000e+00 -1.1299997431599804e+01 +1.1678300940692926e-03 +0.0000000000000000e+00 +9.9999931808620324e-01
-1.1399999999999975e+01 +9.0945847156532782e+00 +0.0000000000000000e+00 -1.1399997362803127e+01 +1.1781657778292861e-03 +0.0000000000000000e+00 +9.9999930596245923e-01
-1.1499999999999975e+01 +9.0944663822908627e+00 +0.0000000000000000e+00 -1.1499997292788734e+01 +1.1885014722443667e-03 +0.0000000000000000e+00 +9.9999929373187590e-01
-1.1599999999999975e+01 +9.0943470153584816e+00 +0.0000000000000000e+00 -1.1599997221545941e+01 +1.1988371770960931e-03 +0.0000000000000000e+00 +9.9999928139445327e-01
-1.1699999999999974e+01 +9.0942266148551045e+00 +0.0000000000000000e+00 -1.1699997149064064e+01 +1.2091728921356751e-03 +0.0000000000000000e+00 +9.9999926895019131e-01
