# multipoles
# s[mm] polynom_b[n=0][T/m^n] polynom_b[n=1][T/m^n] polynom_b[n=2][T/m^n] polynom_b[n=3][T/m^n] polynom_b[n=4][T/m^n] polynom_b[n=5][T/m^n] polynom_b[n=6][T/m^n] 
-0.0000000000000000e+00 -1.0593350976335572e+00 +2.3601703016958719e+00 +2.0089034036091846e+01 +7.7656034489940060e+00 +7.1858074697113998e+03 +6.1413540365414077e+05 +8.2025217736587282e+06 
-1.0000000000000001e-01 -1.0593346086287816e+00 +2.3601687436955738e+00 +2.0082425138959238e+01 +7.9941873967891306e+00 +7.3235279900069090e+03 +6.1222779845376022e+05 +7.5331167232133485e+06 
-2.0000000000000001e-01 -1.0593341361857229e+00 +2.3601678010421581e+00 +2.0075431002177126e+01 +8.2463300053904707e+00 +7.4716340699158400e+03 +6.1011295989597600e+05 +6.8085580255172011e+06 
-2.9999999999999999e-01 -1.0593336803123397e+00 +2.3601674139763178e+00 +2.0068115819616203e+01 +8.5200625599769459e+00 +7.6285837421874257e+03 +6.0780928016635473e+05 +6.0366968438609298e+06 
-4.0000000000000002e-01 -1.0593332410165777e+00 +2.3601675227451162e+00 +2.0060543782070319e+01 +8.8134161010350791e+00 +7.7928350965495210e+03 +6.0533515315140516e+05 +5.2253840901632784e+06 
-5.0000000000000000e-01 -1.0593328183063835e+00 +2.3601680675923640e+00 +2.0052779080050144e+01 +9.1244217132899834e+00 +7.9628462314712015e+03 +6.0270897270538320e+05 +4.3824706422736403e+06 
-5.9999999999999998e-01 -1.0593324121897072e+00 +2.3601689887638724e+00 +2.0044885904089316e+01 +9.4511103988577094e+00 +8.1370752409162696e+03 +5.9994913328628021e+05 +3.5158074199591535e+06 
-6.9999999999999996e-01 -1.0593320226744922e+00 +2.3601702265043074e+00 +2.0036928443122637e+01 +9.7915131757194747e+00 +8.3139802479644659e+03 +5.9707402933525166e+05 +2.6332452191082574e+06 
-8.0000000000000004e-01 -1.0593316497687137e+00 +2.3601717210571431e+00 +2.0028970890240043e+01 +1.0143661102880658e+01 +8.4920192938168402e+03 +5.9410205504036311e+05 +1.7426352404118853e+06 
-9.0000000000000002e-01 -1.0593312934803005e+00 +2.3601734126632192e+00 +2.0021077434059205e+01 +1.0505585345614316e+01 +8.6696505014386366e+03 +5.9105160388420033e+05 +8.5182830952256534e+05 
-1.0000000000000000e+00 -1.0593309538172353e+00 +2.3601752415575401e+00 +2.0013312267885979e+01 +1.0875317288072964e+01 +8.8453319029986433e+03 +5.8794106785671634e+05 -3.1324308118114026e+04 
-1.1000000000000001e+00 -1.0593306307874606e+00 +2.3601771479778435e+00 +2.0005739582453419e+01 +1.1250888289872726e+01 +9.0175215704894381e+03 +5.8478883888040332e+05 -8.9897150991914026e+05 
-1.2000000000000000e+00 -1.0593303243989698e+00 +2.3601790721490516e+00 +1.9998423574152110e+01 +1.1630330166198542e+01 +9.1846774665610737e+03 +5.8161330588159338e+05 -1.7432616703240240e+06 
-1.3000000000000000e+00 -1.0593300346597085e+00 +2.3601809542988170e+00 +1.9991428435433956e+01 +1.2011674763426601e+01 +9.3452576207835136e+03 +5.7843285717475275e+05 -2.5563434637154732e+06 
-1.3999999999999999e+00 -1.0593297615776718e+00 +2.3601827346446003e+00 +1.9984818365463298e+01 +1.2392954334430774e+01 +9.4977199284261842e+03 +5.7526587823908695e+05 -3.3303649110376206e+06 
-1.5000000000000000e+00 -1.0593295051608007e+00 +2.3601843533944669e+00 +1.9978657557136568e+01 +1.2772201550075723e+01 +9.6405223992178926e+03 +5.7213075152272079e+05 -4.0574745754534868e+06 
-1.6000000000000001e+00 -1.0593292654171258e+00 +2.3601857507532742e+00 +1.9973010217441733e+01 +1.3147449325758007e+01 +9.7721227617001296e+03 +5.6904585743361840e+05 -4.7298196538318517e+06 
-1.7000000000000000e+00 -1.0593290423546047e+00 +2.3601868669170241e+00 +1.9967940544975303e+01 +1.3516731017851924e+01 +9.8909788988008750e+03 +5.6602957305646723e+05 -5.3395480751413787e+06 
-1.8000000000000000e+00 -1.0593288359812330e+00 +2.3601876420679537e+00 +1.9963512744451510e+01 +1.3878080571102775e+01 +9.9955485673975872e+03 +5.6310027125295042e+05 -5.8788071587709244e+06 
-1.8999999999999999e+00 -1.0593286463050047e+00 +2.3601880163827338e+00 +1.9959791023587755e+01 +1.4229532316984821e+01 +1.0084289454993443e+04 +5.6027632172837306e+05 -6.3397438749263771e+06 
-2.0000000000000000e+00 -1.0593284733339376e+00 +2.3601879300290141e+00 +1.9956839594131274e+01 +1.4569121063686064e+01 +1.0155659161613026e+04 +5.5757609049320430e+05 -6.7145047658531861e+06 
-2.1000000000000001e+00 -1.0593283169735395e+00 +2.3601873379567584e+00 +1.9954700560809510e+01 +1.4895188719144496e+01 +1.0208604428995921e+04 +5.5501502054411266e+05 -6.9976421641693246e+06 
-2.2000000000000002e+00 -1.0593281766891998e+00 +2.3601862677668843e+00 +1.9953322913692670e+01 +1.5206887320042130e+01 +1.0244108913585234e+04 +5.5259904191787343e+05 -7.1936947113592578e+06 
-2.2999999999999998e+00 -1.0593280518286381e+00 +2.3601847686917554e+00 +1.9952631156238930e+01 +1.5503465653505938e+01 +1.0263686546283034e+04 +5.5033225697721587e+05 -7.3097933644667398e+06 
-2.3999999999999999e+00 -1.0593279417395294e+00 +2.3601828899708637e+00 +1.9952549786667372e+01 +1.5784172297195129e+01 +1.0268851364794857e+04 +5.4821876932307112e+05 -7.3530696208435018e+06 
-2.5000000000000000e+00 -1.0593278457695965e+00 +2.3601806808456600e+00 +1.9953003310104048e+01 +1.6048255745788076e+01 +1.0261117264339373e+04 +5.4626268312568136e+05 -7.3306542798657017e+06 
-2.6000000000000001e+00 -1.0593277632665594e+00 +2.3601781905706551e+00 +1.9953916231300497e+01 +1.6294964096875049e+01 +1.0241998146845155e+04 +5.4446810494385427e+05 -7.2496781858855505e+06 
-2.7000000000000002e+00 -1.0593276935781220e+00 +2.3601754684086167e+00 +1.9955213053777193e+01 +1.6523545152293778e+01 +1.0213007936701406e+04 +5.4283914328155352e+05 -7.1172722983517181e+06 
-2.7999999999999998e+00 -1.0593276360520278e+00 +2.3601725636266706e+00 +1.9956818287063570e+01 +1.6733246541420151e+01 +1.0175660441510150e+04 +5.4137990784014948e+05 -6.9405670301736677e+06 
-2.8999999999999999e+00 -1.0593275900360184e+00 +2.3601695255109836e+00 +1.9958656438681128e+01 +1.6923315255314023e+01 +1.0131469501733320e+04 +5.4009451233678940e+05 -6.7266929481868278e+06 
-3.0000000000000000e+00 -1.0593275548778318e+00 +2.3601664033548984e+00 +1.9960652017973935e+01 +1.7092998014684852e+01 +1.0081948929793714e+04 +5.3898707236077986e+05 -6.4827805202399958e+06 
-3.1000000000000001e+00 -1.0593275299252594e+00 +2.3601632464651607e+00 +1.9962729540921000e+01 +1.7241541046930411e+01 +1.0028612403564357e+04 +5.3806170677353512e+05 -6.2159595661461940e+06 
-3.2000000000000002e+00 -1.0593275145260508e+00 +2.3601601041645202e+00 +1.9964813517363758e+01 +1.7368190004499009e+01 +9.9729737213211010e+03 +5.3732253821173520e+05 -5.9333605034424448e+06 
-3.2999999999999998e+00 -1.0593275080279969e+00 +2.3601570257923750e+00 +1.9966828463853815e+01 +1.7472189947833225e+01 +9.9165465519353729e+03 +5.3677369322037487e+05 -5.6421131473891120e+06 
-3.3999999999999999e+00 -1.0593275097788950e+00 +2.3601540607040170e+00 +1.9968698897316241e+01 +1.7552785337261781e+01 +9.8608445569632513e+03 +5.3641930238725338e+05 -5.3493472940715719e+06 
-3.5000000000000000e+00 -1.0593275191265532e+00 +2.3601512582730337e+00 +1.9970349335265482e+01 +1.7609219953152856e+01 +9.8073813891086938e+03 +5.3626350084148662e+05 -5.0621927214834755e+06 
-3.6000000000000001e+00 -1.0593275354187912e+00 +2.3601486678907269e+00 +1.9971704298146836e+01 +1.7640736919578927e+01 +9.7576706435818505e+03 +5.3631042814099893e+05 -4.7877789490766088e+06 
-3.7000000000000002e+00 -1.0593275580034383e+00 +2.3601463389723523e+00 +1.9972688306492302e+01 +1.7646578472601856e+01 +9.7132259189819324e+03 +5.3656422975181811e+05 -4.5332355424500769e+06 
-3.7999999999999998e+00 -1.0593275862283427e+00 +2.3601443209477839e+00 +1.9973225883235429e+01 +1.7625986259759756e+01 +9.6755607649861940e+03 +5.3702905524882872e+05 -4.3056918473711349e+06 
-3.8999999999999999e+00 -1.0593276194413741e+00 +2.3601426632782800e+00 +1.9973241554972748e+01 +1.7578200823843424e+01 +9.6461886671173015e+03 +5.3770906143136974e+05 -4.1122769394174549e+06 
-4.0000000000000000e+00 -1.0593276569904011e+00 +2.3601414154427762e+00 +1.9972659845344172e+01 +1.7502461983587075e+01 +9.6266231712576282e+03 +5.3860841014489415e+05 -3.9601202134666825e+06 
-4.0999999999999996e+00 -1.0593276982291229e+00 +2.3601406208949136e+00 +1.9971425293129872e+01 +1.7398332735174851e+01 +9.6180220763662346e+03 +5.3972850535153097e+05 -3.8547713213621727e+06 
-4.2000000000000002e+00 -1.0593277425640619e+00 +2.3601402776954821e+00 +1.9969567098435149e+01 +1.7266968555587365e+01 +9.6200178846170056e+03 +5.4105839671303751e+05 -3.7948981279862043e+06 
-4.2999999999999998e+00 -1.0593277894227797e+00 +2.3601403668775451e+00 +1.9967136915752654e+01 +1.7110010965906827e+01 +9.6318337582684690e+03 +5.4258362020987167e+05 -3.7772956314983871e+06 
-4.4000000000000004e+00 -1.0593278382328204e+00 +2.3601408694606345e+00 +1.9964186395545649e+01 +1.6929101847657932e+01 +9.6526929421588775e+03 +5.4428970968348323e+05 -3.7987592158156969e+06 
-4.5000000000000000e+00 -1.0593278884217401e+00 +2.3601417664527640e+00 +1.9960767190776298e+01 +1.6725883387632692e+01 +9.6818186374297566e+03 +5.4616219725447777e+05 -3.8560840499406531e+06 
-4.5999999999999996e+00 -1.0593279394170572e+00 +2.3601430388551403e+00 +1.9956930947128363e+01 +1.6501997922385609e+01 +9.7184341894678309e+03 +5.4818661421635514e+05 -3.9460659853820121e+06 
-4.7000000000000002e+00 -1.0593279906463398e+00 +2.3601446676535911e+00 +1.9952729316014398e+01 +1.6259088200302699e+01 +9.7617628460419564e+03 +5.5034848951593158e+05 -4.0655004199505807e+06 
-4.7999999999999998e+00 -1.0593280415370576e+00 +2.3601466338199124e+00 +1.9948213937165423e+01 +1.5998797352832700e+01 +9.8110280815363767e+03 +5.5263334989073325e+05 -4.2111838178698989e+06 
-4.9000000000000004e+00 -1.0593280915167242e+00 +2.3601489183126780e+00 +1.9943436452412271e+01 +1.5722768842926168e+01 +9.8654533407995750e+03 +5.5502672018709546e+05 -4.3799125083054835e+06 
-5.0000000000000000e+00 -1.0593281400128627e+00 +2.3601515020785162e+00 +1.9938448505830621e+01 +1.5432646455435570e+01 +9.9242620301709539e+03 +5.5751412340306595e+05 -4.5684826222162712e+06 
-5.0999999999999996e+00 -1.0593281864529467e+00 +2.3601543660451298e+00 +1.9933301733158245e+01 +1.5130074472534568e+01 +9.9866777265408509e+03 +5.6008107969419390e+05 -4.7736911065683430e+06 
-5.2000000000000002e+00 -1.0593282302644391e+00 +2.3601574911202015e+00 +1.9928047767196876e+01 +1.4816697732859161e+01 +1.0051924074173872e+04 +5.6271310595897143e+05 -4.9923352336884430e+06 
-5.2999999999999998e+00 -1.0593282708747913e+00 +2.3601608582002043e+00 +1.9922738239145758e+01 +1.4494161359365975e+01 +1.0119224753340448e+04 +5.6539571747569239e+05 -5.2212124284207942e+06 
-5.4000000000000004e+00 -1.0593283077114577e+00 +2.3601644481586779e+00 +1.9917424778309378e+01 +1.4164111093129762e+01 +1.0187803493730191e+04 +5.6811442595733702e+05 -5.4571203576180516e+06 
-5.5000000000000000e+00 -1.0593283402018339e+00 +2.3601682418512833e+00 +1.9912159006755576e+01 +1.3828193173866175e+01 +1.0256884172457208e+04 +5.7085474018467288e+05 -5.6968573812501132e+06 
-5.5999999999999996e+00 -1.0593283677733498e+00 +2.3601722201082884e+00 +1.9906992547303410e+01 +1.3488054519180494e+01 +1.0325690663034422e+04 +5.7360216503938742e+05 -5.9372218359050024e+06 
-5.7000000000000002e+00 -1.0593283898533872e+00 +2.3601763637435216e+00 +1.9901977017206800e+01 +1.3145342500614104e+01 +1.0393446957544349e+04 +5.7634220273036126e+05 -6.1750126220129440e+06 
-5.7999999999999998e+00 -1.0593284058693320e+00 +2.3601806535464065e+00 +1.9897164031028886e+01 +1.2801705142569951e+01 +1.0459377110699876e+04 +5.7906035169943236e+05 -6.4070289274208611e+06 
-5.9000000000000004e+00 -1.0593284152485114e+00 +2.3601850702850138e+00 +1.9892605195664203e+01 +1.2458791069067416e+01 +1.0522705337139832e+04 +5.8174210685172549e+05 -6.6300707009014981e+06 
-6.0000000000000000e+00 -1.0593284174182664e+00 +2.3601895946966445e+00 +1.9888352118083869e+01 +1.2118249693165325e+01 +1.0582655854330747e+04 +5.8437295830681617e+05 -6.8409379003440673e+06 
-6.0999999999999996e+00 -1.0593284119936992e+00 +2.3601941915661331e+00 +1.9884443559773082e+01 +1.1781889730992576e+01 +1.0638638354441418e+04 +5.8693834261140821e+05 -7.0372128400541395e+06 
-6.2000000000000002e+00 -1.0593283993560010e+00 +2.3601987908831350e+00 +1.9880869957904014e+01 +1.1452178382965615e+01 +1.0690748798305945e+04 +5.8942364331472362e+05 -7.2193893765279986e+06 
-6.2999999999999998e+00 -1.0593283800813496e+00 +2.3602033209979512e+00 +1.9877610251729799e+01 +1.1131756078191124e+01 +1.0739241716053453e+04 +5.9181428791925195e+05 -7.3886405499997390e+06 
-6.4000000000000004e+00 -1.0593283547458137e+00 +2.3602077102535732e+00 +1.9874643366432007e+01 +1.0823263603830050e+01 +1.0784371887695912e+04 +5.9409570218447770e+05 -7.5461405583553454e+06 
-6.5000000000000000e+00 -1.0593283239255529e+00 +2.3602118869972926e+00 +1.9871948239351500e+01 +1.0529341745818702e+01 +1.0826393847760241e+04 +5.9625331168980815e+05 -7.6930623603232466e+06 
-6.5999999999999996e+00 -1.0593282881965997e+00 +2.3602157795751739e+00 +1.9869503790636269e+01 +1.0252631475613919e+01 +1.0865562443334882e+04 +5.9827254066369869e+05 -7.8305803281576652e+06 
-6.7000000000000002e+00 -1.0593282481349908e+00 +2.3602193163295224e+00 +1.9867288941327736e+01 +9.9957739966260721e+00 +1.0902132494867856e+04 +6.0013881181810761e+05 -7.9598686492104381e+06 
-6.7999999999999998e+00 -1.0593282043167596e+00 +2.3602224256060107e+00 +1.9865282612567690e+01 +9.7614105664116693e+00 +1.0936358799537860e+04 +6.0183754729575664e+05 -8.0821013047105717e+06 
-6.9000000000000004e+00 -1.0593281573178486e+00 +2.3602250357459011e+00 +1.9863463711256511e+01 +9.5521827165742863e+00 +1.0968496416570986e+04 +6.0335416739522491e+05 -8.1984534637284065e+06 
-7.0000000000000000e+00 -1.0593281077142325e+00 +2.3602270750923675e+00 +1.9861811150266767e+01 +9.3707320837736834e+00 +1.0998800271746795e+04 +6.0467409155567456e+05 -8.3100995690052612e+06 
-7.0999999999999996e+00 -1.0593280560818186e+00 +2.3602284719893438e+00 +1.9860303832952869e+01 +9.2197004407898611e+00 +1.1027525456493098e+04 +6.0578273816553492e+05 -8.4182147712745070e+06 
-7.2000000000000002e+00 -1.0593280029964915e+00 +2.3602291547762024e+00 +1.9858920658576903e+01 +9.1017298650036480e+00 +1.1054927122196143e+04 +6.0666552354657662e+05 -8.5239744191561416e+06 
-7.2999999999999998e+00 -1.0593279490340883e+00 +2.3602290517982478e+00 +1.9857640522772073e+01 +9.0194624376893291e+00 +1.1081260476522484e+04 +6.0730786373818701e+05 -8.6285540549805947e+06 
-7.4000000000000004e+00 -1.0593278947704219e+00 +2.3602280913968410e+00 +1.9856442315121544e+01 +8.9755405306134968e+00 +1.1106780815521723e+04 +6.0769517276839796e+05 -8.7331295261240117e+06 
-7.5000000000000000e+00 -1.0593278407812547e+00 +2.3602262019104767e+00 +1.9855304919576010e+01 +8.9726067885613112e+00 +1.1131743532541826e+04 +6.0781286278589279e+05 -8.8388770769745223e+06 
-7.5999999999999996e+00 -1.0593277876423568e+00 +2.3602233116857438e+00 +1.9854207220616029e+01 +9.0133038031942760e+00 +1.1156403983864937e+04 +6.0764634594806610e+05 -8.9469726571714636e+06 
-7.7000000000000002e+00 -1.0593277359293856e+00 +2.3602193490636521e+00 +1.9853128088621052e+01 +9.1002745413014416e+00 +1.1181017780513086e+04 +6.0718103187126329e+05 -9.0585933492395617e+06 
-7.7999999999999998e+00 -1.0593276862180372e+00 +2.3602142423876269e+00 +1.9852046399178469e+01 +9.2361621037480166e+00 +1.1205840407063057e+04 +6.0640232905630080e+05 -9.1749155135006327e+06 
-7.9000000000000004e+00 -1.0593276390839010e+00 +2.3602079200017556e+00 +1.9850941011781231e+01 +9.4236097595997261e+00 +1.1231127641444820e+04 +6.0529564472744090e+05 -9.2971168274454828e+06 
-8.0000000000000000e+00 -1.0593275951025758e+00 +2.3602003102605913e+00 +1.9849790790490420e+01 +9.6652606503712111e+00 +1.1257135131698402e+04 +6.0384638752453541e+05 -9.4263740989395119e+06 
-8.0999999999999996e+00 -1.0593275546422412e+00 +2.3601913908487817e+00 +1.9848580012306009e+01 +9.9621812359599460e+00 +1.1284019163931876e+04 +6.0204944643373974e+05 -9.5632839343026411e+06 
-8.1999999999999993e+00 -1.0593275171908920e+00 +2.3601813058890659e+00 +1.9847302972652557e+01 +1.0309332188910416e+01 +1.1311836656634488e+04 +5.9993490965058061e+05 -9.7077402673404999e+06 
-8.3000000000000007e+00 -1.0593274820029219e+00 +2.3601702356543433e+00 +1.9845953588462248e+01 +1.0700111103556051e+01 +1.1340696748359918e+04 +5.9754149405301164e+05 -9.8598695545510706e+06 
-8.4000000000000004e+00 -1.0593274483328246e+00 +2.3601583604294967e+00 +1.9844525789923416e+01 +1.1127914968449653e+01 +1.1370708393269460e+04 +5.9490791910563980e+05 -1.0019797538920157e+07 
-8.5000000000000000e+00 -1.0593274154351278e+00 +2.3601458605209915e+00 +1.9843013511128024e+01 +1.1586139999031101e+01 +1.1401980516289370e+04 +5.9207290893097210e+05 -1.0187650043901529e+07 
-8.5999999999999996e+00 -1.0593273825644598e+00 +2.3601329162496598e+00 +1.9841410696499217e+01 +1.2068181856271380e+01 +1.1434621886559255e+04 +5.8907519096983597e+05 -1.0363552356313189e+07 
-8.6999999999999993e+00 -1.0593273489754782e+00 +2.3601197079526948e+00 +1.9839711296958853e+01 +1.2567435573242363e+01 +1.1468741198054273e+04 +5.8595349650835095e+05 -1.0547629639764076e+07 
-8.8000000000000007e+00 -1.0593273139229775e+00 +2.3601064159796663e+00 +1.9837909278547198e+01 +1.3077295673085048e+01 +1.1504446897491938e+04 +5.8274655991481035e+05 -1.0740006091378294e+07 
-8.9000000000000004e+00 -1.0593272766618151e+00 +2.3600932206990652e+00 +1.9835998614918200e+01 +1.3591155969341907e+01 +1.1541847336744235e+04 +5.7949311984091566e+05 -1.0940805700891592e+07 
-9.0000000000000000e+00 -1.0593272364469062e+00 +2.3600803024989929e+00 +1.9833973288284898e+01 +1.4102409549462015e+01 +1.1581050752896925e+04 +5.7623191932135820e+05 -1.1150152151419284e+07 
-9.0999999999999996e+00 -1.0593271925332715e+00 +2.3600678417809950e+00 +1.9831827292538385e+01 +1.4604448935496752e+01 +1.1622165209513925e+04 +5.7300170484844351e+05 -1.1368168545285076e+07 
-9.1999999999999993e+00 -1.0593271441760352e+00 +2.3600560189640096e+00 +1.9829554634004221e+01 +1.5090665969361400e+01 +1.1665298585801933e+04 +5.6984122703045956e+05 -1.1594977364694418e+07 
-9.3000000000000007e+00 -1.0593270906303849e+00 +2.3600450144931635e+00 +1.9827149328303438e+01 +1.5554451563558890e+01 +1.1710558635536237e+04 +5.6678924205850798e+05 -1.1830700755702922e+07 
-9.4000000000000004e+00 -1.0593270311516170e+00 +2.3600350088233832e+00 +1.9824605403438188e+01 +1.5989196157566871e+01 +1.1758052931288210e+04 +5.6388450904623303e+05 -1.2075460270264927e+07 
-9.5000000000000000e+00 -1.0593269649951069e+00 +2.3600261824341140e+00 +1.9821916897838364e+01 +1.6388289297184684e+01 +1.1807888900342514e+04 +5.6116579248208692e+05 -1.2329377039262671e+07 
-9.5999999999999996e+00 -1.0593268914163501e+00 +2.3600187158231045e+00 +1.9819077864346529e+01 +1.6745119786016286e+01 +1.1860173754050773e+04 +5.5867186140740826e+05 -1.2592571454461094e+07 
-9.6999999999999993e+00 -1.0593268096709236e+00 +2.3600127895091170e+00 +1.9816082365218218e+01 +1.7053075643068812e+01 +1.1915014582706619e+04 +5.5644148954703810e+05 -1.2865163619096233e+07 
-9.8000000000000007e+00 -1.0593267190145204e+00 +2.3600085840330207e+00 +1.9812924479768252e+01 +1.7305544034276199e+01 +1.1972518207009378e+04 +5.5451345582953200e+05 -1.3147272639537798e+07 
-9.9000000000000004e+00 -1.0593266187029378e+00 +2.3600062799546149e+00 +1.9809598296047291e+01 +1.7495911356981956e+01 +1.2032791345500937e+04 +5.5292654385508143e+05 -1.3439017447572529e+07 
-1.0000000000000000e+01 -1.0593265079920706e+00 +2.3600060578415141e+00 +1.9806097916140981e+01 +1.7617563765156024e+01 +1.2095940539291720e+04 +5.5171953710938443e+05 -1.3740516643125571e+07 
-1.0100000000000000e+01 -1.0593263863758078e+00 +2.3600080345508627e+00 +1.9802422050921177e+01 +1.7665871232709399e+01 +1.2162017666824549e+04 +5.5091937910542893e+05 -1.4051807577005561e+07 
