# trajectory
# s[mm] rx[mm] ry[mm] rz[mm] px[rad] py[rad] pz[rad]
0.0000000000000000e+00 +9.1762999999999995e+00 +0.0000000000000000e+00 +0.0000000000000000e+00 +0.0000000000000000e+00 +0.0000000000000000e+00 +1.0000000000000000e+00
1.0000000000000001e-01 +9.1762994844243195e+00 +0.0000000000000000e+00 +9.9999999998227881e-02 -1.0311517267112603e-05 +0.0000000000000000e+00 +9.9999999994683630e-01
2.0000000000000001e-01 +9.1762979376958107e+00 +0.0000000000000000e+00 +1.9999999998582302e-01 -2.0623056591420954e-05 +0.0000000000000000e+00 +9.9999999978734477e-01
3.0000000000000004e-01 +9.1762953598122579e+00 +0.0000000000000000e+00 +2.9999999995215254e-01 -3.0934618196412137e-05 +0.0000000000000000e+00 +9.9999999952152474e-01
4.0000000000000002e-01 +9.1762917507714210e+00 +0.0000000000000000e+00 +3.9999999988658363e-01 -4.1246202292727272e-05 +0.0000000000000000e+00 +9.9999999914937543e-01
5.0000000000000000e-01 +9.1762871105710424e+00 +0.0000000000000000e+00 +4.9999999977848331e-01 -5.1557809078175612e-05 +0.0000000000000000e+00 +9.9999999867089617e-01
5.9999999999999998e-01 +9.1762814392088430e+00 +0.0000000000000000e+00 +5.9999999961721850e-01 -6.1869438737554831e-05 +0.0000000000000000e+00 +9.9999999808608631e-01
6.9999999999999996e-01 +9.1762747366825259e+00 +0.0000000000000000e+00 +6.9999999939215618e-01 -7.2181091440522044e-05 +0.0000000000000000e+00 +9.9999999739494505e-01
7.9999999999999993e-01 +9.1762670029897802e+00 +0.0000000000000000e+00 +7.9999999909266317e-01 -8.2492767339461864e-05 +0.0000000000000000e+00 +9.9999999659747174e-01
8.9999999999999991e-01 +9.1762582381282805e+00 +0.0000000000000000e+00 +8.9999999870810610e-01 -9.2804466569301221e-05 +0.0000000000000000e+00 +9.9999999569366560e-01
9.9999999999999989e-01 +9.1762484420956856e+00 +0.0000000000000000e+00 +9.9999999822785179e-01 -1.0311618924751758e-04 +0.0000000000000000e+00 +9.9999999468352585e-01
1.0999999999999999e+00 +9.1762376148896454e+00 +0.0000000000000000e+00 +1.0999999976412669e+00 -1.1342793547414575e-04 +0.0000000000000000e+00 +9.9999999356705183e-01
1.2000000000000000e+00 +9.1762257565078027e+00 +0.0000000000000000e+00 +1.1999999969377178e+00 -1.2373970533178328e-04 +0.0000000000000000e+00 +9.9999999234424275e-01
1.3000000000000000e+00 +9.1762128669477896e+00 +0.0000000000000000e+00 +1.2999999961065709e+00 -1.3405149888559440e-04 +0.0000000000000000e+00 +9.9999999101509784e-01
1.4000000000000001e+00 +9.1761989462072346e+00 +0.0000000000000000e+00 +1.3999999951371929e+00 -1.4436331618331255e-04 +0.0000000000000000e+00 +9.9999998957961644e-01
1.5000000000000002e+00 +9.1761839942837611e+00 +0.0000000000000000e+00 +1.4999999940189497e+00 -1.5467515725524149e-04 +0.0000000000000000e+00 +9.9999998803779777e-01
1.6000000000000003e+00 +9.1761680111749904e+00 +0.0000000000000000e+00 +1.5999999927412079e+00 -1.6498702211425496e-04 +0.0000000000000000e+00 +9.9999998638964116e-01
1.7000000000000004e+00 +9.1761509968785457e+00 +0.0000000000000000e+00 +1.6999999912933332e+00 -1.7529891075579484e-04 +0.0000000000000000e+00 +9.9999998463514583e-01
1.8000000000000005e+00 +9.1761329513920487e+00 +0.0000000000000000e+00 +1.7999999896646923e+00 -1.8561082315786805e-04 +0.0000000000000000e+00 +9.9999998277431101e-01
1.9000000000000006e+00 +9.1761138747131241e+00 +0.0000000000000000e+00 +1.8999999878446507e+00 -1.9592275928104186e-04 +0.0000000000000000e+00 +9.9999998080713604e-01
2.0000000000000004e+00 +9.1760937668394043e+00 +0.0000000000000000e+00 +1.9999999858225748e+00 -2.0623471906843790e-04 +0.0000000000000000e+00 +9.9999997873362012e-01
2.1000000000000005e+00 +9.1760726277685247e+00 +0.0000000000000000e+00 +2.0999999835878302e+00 -2.1654670244572463e-04 +0.0000000000000000e+00 +9.9999997655376260e-01
2.2000000000000006e+00 +9.1760504574981319e+00 +0.0000000000000000e+00 +2.1999999811297828e+00 -2.2685870932110844e-04 +0.0000000000000000e+00 +9.9999997426756271e-01
2.3000000000000007e+00 +9.1760272560258809e+00 +0.0000000000000000e+00 +2.2999999784377980e+00 -2.3717073958532330e-04 +0.0000000000000000e+00 +9.9999997187501977e-01
2.4000000000000008e+00 +9.1760030233494394e+00 +0.0000000000000000e+00 +2.3999999755012418e+00 -2.4748279311161901e-04 +0.0000000000000000e+00 +9.9999996937613311e-01
2.5000000000000009e+00 +9.1759777594664875e+00 +0.0000000000000000e+00 +2.4999999723094799e+00 -2.5779486975574794e-04 +0.0000000000000000e+00 +9.9999996677090208e-01
2.6000000000000010e+00 +9.1759514643747231e+00 +0.0000000000000000e+00 +2.5999999688518773e+00 -2.6810696935687710e-04 +0.0000000000000000e+00 +9.9999996405932590e-01
2.7000000000000011e+00 +9.1759241380718564e+00 +0.0000000000000000e+00 +2.6999999651177999e+00 -2.7841909174776690e-04 +0.0000000000000000e+00 +9.9999996124140400e-01
2.8000000000000012e+00 +9.1758957805556189e+00 +0.0000000000000000e+00 +2.7999999610966131e+00 -2.8873123676495868e-04 +0.0000000000000000e+00 +9.9999995831713562e-01
2.9000000000000012e+00 +9.1758663918237549e+00 +0.0000000000000000e+00 +2.8999999567776822e+00 -2.9904340424970107e-04 +0.0000000000000000e+00 +9.9999995528652019e-01
3.0000000000000013e+00 +9.1758359718740259e+00 +0.0000000000000000e+00 +2.9999999521503722e+00 -3.0935559404795030e-04 +0.0000000000000000e+00 +9.9999995214955706e-01
3.1000000000000014e+00 +9.1758045207042063e+00 +0.0000000000000000e+00 +3.0999999472040485e+00 -3.1966780601037090e-04 +0.0000000000000000e+00 +9.9999994890624555e-01
3.2000000000000015e+00 +9.1757720383120898e+00 +0.0000000000000000e+00 +3.1999999419280765e+00 -3.2998003999233638e-04 +0.0000000000000000e+00 +9.9999994555658511e-01
3.3000000000000016e+00 +9.1757385246954790e+00 +0.0000000000000000e+00 +3.2999999363118206e+00 -3.4029229585393034e-04 +0.0000000000000000e+00 +9.9999994210057497e-01
3.4000000000000017e+00 +9.1757039798521944e+00 +0.0000000000000000e+00 +3.3999999303446464e+00 -3.5060457345994763e-04 +0.0000000000000000e+00 +9.9999993853821456e-01
3.5000000000000018e+00 +9.1756684037800671e+00 +0.0000000000000000e+00 +3.4999999240159188e+00 -3.6091687267989593e-04 +0.0000000000000000e+00 +9.9999993486950334e-01
3.6000000000000019e+00 +9.1756317964769423e+00 +0.0000000000000000e+00 +3.5999999173150021e+00 -3.7122919338799739e-04 +0.0000000000000000e+00 +9.9999993109444052e-01
3.7000000000000020e+00 +9.1755941579406777e+00 +0.0000000000000000e+00 +3.6999999102312615e+00 -3.8154153546319060e-04 +0.0000000000000000e+00 +9.9999992721302566e-01
3.8000000000000020e+00 +9.1755554881691417e+00 +0.0000000000000000e+00 +3.7999999027540619e+00 -3.9185389878913270e-04 +0.0000000000000000e+00 +9.9999992322525799e-01
3.9000000000000021e+00 +9.1755157871602151e+00 +0.0000000000000000e+00 +3.8999998948727681e+00 -4.0216628325420175e-04 +0.0000000000000000e+00 +9.9999991913113695e-01
4.0000000000000018e+00 +9.1754750549117894e+00 +0.0000000000000000e+00 +3.9999998865767443e+00 -4.1247868875149944e-04 +0.0000000000000000e+00 +9.9999991493066198e-01
4.1000000000000014e+00 +9.1754332914217667e+00 +0.0000000000000000e+00 +4.0999998778553550e+00 -4.2279111517885376e-04 +0.0000000000000000e+00 +9.9999991062383242e-01
4.2000000000000011e+00 +9.1753904966880597e+00 +0.0000000000000000e+00 +4.1999998686979652e+00 -4.3310356243882224e-04 +0.0000000000000000e+00 +9.9999990621064760e-01
4.3000000000000007e+00 +9.1753466707085884e+00 +0.0000000000000000e+00 +4.2999998590939388e+00 -4.4341603043869510e-04 +0.0000000000000000e+00 +9.9999990169110708e-01
4.4000000000000004e+00 +9.1753018134812834e+00 +0.0000000000000000e+00 +4.3999998490326409e+00 -4.5372851909049881e-04 +0.0000000000000000e+00 +9.9999989706521009e-01
4.5000000000000000e+00 +9.1752559250040839e+00 +0.0000000000000000e+00 +4.4999998385034354e+00 -4.6404102831099981e-04 +0.0000000000000000e+00 +9.9999989233295616e-01
4.5999999999999996e+00 +9.1752090052749384e+00 +0.0000000000000000e+00 +4.5999998274956866e+00 -4.7435355801909464e-04 +0.0000000000000000e+00 +9.9999988749434465e-01
4.6999999999999993e+00 +9.1751610542918005e+00 +0.0000000000000000e+00 +4.6999998159987593e+00 -4.8466610810705919e-04 +0.0000000000000000e+00 +9.9999988254937489e-01
4.7999999999999989e+00 +9.1751120720526416e+00 +0.0000000000000000e+00 +4.7999998040020166e+00 -4.9497867841179319e-04 +0.0000000000000000e+00 +9.9999987749804642e-01
4.8999999999999986e+00 +9.1750620585554508e+00 +0.0000000000000000e+00 +4.8999997914948228e+00 -5.0529126871220109e-04 +0.0000000000000000e+00 +9.9999987234035870e-01
4.9999999999999982e+00 +9.1750110137982421e+00 +0.0000000000000000e+00 +4.9999997784665426e+00 -5.1560387872918707e-04 +0.0000000000000000e+00 +9.9999986707631128e-01
5.0999999999999979e+00 +9.1749589377790599e+00 +0.0000000000000000e+00 +5.0999997649065394e+00 -5.2591650812564884e-04 +0.0000000000000000e+00 +9.9999986170590371e-01
5.1999999999999975e+00 +9.1749058304959838e+00 +0.0000000000000000e+00 +5.1999997508041780e+00 -5.3622915650647211e-04 +0.0000000000000000e+00 +9.9999985622913556e-01
5.2999999999999972e+00 +9.1748516919471399e+00 +0.0000000000000000e+00 +5.2999997361488216e+00 -5.4654182341852433e-04 +0.0000000000000000e+00 +9.9999985064600649e-01
5.3999999999999968e+00 +9.1747965221307002e+00 +0.0000000000000000e+00 +5.3999997209298343e+00 -5.5685450835064800e-04 +0.0000000000000000e+00 +9.9999984495651628e-01
5.4999999999999964e+00 +9.1747403210448883e+00 +0.0000000000000000e+00 +5.4999997051365792e+00 -5.6716721073365420e-04 +0.0000000000000000e+00 +9.9999983916066459e-01
5.5999999999999961e+00 +9.1746830886879920e+00 +0.0000000000000000e+00 +5.5999996887584214e+00 -5.7747992994031539e-04 +0.0000000000000000e+00 +9.9999983325845132e-01
5.6999999999999957e+00 +9.1746248250583626e+00 +0.0000000000000000e+00 +5.6999996717847239e+00 -5.8779266528535812e-04 +0.0000000000000000e+00 +9.9999982724987635e-01
5.7999999999999954e+00 +9.1745655301544229e+00 +0.0000000000000000e+00 +5.7999996542048509e+00 -5.9810541602545544e-04 +0.0000000000000000e+00 +9.9999982113493957e-01
5.8999999999999950e+00 +9.1745052039746717e+00 +0.0000000000000000e+00 +5.8999996360081663e+00 -6.0841818135921920e-04 +0.0000000000000000e+00 +9.9999981491364109e-01
5.9999999999999947e+00 +9.1744438465176934e+00 +0.0000000000000000e+00 +5.9999996171840335e+00 -6.1873096042719194e-04 +0.0000000000000000e+00 +9.9999980858598092e-01
6.0999999999999943e+00 +9.1743814577821592e+00 +0.0000000000000000e+00 +6.0999995977218164e+00 -6.2904375231183840e-04 +0.0000000000000000e+00 +9.9999980215195916e-01
6.1999999999999940e+00 +9.1743180377668363e+00 +0.0000000000000000e+00 +6.1999995776108792e+00 -6.3935655603753676e-04 +0.0000000000000000e+00 +9.9999979561157615e-01
6.2999999999999936e+00 +9.1742535864705914e+00 +0.0000000000000000e+00 +6.2999995568405858e+00 -6.4966937057057007e-04 +0.0000000000000000e+00 +9.9999978896483210e-01
6.3999999999999932e+00 +9.1741881038923978e+00 +0.0000000000000000e+00 +6.3999995354003003e+00 -6.5998219481911661e-04 +0.0000000000000000e+00 +9.9999978221172747e-01
6.4999999999999929e+00 +9.1741215900313424e+00 +0.0000000000000000e+00 +6.4999995132793860e+00 -6.7029502763324086e-04 +0.0000000000000000e+00 +9.9999977535226270e-01
6.5999999999999925e+00 +9.1740540448866259e+00 +0.0000000000000000e+00 +6.5999994904672077e+00 -6.8060786781048055e-04 +0.0000000000000000e+00 +9.9999976838643834e-01
6.6999999999999922e+00 +9.1739854684575750e+00 +0.0000000000000000e+00 +6.6999994669531286e+00 -6.9092071415740826e-04 +0.0000000000000000e+00 +9.9999976131425494e-01
6.7999999999999918e+00 +9.1739158607436266e+00 +0.0000000000000000e+00 +6.7999994427265138e+00 -7.0123356555120656e-04 +0.0000000000000000e+00 +9.9999975413571307e-01
6.8999999999999915e+00 +9.1738452217443314e+00 +0.0000000000000000e+00 +6.8999994177767263e+00 -7.1154642094527817e-04 +0.0000000000000000e+00 +9.9999974685081339e-01
6.9999999999999911e+00 +9.1737735514593375e+00 +0.0000000000000000e+00 +6.9999993920931312e+00 -7.2185927936926041e-04 +0.0000000000000000e+00 +9.9999973945955645e-01
7.0999999999999908e+00 +9.1737008498883874e+00 +0.0000000000000000e+00 +7.0999993656650924e+00 -7.3217213992903983e-04 +0.0000000000000000e+00 +9.9999973196194281e-01
7.1999999999999904e+00 +9.1736271170313088e+00 +0.0000000000000000e+00 +7.1999993384819740e+00 -7.4248500180676771e-04 +0.0000000000000000e+00 +9.9999972435797302e-01
7.2999999999999901e+00 +9.1735523528880076e+00 +0.0000000000000000e+00 +7.2999993105331411e+00 -7.5279786426087590e-04 +0.0000000000000000e+00 +9.9999971664764764e-01
7.3999999999999897e+00 +9.1734765574584607e+00 +0.0000000000000000e+00 +7.3999992818079585e+00 -7.6311072662609350e-04 +0.0000000000000000e+00 +9.9999970883096712e-01
7.4999999999999893e+00 +9.1733997307427053e+00 +0.0000000000000000e+00 +7.4999992522957895e+00 -7.7342358831346400e-04 +0.0000000000000000e+00 +9.9999970090793189e-01
7.5999999999999890e+00 +9.1733218727408374e+00 +0.0000000000000000e+00 +7.5999992219859998e+00 -7.8373644881036316e-04 +0.0000000000000000e+00 +9.9999969287854229e-01
7.6999999999999886e+00 +9.1732429834529974e+00 +0.0000000000000000e+00 +7.6999991908679535e+00 -7.9404930768051736e-04 +0.0000000000000000e+00 +9.9999968474279888e-01
7.7999999999999883e+00 +9.1731630628793681e+00 +0.0000000000000000e+00 +7.7999991589310147e+00 -8.0436216456402244e-04 +0.0000000000000000e+00 +9.9999967650070187e-01
7.8999999999999879e+00 +9.1730821110201610e+00 +0.0000000000000000e+00 +7.8999991261645484e+00 -8.1467501917736353e-04 +0.0000000000000000e+00 +9.9999966815225161e-01
7.9999999999999876e+00 +9.1730001278756159e+00 +0.0000000000000000e+00 +7.9999990925579194e+00 -8.2498787131343515e-04 +0.0000000000000000e+00 +9.9999965969744831e-01
8.0999999999999872e+00 +9.1729171134459868e+00 +0.0000000000000000e+00 +8.0999990581004919e+00 -8.3530072084156198e-04 +0.0000000000000000e+00 +9.9999965113629219e-01
8.1999999999999869e+00 +9.1728330677315366e+00 +0.0000000000000000e+00 +8.1999990227816326e+00 -8.4561356770752015e-04 +0.0000000000000000e+00 +9.9999964246878326e-01
8.2999999999999865e+00 +9.1727479907325336e+00 +0.0000000000000000e+00 +8.2999989865907047e+00 -8.5592641193355955e-04 +0.0000000000000000e+00 +9.9999963369492173e-01
8.3999999999999861e+00 +9.1726618824492352e+00 +0.0000000000000000e+00 +8.3999989495170730e+00 -8.6623925361842616e-04 +0.0000000000000000e+00 +9.9999962481470750e-01
8.4999999999999858e+00 +9.1725747428818885e+00 +0.0000000000000000e+00 +8.4999989115501009e+00 -8.7655209293738517e-04 +0.0000000000000000e+00 +9.9999961582814056e-01
8.5999999999999854e+00 +9.1724865720307189e+00 +0.0000000000000000e+00 +8.5999988726791550e+00 -8.8686493013711025e-04 +0.0000000000000000e+00 +9.9999960673522070e-01
8.6999999999999851e+00 +9.1723973698959238e+00 +0.0000000000000000e+00 +8.6999988328936002e+00 -8.9717776547921808e-04 +0.0000000000000000e+00 +9.9999959753594780e-01
8.7999999999999847e+00 +9.1723071364776771e+00 +0.0000000000000000e+00 +8.7999987921827998e+00 -9.0749059918377947e-04 +0.0000000000000000e+00 +9.9999958823032165e-01
8.8999999999999844e+00 +9.1722158717761353e+00 +0.0000000000000000e+00 +8.8999987505361187e+00 -9.1780343142416790e-04 +0.0000000000000000e+00 +9.9999957881834212e-01
8.9999999999999840e+00 +9.1721235757914368e+00 +0.0000000000000000e+00 +8.9999987079429218e+00 -9.2811626232704267e-04 +0.0000000000000000e+00 +9.9999956930000922e-01
9.0999999999999837e+00 +9.1720302485237113e+00 +0.0000000000000000e+00 +9.0999986643925741e+00 -9.3842909197233064e-04 +0.0000000000000000e+00 +9.9999955967532295e-01
9.1999999999999833e+00 +9.1719358899730832e+00 +0.0000000000000000e+00 +9.1999986198744406e+00 -9.4874192039320817e-04 +0.0000000000000000e+00 +9.9999954994428319e-01
9.2999999999999829e+00 +9.1718405001396750e+00 +0.0000000000000000e+00 +9.2999985743778861e+00 -9.5905474757608186e-04 +0.0000000000000000e+00 +9.9999954010689007e-01
9.3999999999999826e+00 +9.1717440790236111e+00 +0.0000000000000000e+00 +9.3999985278922740e+00 -9.6936757346056913e-04 +0.0000000000000000e+00 +9.9999953016314369e-01
9.4999999999999822e+00 +9.1716466266250283e+00 +0.0000000000000000e+00 +9.4999984804069690e+00 -9.7968039793947773e-04 +0.0000000000000000e+00 +9.9999952011304405e-01
9.5999999999999819e+00 +9.1715481429440739e+00 +0.0000000000000000e+00 +9.5999984319113363e+00 -9.8999322085878525e-04 +0.0000000000000000e+00 +9.9999950995659148e-01
9.6999999999999815e+00 +9.1714486279809151e+00 +0.0000000000000000e+00 +9.6999983823947407e+00 -1.0003060420176175e-03 +0.0000000000000000e+00 +9.9999949969378621e-01
9.7999999999999812e+00 +9.1713480817357382e+00 +0.0000000000000000e+00 +9.7999983318465471e+00 -1.0106188611682272e-03 +0.0000000000000000e+00 +9.9999948932462857e-01
9.8999999999999808e+00 +9.1712465042087583e+00 +0.0000000000000000e+00 +9.8999982802561206e+00 -1.0209316780159705e-03 +0.0000000000000000e+00 +9.9999947884911888e-01
9.9999999999999805e+00 +9.1711438954002222e+00 +0.0000000000000000e+00 +9.9999982276128261e+00 -1.0312444922192844e-03 +0.0000000000000000e+00 +9.9999946826725750e-01
1.0099999999999980e+01 +9.1710402553104142e+00 +0.0000000000000000e+00 +1.0099998173906027e+01 -1.0415573033896630e-03 +0.0000000000000000e+00 +9.9999945757904496e-01
1.0199999999999980e+01 +9.1709355839396594e+00 +0.0000000000000000e+00 +1.0199998119125089e+01 -1.0518701110916336e-03 +0.0000000000000000e+00 +9.9999944678448183e-01
1.0299999999999979e+01 +9.1708298812883271e+00 +0.0000000000000000e+00 +1.0299998063259379e+01 -1.0621829148427307e-03 +0.0000000000000000e+00 +9.9999943588356877e-01
1.0399999999999979e+01 +9.1707231473568402e+00 +0.0000000000000000e+00 +1.0399998006298258e+01 -1.0724957141134716e-03 +0.0000000000000000e+00 +9.9999942487630644e-01
1.0499999999999979e+01 +9.1706153821456731e+00 +0.0000000000000000e+00 +1.0499997948231094e+01 -1.0828085083273301e-03 +0.0000000000000000e+00 +9.9999941376269552e-01
1.0599999999999978e+01 +9.1705065856553638e+00 +0.0000000000000000e+00 +1.0599997889047252e+01 -1.0931212968629811e-03 +0.0000000000000000e+00 +9.9999940254273689e-01
1.0699999999999978e+01 +9.1703967578865111e+00 +0.0000000000000000e+00 +1.0699997828736096e+01 -1.1034340790792661e-03 +0.0000000000000000e+00 +9.9999939121643144e-01
1.0799999999999978e+01 +9.1702858988397793e+00 +0.0000000000000000e+00 +1.0799997767286992e+01 -1.1137468543401796e-03 +0.0000000000000000e+00 +9.9999937978378006e-01
1.0899999999999977e+01 +9.1701740085158949e+00 +0.0000000000000000e+00 +1.0899997704689307e+01 -1.1240596220171478e-03 +0.0000000000000000e+00 +9.9999936824478364e-01
1.0999999999999977e+01 +9.1700610869156485e+00 +0.0000000000000000e+00 +1.0999997640932405e+01 -1.1343723814890366e-03 +0.0000000000000000e+00 +9.9999935659944317e-01
1.1099999999999977e+01 +9.1699471340398908e+00 +0.0000000000000000e+00 +1.1099997576005650e+01 -1.1446851321421604e-03 +0.0000000000000000e+00 +9.9999934484775965e-01
1.1199999999999976e+01 +9.1698321498895350e+00 +0.0000000000000000e+00 +1.1199997509898411e+01 -1.1549978733702902e-03 +0.0000000000000000e+00 +9.9999933298973398e-01
1.1299999999999976e+01 +9.1697161344655509e+00 +0.0000000000000000e+00 +1.1299997442600052e+01 -1.1653106045746635e-03 +0.0000000000000000e+00 +9.9999932102536715e-01
1.1399999999999975e+01 +9.1695990877689724e+00 +0.0000000000000000e+00 +1.1399997374099939e+01 -1.1756233251639921e-03 +0.0000000000000000e+00 +9.9999930895466016e-01
1.1499999999999975e+01 +9.1694810098008901e+00 +0.0000000000000000e+00 +1.1499997304387438e+01 -1.1859360345544724e-03 +0.0000000000000000e+00 +9.9999929677761401e-01
1.1599999999999975e+01 +9.1693619005624534e+00 +0.0000000000000000e+00 +1.1599997233451917e+01 -1.1962487321697951e-03 +0.0000000000000000e+00 +9.9999928449422970e-01
1.1699999999999974e+01 +9.1692417600548684e+00 +0.0000000000000000e+00 +1.1699997161282740e+01 -1.2065614174411542e-03 +0.0000000000000000e+00 +9.9999927210450834e-01
1.1799999999999974e+01 +9.1691205882793962e+00 +0.0000000000000000e+00 +1.1799997087869274e+01 -1.2168740898072582e-03 +0.0000000000000000e+00 +9.9999925960845093e-01
