# multipoles
# s[mm] polynom_b[n=0][T/m^n] polynom_b[n=1][T/m^n] polynom_b[n=2][T/m^n] polynom_b[n=3][T/m^n] polynom_b[n=4][T/m^n] polynom_b[n=5][T/m^n] polynom_b[n=6][T/m^n] 
+0.0000000000000000e+00 -1.0302029639913031e+00 +2.2331931341051710e+00 +1.4089185734463324e+01 +1.4516460317824801e+03 +1.4812847507923999e+05 -7.5002842069218000e+06 -7.2286078111350727e+08 
-1.0000000000000001e-01 -1.0302110043679291e+00 +2.2337341742629784e+00 +1.4078315478634563e+01 +1.4380478660085380e+03 +1.4847723762184376e+05 -7.4168528823395688e+06 -7.2480275162502742e+08 
-2.0000000000000001e-01 -1.0302191469872546e+00 +2.2343051100938158e+00 +1.4072006061184844e+01 +1.4235519930636465e+03 +1.4875191933470941e+05 -7.3282346856822539e+06 -7.2642046721257639e+08 
-3.0000000000000004e-01 -1.0302273867882812e+00 +2.2349060151019922e+00 +1.4070318311654049e+01 +1.4081623804196302e+03 +1.4894963007640489e+05 -7.2344997297807066e+06 -7.2770039259396410e+08 
-4.0000000000000002e-01 -1.0302357187102393e+00 +2.2355369627443720e+00 +1.4073313087444538e+01 +1.3918829971310879e+03 +1.4906747921246468e+05 -7.1357181376324128e+06 -7.2862899030017471e+08 
-5.0000000000000000e-01 -1.0302441376927447e+00 +2.2361980264208396e+00 +1.4081051294214383e+01 +1.3747178142103708e+03 +1.4910257523152244e+05 -7.0319600448413789e+06 -7.2919271885952139e+08 
-5.9999999999999998e-01 -1.0302526386756179e+00 +2.2368892794819408e+00 +1.4093593861252019e+01 +1.3566708045228461e+03 +1.4905202622917684e+05 -6.9232955993261030e+06 -7.2937803513614798e+08 
-6.9999999999999996e-01 -1.0302612165990033e+00 +2.2376107952170425e+00 +1.4111001756680697e+01 +1.3377459432362264e+03 +1.4891293962352944e+05 -6.8097949642147049e+06 -7.2917139298766375e+08 
-7.9999999999999993e-01 -1.0302698664033223e+00 +2.2383626468488864e+00 +1.4133335980277602e+01 +1.3179472080838193e+03 +1.4868242230596251e+05 -6.6915283196580959e+06 -7.2855924401840007e+08 
-8.9999999999999991e-01 -1.0302785830292649e+00 +2.2391449075421765e+00 +1.4160657561827730e+01 +1.2972785792354455e+03 +1.4835758068220696e+05 -6.5685658624021001e+06 -7.2752803779805553e+08 
-9.9999999999999989e-01 -1.0302873614177472e+00 +2.2399576503856036e+00 +1.4193027555717197e+01 +1.2757440399041911e+03 +1.4793552078077843e+05 -6.4409778095339444e+06 -7.2606422239089859e+08 
-1.0999999999999999e+00 -1.0302961965099711e+00 +2.2408009483970002e+00 +1.4230507046277744e+01 +1.2533475763343858e+03 +1.4741334817200163e+05 -6.3088343987989994e+06 -7.2415424402309263e+08 
-1.2000000000000000e+00 -1.0303050832473615e+00 +2.2416748745188735e+00 +1.4273157140527603e+01 +1.2300931780097701e+03 +1.4678816810648257e+05 -6.1722058899984816e+06 -7.2178454773857248e+08 
-1.3000000000000000e+00 -1.0303140165716116e+00 +2.2425795016096171e+00 +1.4321038973268562e+01 +1.2059848380546882e+03 +1.4605708542676741e+05 -6.0311625677416604e+06 -7.1894157700122917e+08 
-1.4000000000000001e+00 -1.0303229914245733e+00 +2.2435149024490908e+00 +1.4374213691117758e+01 +1.1810265531376510e+03 +1.4521720489547832e+05 -5.8857747410291312e+06 -7.1561177531990182e+08 
-1.5000000000000002e+00 -1.0303320027483960e+00 +2.2444811497275960e+00 +1.4432742471108318e+01 +1.1552223239336761e+03 +1.4426563083362422e+05 -5.7361127463034634e+06 -7.1178158449555230e+08 
-1.6000000000000003e+00 -1.0303410456867221e+00 +2.2454778420503176e+00 +1.4496624126530822e+01 +1.1285876009093604e+03 +1.4320091313817335e+05 -5.5822986279449817e+06 -7.0744373103491461e+08 
-1.7000000000000004e+00 -1.0303501162190782e+00 +2.2465027156856348e+00 +1.4565620999820094e+01 +1.1011829255197554e+03 +1.4202708629673845e+05 -5.4246601927625751e+06 -7.0261469130882680e+08 
-1.8000000000000005e+00 -1.0303592105411683e+00 +2.2475530493484763e+00 +1.4639439474755431e+01 +1.0730799495957458e+03 +1.4074948345645249e+05 -5.2635764886569288e+06 -6.9731653921750009e+08 
-1.9000000000000006e+00 -1.0303683248486222e+00 +2.2486261217355574e+00 +1.4717785924576628e+01 +1.0443503259846354e+03 +1.3937343801927275e+05 -5.0994265710461931e+06 -6.9157135007649863e+08 
-2.0000000000000004e+00 -1.0303774553369105e+00 +2.2497192115421210e+00 +1.4800366700681712e+01 +1.0150657079956842e+03 +1.3790428385465950e+05 -4.9325894994425625e+06 -6.8540120162226355e+08 
-2.1000000000000005e+00 -1.0303865982013249e+00 +2.2508295974610300e+00 +1.4886888131124429e+01 +9.8529774937976094e+02 +1.3634735532475795e+05 -4.7634443371882718e+06 -6.7882817412979043e+08 
-2.2000000000000006e+00 -1.0303957496369009e+00 +2.2519545581934155e+00 +1.4977056511264831e+01 +9.5511810394960662e+02 +1.3470798744969472e+05 -4.5923701490522446e+06 -6.7187435116144300e+08 
-2.3000000000000007e+00 -1.0304049058384193e+00 +2.2530913724547212e+00 +1.5070578103945246e+01 +9.2459842534516997e+02 +1.3299151590582132e+05 -4.4197459996853499e+06 -6.6456181956848395e+08 
-2.4000000000000008e+00 -1.0304140630003147e+00 +2.2542373189852039e+00 +1.5167159128955550e+01 +8.9381036668460445e+02 +1.3120327721693527e+05 -4.2459509514613086e+06 -6.5691267037963152e+08 
-2.5000000000000009e+00 -1.0304232173166912e+00 +2.2553896765518342e+00 +1.5266505765249335e+01 +8.6282558042609321e+02 +1.2934860870263589e+05 -4.0713640634363997e+06 -6.4894899852509975e+08 
-2.6000000000000010e+00 -1.0304323649811884e+00 +2.2565457239616724e+00 +1.5368324133782657e+01 +8.3171571794365059e+02 +1.2743284880858871e+05 -3.8963643887797962e+06 -6.4069290442784476e+08 
-2.7000000000000011e+00 -1.0304415021870668e+00 +2.2577027400650871e+00 +1.5472320309968431e+01 +8.0055242935199942e+02 +1.2546133685152099e+05 -3.7213309734992376e+06 -6.3216649273736680e+08 
-2.8000000000000012e+00 -1.0304506251270313e+00 +2.2588580037648303e+00 +1.5578200301222694e+01 +7.6940736320165581e+02 +1.2343941344961929e+05 -3.5466428545729420e+06 -6.2339187439372253e+08 
-2.9000000000000012e+00 -1.0304597299932683e+00 +2.2600087940223719e+00 +1.5685670051550183e+01 +7.3835216623284907e+02 +1.2137242042620677e+05 -3.3726790583126801e+06 -6.1439116614170432e+08 
-3.0000000000000013e+00 -1.0304688129773589e+00 +2.2611523898664085e+00 +1.5794435431707504e+01 +7.0745848305314473e+02 +1.1926570099267027e+05 -3.1998185982898702e+06 -6.0518649139582372e+08 
-3.1000000000000014e+00 -1.0304778702702788e+00 +2.2622860704013701e+00 +1.5904202239619847e+01 +6.7679795585368561e+02 +1.1712459973021397e+05 -3.0284404735606774e+06 -5.9579998012419188e+08 
-3.2000000000000015e+00 -1.0304868980623283e+00 +2.2634071148083472e+00 +1.6014676191438877e+01 +6.4644222430610137e+02 +1.1495446275926188e+05 -2.8589236678534839e+06 -5.8625376965645254e+08 
-3.3000000000000016e+00 -1.0304958925430701e+00 +2.2645128023626460e+00 +1.6125562914550727e+01 +6.1646292500151185e+02 +1.1276063786511702e+05 -2.6916471461553355e+06 -5.7657000526556635e+08 
-3.4000000000000017e+00 -1.0305048499013105e+00 +2.2656004124344138e+00 +1.6236567945626632e+01 +5.8693169136579866e+02 +1.1054847452760498e+05 -2.5269898540201271e+06 -5.6677084028644538e+08 
-3.5000000000000018e+00 -1.0305137663250630e+00 +2.2666672244958446e+00 +1.6347396727058232e+01 +5.5792015338950739e+02 +1.0832332397641019e+05 -2.3653307159951301e+06 -5.5687843636481988e+08 
-3.6000000000000019e+00 -1.0305226383529615e+00 +2.2677111592696768e+00 +1.6457804859300644e+01 +5.2948309740732316e+02 +1.0608957571008500e+05 -2.2069583529016720e+06 -5.4691070809237409e+08 
-3.7000000000000020e+00 -1.0305314640291503e+00 +2.2687326728441208e+00 +1.6567735570175913e+01 +5.0160858775392262e+02 +1.0384820256665666e+05 -2.0518017343595596e+06 -5.3687102183125067e+08 
-3.8000000000000020e+00 -1.0305402417996747e+00 +2.2697328498280904e+00 +1.6677175791058122e+01 +4.7426809852639622e+02 +1.0159942972917159e+05 -1.8996998800021030e+06 -5.2675971618295759e+08 
-3.9000000000000021e+00 -1.0305489701106749e+00 +2.2707127748341676e+00 +1.6786112465187674e+01 +4.4743310413767455e+02 +9.9343482178406557e+04 -1.7504918139073260e+06 -5.1657712888522899e+08 
-4.0000000000000018e+00 -1.0305576474083151e+00 +2.2716735324730015e+00 +1.6894532537482483e+01 +4.2107507952076043e+02 +9.7080584884593554e+04 -1.6040165660111003e+06 -5.0632359770369273e+08 
-4.1000000000000014e+00 -1.0305662721388817e+00 +2.2726162073551261e+00 +1.7002422968679546e+01 +3.9516550008546585e+02 +9.4810962531581565e+04 -1.4601131719791188e+06 -4.9599945910315031e+08 
-4.2000000000000011e+00 -1.0305748427487611e+00 +2.2735418840878916e+00 +1.7109770731082829e+01 +3.6967584182761493e+02 +9.2534839601008265e+04 -1.3186206739603765e+06 -4.8560504865045941e+08 
-4.3000000000000007e+00 -1.0305833576844490e+00 +2.2744516472721958e+00 +1.7216562810710943e+01 +3.4457758143556481e+02 +9.0252440326899537e+04 -1.1793781213308705e+06 -4.7514070078516287e+08 
-4.4000000000000004e+00 -1.0305918153926032e+00 +2.2753465815091292e+00 +1.7322786213216435e+01 +3.1984219610591350e+02 +8.7963988584660096e+04 -1.0422245697173108e+06 -4.6460674829188615e+08 
-4.5000000000000000e+00 -1.0306002143200248e+00 +2.2762277713919801e+00 +1.7428427961751801e+01 +2.9544116378764420e+02 +8.5669707934397287e+04 -9.0699908253490203e+05 -4.5400352251594818e+08 
-4.5999999999999996e+00 -1.0306085529137712e+00 +2.2770963015033931e+00 +1.7533475111710043e+01 +2.7134596328786103e+02 +8.3369821326340185e+04 -7.7354073173938459e+05 -4.4333135191374820e+08 
-4.6999999999999993e+00 -1.0306168296210128e+00 +2.2779532564298606e+00 +1.7637914731461922e+01 +2.4752807384751168e+02 +8.1064551484885233e+04 -6.4168859543156473e+05 -4.3259056393133897e+08 
-4.7999999999999989e+00 -1.0306250428892301e+00 +2.2787997207339692e+00 +1.7741733928805022e+01 +2.2395897598322230e+02 +7.8754120385817136e+04 -5.1128176293217082e+05 -4.2178148245737797e+08 
-4.8999999999999986e+00 -1.0306331911660951e+00 +2.2796367789813790e+00 +1.7844919834140534e+01 +2.0061015068401127e+02 +7.6438749591370724e+04 -3.8215933013667702e+05 -4.1090442945843679e+08 
-4.9999999999999982e+00 -1.0306412728995935e+00 +2.2804655157235518e+00 +1.7947459617092662e+01 +1.7745307996380723e+02 +7.4118659924756590e+04 -2.5416040294877664e+05 -3.9995972340048987e+08 
-5.0999999999999979e+00 -1.0306492865379508e+00 +2.2812870154975862e+00 +1.8049340477450890e+01 +1.5445924684485877e+02 +7.1794071638739202e+04 -1.2712409719041731e+05 -3.8894768003935891e+08 
-5.1999999999999975e+00 -1.0306572305297523e+00 +2.2821023628313455e+00 +1.8150549659252210e+01 +1.3160013523893301e+02 +6.9465204153519910e+04 -8.8953809714644444e+02 -3.7786861118643516e+08 
-5.2999999999999972e+00 -1.0306651033238894e+00 +2.2829126422406483e+00 +1.8251074444164438e+01 +1.0884723004773774e+02 +6.7132276180960922e+04 +1.2470413898831610e+05 -3.6672282529319131e+08 
-5.3999999999999968e+00 -1.0306729033695889e+00 +2.2837189382227425e+00 +1.8350902156299675e+01 +8.6172017344599908e+01 +6.4795505625270271e+04 +2.4981778748694516e+05 -3.5551062695391542e+08 
-5.4999999999999964e+00 -1.0306806291164605e+00 +2.2845223352557773e+00 +1.8450020164992385e+01 +6.3545984523066160e+01 +6.2455109557866061e+04 +3.7461224801834987e+05 -3.4423231689250064e+08 
-5.5999999999999961e+00 -1.0306882802715913e+00 +2.2853236126368306e+00 +1.8548439185479697e+01 +4.0948636586623770e+01 +6.0111304658251924e+04 +4.9920391621315118e+05 -3.3288919750350988e+08 
-5.6999999999999957e+00 -1.0306958615176471e+00 +2.2861224270185647e+00 +1.8646275498477600e+01 +1.8389057441466889e+01 +5.7763938992802461e+04 +6.2354651228002878e+05 -3.2148446238807428e+08 
-5.7999999999999954e+00 -1.0307033787690498e+00 +2.2869181764152389e+00 +1.8743674642241373e+01 -4.1168099617387197e+00 +5.5412681990544639e+04 +7.4755631963080610e+05 -3.1002128494531882e+08 
-5.8999999999999950e+00 -1.0307108379401555e+00 +2.2877102588298319e+00 +1.8840782161053362e+01 -2.6553024279392176e+01 +5.3057202723098177e+04 +8.7114963893544883e+05 -2.9850283583414352e+08 
-5.9999999999999947e+00 -1.0307182449452514e+00 +2.2884980722463530e+00 +1.8937743604721526e+01 -4.8903645679500613e+01 +5.0697169913930098e+04 +9.9424278782080207e+05 -2.8693228298131233e+08 
-6.0999999999999943e+00 -1.0307256056986012e+00 +2.2892810146328588e+00 +1.9034704536060545e+01 -7.1152736019394638e+01 +4.8332251777359947e+04 +1.1167521022745471e+06 -2.7531279074557334e+08 
-6.1999999999999940e+00 -1.0307329261143703e+00 +2.2900584839401978e+00 +1.9131810520289445e+01 -9.3284358918718965e+01 +4.5962116220619944e+04 +1.2385939375402883e+06 -2.6364752086295223e+08 
-6.2999999999999936e+00 -1.0307402121067242e+00 +2.2908298780977141e+00 +1.9229207139963798e+01 -1.1528257973289377e+02 +4.3586430535893465e+04 +1.3596846683595767e+06 -2.5193963089631468e+08 
-6.3999999999999932e+00 -1.0307474695897390e+00 +2.2915945950167309e+00 +1.9327039982673579e+01 -1.3713146573806927e+02 +4.1204861635124907e+04 +1.4799406904380773e+06 -2.4019227534159747e+08 
-6.4999999999999929e+00 -1.0307547044774212e+00 +2.2923520325924387e+00 +1.9425454645255048e+01 -1.5881508630478419e+02 +3.8817075953165178e+04 +1.5992784219145528e+06 -2.2840860509896427e+08 
-6.5999999999999925e+00 -1.0307619226837654e+00 +2.2931015886898720e+00 +1.9524596740941963e+01 -1.8031751256869831e+02 +3.6422739302491435e+04 +1.7176143018162756e+06 -2.1659176674111950e+08 
-6.6999999999999922e+00 -1.0307691301226447e+00 +2.2938426611585627e+00 +1.9624611886636206e+01 -2.0162281797068280e+02 +3.4021517103150189e+04 +1.8348647936575536e+06 -2.0474490355472654e+08 
-6.7999999999999918e+00 -1.0307763327079393e+00 +2.2945746478246423e+00 +1.9725645719495397e+01 -2.2271507812475323e+02 +3.1613074058204231e+04 +1.9509463850832565e+06 -1.9287115395541131e+08 
-6.8999999999999915e+00 -1.0307835363534290e+00 +2.2952969464904616e+00 +1.9827843883542343e+01 -2.4357837089127975e+02 +2.9197074399427733e+04 +2.0657755886677706e+06 -1.8097365261325502e+08 
-6.9999999999999911e+00 -1.0307907469728395e+00 +2.2960089549321077e+00 +1.9931352037368622e+01 -2.6419677641674133e+02 +2.6773181723744914e+04 +2.1792689426065139e+06 -1.6905552961116785e+08 
-7.0999999999999908e+00 -1.0307979704798538e+00 +2.2967100709025878e+00 +2.0036315854747183e+01 -2.8455437731994380e+02 +2.4341058977929493e+04 +2.2913430122004957e+06 -1.5711991034469733e+08 
-7.1999999999999904e+00 -1.0308052127880694e+00 +2.2973996921301860e+00 +2.0142881020260010e+01 -3.0463525874144011e+02 +2.1900368528237053e+04 +2.4019143905487605e+06 -1.4516991579639274e+08 
-7.2999999999999901e+00 -1.0308124798110232e+00 +2.2980772163125334e+00 +2.0251193233941795e+01 -3.2442350827579486e+02 +1.9450772057915205e+04 +2.5108996985945385e+06 -1.3320866199469228e+08 
-7.3999999999999897e+00 -1.0308197774622079e+00 +2.2987420411242994e+00 +2.0361398212659211e+01 -3.4390321627888852e+02 +1.6991930536378226e+04 +2.6182155872857803e+06 -1.2123925983689830e+08 
-7.4999999999999893e+00 -1.0308271116550791e+00 +2.2993935642436858e+00 +2.0473641697573413e+01 -3.6305847690308246e+02 +1.4523504003035523e+04 +2.7237787440228052e+06 -1.0926481385796319e+08 
-7.5999999999999890e+00 -1.0308344863665511e+00 +2.3000313727265813e+00 +2.0588016747040605e+01 -3.8187973978101206e+02 +1.2045655247553706e+04 +2.8275422907060059e+06 -9.7290073718483955e+07 
-7.6999999999999886e+00 -1.0308418976174045e+00 +2.3006556898962680e+00 +2.0704359823707357e+01 -4.0038111176308377e+02 +9.5617285505505879e+03 +2.9295989140524678e+06 -8.5332656598738015e+07 
-7.7999999999999883e+00 -1.0308493393865885e+00 +2.3012668758446768e+00 +2.0822432354816993e+01 -4.1858248608968540e+02 +7.0761498133291807e+03 +3.0300765586282527e+06 -7.3414954550659686e+07 
-7.8999999999999879e+00 -1.0308568056529372e+00 +2.3018652907599648e+00 +2.0941995757006204e+01 -4.3650376043579598e+02 +4.5933453725675754e+03 +3.1291032031145561e+06 -6.1559362856867447e+07 
-7.9999999999999876e+00 -1.0308642903953888e+00 +2.3024512948992863e+00 +2.1062811468298122e+01 -4.5416483552759018e+02 +2.1177412893966380e+03 +3.2268068514516628e+06 -4.9788276384848133e+07 
-8.0999999999999872e+00 -1.0308717875928128e+00 +2.3030252485910632e+00 +2.1184640924608320e+01 -4.7158561524449817e+02 -3.4623618029343658e+02 +3.3233155336636226e+06 -3.8124091913073681e+07 
-8.1999999999999869e+00 -1.0308792912241316e+00 +2.3035875122349050e+00 +2.1307245576339611e+01 -4.8878600660884484e+02 -2.7941609071856883e+03 +3.4187573058913788e+06 -2.6589206606963411e+07 
-8.2999999999999865e+00 -1.0308867952682326e+00 +2.3041384463044907e+00 +2.1430386877582034e+01 -5.0578591987506070e+02 -5.2216066727034431e+03 +3.5132602510564318e+06 -1.5206019097470023e+07 
-8.3999999999999861e+00 -1.0308942937040295e+00 +2.3046784113470413e+00 +2.1553826292144588e+01 -5.2260526853052409e+02 -7.6241472683251541e+03 +3.6069524790289639e+06 -3.9969290714850216e+06 
-8.4999999999999858e+00 -1.0309017805104643e+00 +2.3052077679932825e+00 +2.1677325296205691e+01 -5.3926396959389001e+02 -9.9973565529091011e+03 +3.6999621285175206e+06 +7.0156629986199420e+06 
-8.5999999999999854e+00 -1.0309092496664725e+00 +2.3057268769514194e+00 +2.1800645372352374e+01 -5.5578194344393728e+02 -1.2336808320650411e+04 +3.7924173661986869e+06 +1.7809355149908956e+07 
-8.6999999999999851e+00 -1.0309166951510078e+00 +2.3062360990153818e+00 +2.1923548012446059e+01 -5.7217911407377494e+02 -1.4638076349083178e+04 +3.8844463883695682e+06 +2.8361744124744508e+07 
-8.7999999999999847e+00 -1.0309241109430418e+00 +2.3067357950605238e+00 +2.2045794719330303e+01 -5.8847540896081102e+02 -1.6896734432213278e+04 +3.9761774202963212e+06 +3.8650425501169868e+07 
-8.8999999999999844e+00 -1.0309314910215510e+00 +2.3072263260527843e+00 +2.2167147003491674e+01 -6.0469075936001400e+02 -1.9108356300599560e+04 +4.0677387181138643e+06 +4.8652993250756741e+07 
-8.9999999999999840e+00 -1.0309388293655659e+00 +2.3077080530441876e+00 +2.2287366390496402e+01 -6.2084510016466788e+02 -2.1268515761922026e+04 +4.1592585681227287e+06 +5.8347040380220100e+07 
-9.0999999999999837e+00 -1.0309461199540773e+00 +2.3081813371844389e+00 +2.2406214407634749e+01 -6.3695837026638162e+02 -2.3372786430746746e+04 +4.2508652890752060e+06 +6.7710157581783578e+07 
-9.1999999999999833e+00 -1.0309533567661420e+00 +2.3086465397094149e+00 +2.2523452599500260e+01 -6.5305051221346798e+02 -2.5416742029872668e+04 +4.3426872302739881e+06 +7.6719934656449616e+07 
-9.2999999999999829e+00 -1.0309605337808370e+00 +2.3091040219556196e+00 +2.2638842520435094e+01 -6.6914147265104907e+02 -2.7395956230845637e+04 +4.4348527743325196e+06 +8.5353959693271965e+07 
-9.3999999999999826e+00 -1.0309676449772398e+00 +2.3095541453608526e+00 +2.2752145732569975e+01 -6.8525120235320821e+02 -2.9306002608169390e+04 +4.5274903375060027e+06 +9.3589818802589238e+07 
-9.4999999999999822e+00 -1.0309746843345104e+00 +2.3099972714811381e+00 +2.2863123819726944e+01 -7.0139965708557054e+02 -3.1142454970686678e+04 +4.6207283763816496e+06 +1.0140509794414663e+08 
-9.5999999999999819e+00 -1.0309816464652783e+00 +2.3104339259121724e+00 +2.2971573357650595e+01 -7.1760848701136183e+02 -3.2901802280030926e+04 +4.7147011988822417e+06 +1.0878254016285798e+08 
-9.6999999999999815e+00 -1.0309885286609133e+00 +2.3108651994786449e+00 +2.3077433523075253e+01 -7.3390007330264939e+02 -3.4584502490963532e+04 +4.8095268234790387e+06 +1.1572749509774581e+08 
-9.7999999999999812e+00 -1.0309953289237199e+00 +2.3112922979063626e+00 +2.3180681160815769e+01 -7.5029520807210520e+02 -3.6192141778906669e+04 +4.9053077729118476e+06 +1.2225181851669006e+08 
-9.8999999999999808e+00 -1.0310020452564084e+00 +2.3117164269482284e+00 +2.3281293138051343e+01 -7.6681468092288765e+02 -3.7726306647462632e+04 +5.0021465495434757e+06 +1.2836736669785678e+08 
-9.9999999999999805e+00 -1.0310086756620580e+00 +2.3121387924516217e+00 +2.3379246331149336e+01 -7.8347928255149463e+02 -3.9188583380652708e+04 +5.1001456562496480e+06 +1.3408599320982563e+08 
-1.0099999999999980e+01 -1.0310152181441030e+00 +2.3125606003782266e+00 +2.3474517622758949e+01 -8.0030980528501539e+02 -4.0580557976146534e+04 +5.1994075993600469e+06 +1.3941954854762712e+08 
