# trajectory
# s[mm] rx[mm] ry[mm] rz[mm] px[rad] py[rad] pz[rad]
0.0000000000000000e+00 +9.0449999999999999e+00 +0.0000000000000000e+00 +0.0000000000000000e+00 +0.0000000000000000e+00 +0.0000000000000000e+00 +1.0000000000000000e+00
1.0000000000000001e-01 +9.0449994838977563e+00 +0.0000000000000000e+00 +9.9999999998224259e-02 -1.0322044465781992e-05 +0.0000000000000000e+00 +9.9999999994672772e-01
2.0000000000000001e-01 +9.0449979355911889e+00 +0.0000000000000000e+00 +1.9999999998579407e-01 -2.0644086479220636e-05 +0.0000000000000000e+00 +9.9999999978691090e-01
3.0000000000000004e-01 +9.0449953550805375e+00 +0.0000000000000000e+00 +2.9999999995205495e-01 -3.0966126173111524e-05 +0.0000000000000000e+00 +9.9999999952054952e-01
4.0000000000000002e-01 +9.0449917423660278e+00 +0.0000000000000000e+00 +3.9999999988635249e-01 -4.1288163679364491e-05 +0.0000000000000000e+00 +9.9999999914764381e-01
5.0000000000000000e-01 +9.0449870974478710e+00 +0.0000000000000000e+00 +4.9999999977803222e-01 -5.1610199129005435e-05 +0.0000000000000000e+00 +9.9999999866819367e-01
5.9999999999999998e-01 +9.0449814203262662e+00 +0.0000000000000000e+00 +5.9999999961643979e-01 -6.1932232652177935e-05 +0.0000000000000000e+00 +9.9999999808219930e-01
6.9999999999999996e-01 +9.0449747110013998e+00 +0.0000000000000000e+00 +6.9999999939092061e-01 -7.2254264378144651e-05 +0.0000000000000000e+00 +9.9999999738966061e-01
7.9999999999999993e-01 +9.0449669694734460e+00 +0.0000000000000000e+00 +7.9999999909082042e-01 -8.2576294435288573e-05 +0.0000000000000000e+00 +9.9999999659057781e-01
8.9999999999999991e-01 +9.0449581957425647e+00 +0.0000000000000000e+00 +8.9999999870548475e-01 -9.2898322951114043e-05 +0.0000000000000000e+00 +9.9999999568495079e-01
9.9999999999999989e-01 +9.0449483898089031e+00 +0.0000000000000000e+00 +9.9999999822425911e-01 -1.0322035005224760e-04 +0.0000000000000000e+00 +9.9999999467277967e-01
1.0999999999999999e+00 +9.0449375516725965e+00 +0.0000000000000000e+00 +1.0999999976364891e+00 -1.1354237586443856e-04 +0.0000000000000000e+00 +9.9999999355406444e-01
1.2000000000000000e+00 +9.0449256813337691e+00 +0.0000000000000000e+00 +1.1999999969315205e+00 -1.2386440051255956e-04 +0.0000000000000000e+00 +9.9999999232880510e-01
1.3000000000000000e+00 +9.0449127787925292e+00 +0.0000000000000000e+00 +1.2999999960986988e+00 -1.3418642412060670e-04 +0.0000000000000000e+00 +9.9999999099700176e-01
1.4000000000000001e+00 +9.0448988440489746e+00 +0.0000000000000000e+00 +1.3999999951273694e+00 -1.4450844681169962e-04 +0.0000000000000000e+00 +9.9999998955865432e-01
1.5000000000000002e+00 +9.0448838771031923e+00 +0.0000000000000000e+00 +1.4999999940068780e+00 -1.5483046870808141e-04 +0.0000000000000000e+00 +9.9999998801376289e-01
1.6000000000000003e+00 +9.0448678779552552e+00 +0.0000000000000000e+00 +1.5999999927265705e+00 -1.6515248993111817e-04 +0.0000000000000000e+00 +9.9999998636232745e-01
1.7000000000000004e+00 +9.0448508466052235e+00 +0.0000000000000000e+00 +1.6999999912757922e+00 -1.7547451060129855e-04 +0.0000000000000000e+00 +9.9999998460434791e-01
1.8000000000000005e+00 +9.0448327830531490e+00 +0.0000000000000000e+00 +1.7999999896438887e+00 -1.8579653083823300e-04 +0.0000000000000000e+00 +9.9999998273982438e-01
1.9000000000000006e+00 +9.0448136872990670e+00 +0.0000000000000000e+00 +1.8999999878202056e+00 -1.9611855076065275e-04 +0.0000000000000000e+00 +9.9999998076875685e-01
2.0000000000000004e+00 +9.0447935593430042e+00 +0.0000000000000000e+00 +1.9999999857940887e+00 -2.0644057048640880e-04 +0.0000000000000000e+00 +9.9999997869114521e-01
2.1000000000000005e+00 +9.0447723991849731e+00 +0.0000000000000000e+00 +2.0999999835548833e+00 -2.1676259013301058e-04 +0.0000000000000000e+00 +9.9999997650698946e-01
2.2000000000000006e+00 +9.0447502068249754e+00 +0.0000000000000000e+00 +2.1999999810919353e+00 -2.2708460982356497e-04 +0.0000000000000000e+00 +9.9999997421628961e-01
2.3000000000000007e+00 +9.0447269822630023e+00 +0.0000000000000000e+00 +2.2999999783945899e+00 -2.3740662969271530e-04 +0.0000000000000000e+00 +9.9999997181904565e-01
2.4000000000000008e+00 +9.0447027254990271e+00 +0.0000000000000000e+00 +2.3999999754521930e+00 -2.4772864988717983e-04 +0.0000000000000000e+00 +9.9999996931525748e-01
2.5000000000000009e+00 +9.0446774365330089e+00 +0.0000000000000000e+00 +2.4999999722540900e+00 -2.5805067056575007e-04 +0.0000000000000000e+00 +9.9999996670492508e-01
2.6000000000000010e+00 +9.0446511153648927e+00 +0.0000000000000000e+00 +2.5999999687896267e+00 -2.6837269189928885e-04 +0.0000000000000000e+00 +9.9999996398804836e-01
2.7000000000000011e+00 +9.0446237619946022e+00 +0.0000000000000000e+00 +2.6999999650481485e+00 -2.7869471407072839e-04 +0.0000000000000000e+00 +9.9999996116462730e-01
2.8000000000000012e+00 +9.0445953764220448e+00 +0.0000000000000000e+00 +2.7999999610190009e+00 -2.8901673727506794e-04 +0.0000000000000000e+00 +9.9999995823466181e-01
2.9000000000000012e+00 +9.0445659586471070e+00 +0.0000000000000000e+00 +2.8999999566915293e+00 -2.9933876171937167e-04 +0.0000000000000000e+00 +9.9999995519815177e-01
3.0000000000000013e+00 +9.0445355086696537e+00 +0.0000000000000000e+00 +2.9999999520550795e+00 -3.0966078762276596e-04 +0.0000000000000000e+00 +9.9999995205509706e-01
3.1000000000000014e+00 +9.0445040264895269e+00 +0.0000000000000000e+00 +3.0999999470989970e+00 -3.1998281521643680e-04 +0.0000000000000000e+00 +9.9999994880549758e-01
3.2000000000000015e+00 +9.0444715121065453e+00 +0.0000000000000000e+00 +3.1999999418126275e+00 -3.3030484474362706e-04 +0.0000000000000000e+00 +9.9999994544935322e-01
3.3000000000000016e+00 +9.0444379655205047e+00 +0.0000000000000000e+00 +3.2999999361853161e+00 -3.4062687645963335e-04 +0.0000000000000000e+00 +9.9999994198666375e-01
3.4000000000000017e+00 +9.0444033867311724e+00 +0.0000000000000000e+00 +3.3999999302064086e+00 -3.5094891063180305e-04 +0.0000000000000000e+00 +9.9999993841742907e-01
3.5000000000000018e+00 +9.0443677757382872e+00 +0.0000000000000000e+00 +3.4999999238652504e+00 -3.6127094753953096e-04 +0.0000000000000000e+00 +9.9999993474164905e-01
3.6000000000000019e+00 +9.0443311325415632e+00 +0.0000000000000000e+00 +3.5999999171511869e+00 -3.7159298747425570e-04 +0.0000000000000000e+00 +9.9999993095932338e-01
3.7000000000000020e+00 +9.0442934571406823e+00 +0.0000000000000000e+00 +3.6999999100535637e+00 -3.8191503073945637e-04 +0.0000000000000000e+00 +9.9999992707045193e-01
3.8000000000000020e+00 +9.0442547495352947e+00 +0.0000000000000000e+00 +3.7999999025617259e+00 -3.9223707765064848e-04 +0.0000000000000000e+00 +9.9999992307503449e-01
3.9000000000000021e+00 +9.0442150097250202e+00 +0.0000000000000000e+00 +3.8999998946650192e+00 -4.0255912853538029e-04 +0.0000000000000000e+00 +9.9999991897307072e-01
4.0000000000000018e+00 +9.0441742377094450e+00 +0.0000000000000000e+00 +3.9999998863527888e+00 -4.1288118373322853e-04 +0.0000000000000000e+00 +9.9999991476456040e-01
4.1000000000000014e+00 +9.0441324334881195e+00 +0.0000000000000000e+00 +4.0999998776143798e+00 -4.2320324359483488e-04 +0.0000000000000000e+00 +9.9999991044950332e-01
4.2000000000000011e+00 +9.0440895970605588e+00 +0.0000000000000000e+00 +4.1999998684391375e+00 -4.3352530847134838e-04 +0.0000000000000000e+00 +9.9999990602789901e-01
4.3000000000000007e+00 +9.0440457284262461e+00 +0.0000000000000000e+00 +4.2999998588164079e+00 -4.4384737870387260e-04 +0.0000000000000000e+00 +9.9999990149974738e-01
4.4000000000000004e+00 +9.0440008275846289e+00 +0.0000000000000000e+00 +4.3999998487355354e+00 -4.5416945462250981e-04 +0.0000000000000000e+00 +9.9999989686504798e-01
4.5000000000000000e+00 +9.0439548945351209e+00 +0.0000000000000000e+00 +4.4999998381858655e+00 -4.6449153654636488e-04 +0.0000000000000000e+00 +9.9999989212380047e-01
4.5999999999999996e+00 +9.0439079292771076e+00 +0.0000000000000000e+00 +4.5999998271567435e+00 -4.7481362478354991e-04 +0.0000000000000000e+00 +9.9999988727600453e-01
4.6999999999999993e+00 +9.0438599318099424e+00 +0.0000000000000000e+00 +4.6999998156375149e+00 -4.8513571963118893e-04 +0.0000000000000000e+00 +9.9999988232165982e-01
4.7999999999999989e+00 +9.0438109021329502e+00 +0.0000000000000000e+00 +4.7999998036175242e+00 -4.9545782137542290e-04 +0.0000000000000000e+00 +9.9999987726076611e-01
4.8999999999999986e+00 +9.0437608402454277e+00 +0.0000000000000000e+00 +4.8999997910861168e+00 -5.0577993029141523e-04 +0.0000000000000000e+00 +9.9999987209332286e-01
4.9999999999999982e+00 +9.0437097461466447e+00 +0.0000000000000000e+00 +4.9999997780326373e+00 -5.1610204664335731e-04 +0.0000000000000000e+00 +9.9999986681932984e-01
5.0999999999999979e+00 +9.0436576198358427e+00 +0.0000000000000000e+00 +5.0999997644464310e+00 -5.2642417068447475e-04 +0.0000000000000000e+00 +9.9999986143878661e-01
5.1999999999999975e+00 +9.0436044613122419e+00 +0.0000000000000000e+00 +5.1999997503168425e+00 -5.3674630265703371e-04 +0.0000000000000000e+00 +9.9999985595169283e-01
5.2999999999999972e+00 +9.0435502705750377e+00 +0.0000000000000000e+00 +5.2999997356332171e+00 -5.4706844279234766e-04 +0.0000000000000000e+00 +9.9999985035804817e-01
5.3999999999999968e+00 +9.0434950476234039e+00 +0.0000000000000000e+00 +5.3999997203849004e+00 -5.5739059131078425e-04 +0.0000000000000000e+00 +9.9999984465785219e-01
5.4999999999999964e+00 +9.0434387924564898e+00 +0.0000000000000000e+00 +5.4999997045612359e+00 -5.6771274842177285e-04 +0.0000000000000000e+00 +9.9999983885110455e-01
5.5999999999999961e+00 +9.0433815050734268e+00 +0.0000000000000000e+00 +5.5999996881515690e+00 -5.7803491432381214e-04 +0.0000000000000000e+00 +9.9999983293780481e-01
5.6999999999999957e+00 +9.0433231854733265e+00 +0.0000000000000000e+00 +5.6999996711452452e+00 -5.8835708920447797e-04 +0.0000000000000000e+00 +9.9999982691795264e-01
5.7999999999999954e+00 +9.0432638336552813e+00 +0.0000000000000000e+00 +5.7999996535316081e+00 -5.9867927324043220e-04 +0.0000000000000000e+00 +9.9999982079154770e-01
5.8999999999999950e+00 +9.0432034496183675e+00 +0.0000000000000000e+00 +5.8999996353000030e+00 -6.0900146659743080e-04 +0.0000000000000000e+00 +9.9999981455858955e-01
5.9999999999999947e+00 +9.0431420333616455e+00 +0.0000000000000000e+00 +5.9999996164397746e+00 -6.1932366943033318e-04 +0.0000000000000000e+00 +9.9999980821907775e-01
6.0999999999999943e+00 +9.0430795848841612e+00 +0.0000000000000000e+00 +6.0999995969402674e+00 -6.2964588188292288e-04 +0.0000000000000000e+00 +9.9999980177301195e-01
6.1999999999999940e+00 +9.0430161041849448e+00 +0.0000000000000000e+00 +6.1999995767908258e+00 -6.3996810408584290e-04 +0.0000000000000000e+00 +9.9999979522039184e-01
6.2999999999999936e+00 +9.0429515912630158e+00 +0.0000000000000000e+00 +6.2999995559807944e+00 -6.5029033615452466e-04 +0.0000000000000000e+00 +9.9999978856121696e-01
6.3999999999999932e+00 +9.0428860461173812e+00 +0.0000000000000000e+00 +6.3999995344995178e+00 -6.6061257818899829e-04 +0.0000000000000000e+00 +9.9999978179548688e-01
6.4999999999999929e+00 +9.0428194687470427e+00 +0.0000000000000000e+00 +6.4999995123363403e+00 -6.7093483027389075e-04 +0.0000000000000000e+00 +9.9999977492320136e-01
6.5999999999999925e+00 +9.0427518591509894e+00 +0.0000000000000000e+00 +6.5999994894806067e+00 -6.8125709247842433e-04 +0.0000000000000000e+00 +9.9999976794435996e-01
6.6999999999999922e+00 +9.0426832173282072e+00 +0.0000000000000000e+00 +6.6999994659216604e+00 -6.9157936485641472e-04 +0.0000000000000000e+00 +9.9999976085896236e-01
6.7999999999999918e+00 +9.0426135432776782e+00 +0.0000000000000000e+00 +6.7999994416488470e+00 -7.0190164744626869e-04 +0.0000000000000000e+00 +9.9999975366700822e-01
6.8999999999999915e+00 +9.0425428369983774e+00 +0.0000000000000000e+00 +6.8999994166515100e+00 -7.1222394027098217e-04 +0.0000000000000000e+00 +9.9999974636849720e-01
6.9999999999999911e+00 +9.0424710984892815e+00 +0.0000000000000000e+00 +6.9999993909189939e+00 -7.2254624333813763e-04 +0.0000000000000000e+00 +9.9999973896342897e-01
7.0999999999999908e+00 +9.0423983277493676e+00 +0.0000000000000000e+00 +7.0999993644406434e+00 -7.3286855663990205e-04 +0.0000000000000000e+00 +9.9999973145180321e-01
7.1999999999999904e+00 +9.0423245247776123e+00 +0.0000000000000000e+00 +7.1999993372058029e+00 -7.4319088015302383e-04 +0.0000000000000000e+00 +9.9999972383361957e-01
7.2999999999999901e+00 +9.0422496895729978e+00 +0.0000000000000000e+00 +7.2999993092038160e+00 -7.5351321383883047e-04 +0.0000000000000000e+00 +9.9999971610887783e-01
7.3999999999999897e+00 +9.0421738221345080e+00 +0.0000000000000000e+00 +7.3999992804240264e+00 -7.6383555764322525e-04 +0.0000000000000000e+00 +9.9999970827757778e-01
7.4999999999999893e+00 +9.0420969224611341e+00 +0.0000000000000000e+00 +7.4999992508557796e+00 -7.7415791149668459e-04 +0.0000000000000000e+00 +9.9999970033971908e-01
7.5999999999999890e+00 +9.0420189905518757e+00 +0.0000000000000000e+00 +7.5999992204884190e+00 -7.8448027531425474e-04 +0.0000000000000000e+00 +9.9999969229530139e-01
7.6999999999999886e+00 +9.0419400264057419e+00 +0.0000000000000000e+00 +7.6999991893112885e+00 -7.9480264899554843e-04 +0.0000000000000000e+00 +9.9999968414432461e-01
7.7999999999999883e+00 +9.0418600300217520e+00 +0.0000000000000000e+00 +7.7999991573137324e+00 -8.0512503242474178e-04 +0.0000000000000000e+00 +9.9999967588678851e-01
7.8999999999999879e+00 +9.0417790013989361e+00 +0.0000000000000000e+00 +7.8999991244850944e+00 -8.1544742547057019e-04 +0.0000000000000000e+00 +9.9999966752269287e-01
7.9999999999999876e+00 +9.0416969405363421e+00 +0.0000000000000000e+00 +7.9999990908147192e+00 -8.2576982798632519e-04 +0.0000000000000000e+00 +9.9999965905203747e-01
8.0999999999999872e+00 +9.0416138474330285e+00 +0.0000000000000000e+00 +8.0999990562919493e+00 -8.3609223981106248e-04 +0.0000000000000000e+00 +9.9999965047482220e-01
8.1999999999999869e+00 +9.0415297220880753e+00 +0.0000000000000000e+00 +8.1999990209061302e+00 -8.4641466078293431e-04 +0.0000000000000000e+00 +9.9999964179104683e-01
8.2999999999999865e+00 +9.0414445645005728e+00 +0.0000000000000000e+00 +8.2999989846466065e+00 -8.5673709075252214e-04 +0.0000000000000000e+00 +9.9999963300071126e-01
8.3999999999999861e+00 +9.0413583746696293e+00 +0.0000000000000000e+00 +8.3999989475027199e+00 -8.6705952958404577e-04 +0.0000000000000000e+00 +9.9999962410381538e-01
8.4999999999999858e+00 +9.0412711525943639e+00 +0.0000000000000000e+00 +8.4999989094638160e+00 -8.7738197715536031e-04 +0.0000000000000000e+00 +9.9999961510035895e-01
8.5999999999999854e+00 +9.0411828982739095e+00 +0.0000000000000000e+00 +8.5999988705192383e+00 -8.8770443335795305e-04 +0.0000000000000000e+00 +9.9999960599034177e-01
8.6999999999999851e+00 +9.0410936117074083e+00 +0.0000000000000000e+00 +8.6999988306583322e+00 -8.9802689809693960e-04 +0.0000000000000000e+00 +9.9999959677376371e-01
8.7999999999999847e+00 +9.0410032928940094e+00 +0.0000000000000000e+00 +8.7999987898704397e+00 -9.0834937129106075e-04 +0.0000000000000000e+00 +9.9999958745062456e-01
8.8999999999999844e+00 +9.0409119418328707e+00 +0.0000000000000000e+00 +8.8999987481449043e+00 -9.1867185287267876e-04 +0.0000000000000000e+00 +9.9999957802092421e-01
8.9999999999999840e+00 +9.0408195585231574e+00 +0.0000000000000000e+00 +8.9999987054710715e+00 -9.2899434278777369e-04 +0.0000000000000000e+00 +9.9999956848466232e-01
9.0999999999999837e+00 +9.0407261429640364e+00 +0.0000000000000000e+00 +9.0999986618382849e+00 -9.3931684099593927e-04 +0.0000000000000000e+00 +9.9999955884183866e-01
9.1999999999999833e+00 +9.0406316951546817e+00 +0.0000000000000000e+00 +9.1999986172358881e+00 -9.4963934747037946e-04 +0.0000000000000000e+00 +9.9999954909245303e-01
9.2999999999999829e+00 +9.0405362150942672e+00 +0.0000000000000000e+00 +9.2999985716532247e+00 -9.5996186219790417e-04 +0.0000000000000000e+00 +9.9999953923650520e-01
9.3999999999999826e+00 +9.0404397027819670e+00 +0.0000000000000000e+00 +9.3999985250796385e+00 -9.7028438517892497e-04 +0.0000000000000000e+00 +9.9999952927399494e-01
9.4999999999999822e+00 +9.0403421582169550e+00 +0.0000000000000000e+00 +9.4999984775044730e+00 -9.8060691642745126e-04 +0.0000000000000000e+00 +9.9999951920492192e-01
9.5999999999999819e+00 +9.0402435813984034e+00 +0.0000000000000000e+00 +9.5999984289170719e+00 -9.9092945597108553e-04 +0.0000000000000000e+00 +9.9999950902928592e-01
9.6999999999999815e+00 +9.0401439723254828e+00 +0.0000000000000000e+00 +9.6999983793067788e+00 -1.0012520038510193e-03 +0.0000000000000000e+00 +9.9999949874708660e-01
9.7999999999999812e+00 +9.0400433309973547e+00 +0.0000000000000000e+00 +9.7999983286629373e+00 -1.0115745601220285e-03 +0.0000000000000000e+00 +9.9999948835832364e-01
9.8999999999999808e+00 +9.0399416574131770e+00 +0.0000000000000000e+00 +9.8999982769748911e+00 -1.0218971248524683e-03 +0.0000000000000000e+00 +9.9999947786299670e-01
9.9999999999999805e+00 +9.0398389515720989e+00 +0.0000000000000000e+00 +9.9999982242319838e+00 -1.0322196981242691e-03 +0.0000000000000000e+00 +9.9999946726110545e-01
1.0099999999999980e+01 +9.0397352134732643e+00 +0.0000000000000000e+00 +1.0099998170423559e+01 -1.0425422800315277e-03 +0.0000000000000000e+00 +9.9999945655264944e-01
1.0199999999999980e+01 +9.0396304431158025e+00 +0.0000000000000000e+00 +1.0199998115538961e+01 -1.0528648706650597e-03 +0.0000000000000000e+00 +9.9999944573762833e-01
1.0299999999999979e+01 +9.0395246404988381e+00 +0.0000000000000000e+00 +1.0299998059567532e+01 -1.0631874700969548e-03 +0.0000000000000000e+00 +9.9999943481604192e-01
1.0399999999999979e+01 +9.0394178056214880e+00 +0.0000000000000000e+00 +1.0399998002498617e+01 -1.0735100783791703e-03 +0.0000000000000000e+00 +9.9999942378788975e-01
1.0499999999999979e+01 +9.0393099384828659e+00 +0.0000000000000000e+00 +1.0499997944321558e+01 -1.0838326955435310e-03 +0.0000000000000000e+00 +9.9999941265317149e-01
1.0599999999999978e+01 +9.0392010390820836e+00 +0.0000000000000000e+00 +1.0599997885025699e+01 -1.0941553216017269e-03 +0.0000000000000000e+00 +9.9999940141188692e-01
1.0699999999999978e+01 +9.0390911074182494e+00 +0.0000000000000000e+00 +1.0699997824600382e+01 -1.1044779565453123e-03 +0.0000000000000000e+00 +9.9999939006403571e-01
1.0799999999999978e+01 +9.0389801434904786e+00 +0.0000000000000000e+00 +1.0799997763034954e+01 -1.1148006003457041e-03 +0.0000000000000000e+00 +9.9999937860961763e-01
1.0899999999999977e+01 +9.0388681472978867e+00 +0.0000000000000000e+00 +1.0899997700318755e+01 -1.1251232529541810e-03 +0.0000000000000000e+00 +9.9999936704863246e-01
1.0999999999999977e+01 +9.0387551188395960e+00 +0.0000000000000000e+00 +1.0999997636441128e+01 -1.1354459143018817e-03 +0.0000000000000000e+00 +9.9999935538107998e-01
1.1099999999999977e+01 +9.0386410581147381e+00 +0.0000000000000000e+00 +1.1099997571391418e+01 -1.1457685842998031e-03 +0.0000000000000000e+00 +9.9999934360696008e-01
1.1199999999999976e+01 +9.0385259651224512e+00 +0.0000000000000000e+00 +1.1199997505158967e+01 -1.1560912628388001e-03 +0.0000000000000000e+00 +9.9999933172627253e-01
1.1299999999999976e+01 +9.0384098398618899e+00 +0.0000000000000000e+00 +1.1299997437733120e+01 -1.1664139497895830e-03 +0.0000000000000000e+00 +9.9999931973901734e-01
1.1399999999999975e+01 +9.0382926823322194e+00 +0.0000000000000000e+00 +1.1399997369103218e+01 -1.1767366450027167e-03 +0.0000000000000000e+00 +9.9999930764519429e-01
1.1499999999999975e+01 +9.0381744925326206e+00 +0.0000000000000000e+00 +1.1499997299258606e+01 -1.1870593483086192e-03 +0.0000000000000000e+00 +9.9999929544480337e-01
1.1599999999999975e+01 +9.0380552704622943e+00 +0.0000000000000000e+00 +1.1599997228188627e+01 -1.1973820595175600e-03 +0.0000000000000000e+00 +9.9999928313784459e-01
1.1699999999999974e+01 +9.0379350161204606e+00 +0.0000000000000000e+00 +1.1699997155882624e+01 -1.2077047784196588e-03 +0.0000000000000000e+00 +9.9999927072431793e-01
1.1799999999999974e+01 +9.0378137295063610e+00 +0.0000000000000000e+00 +1.1799997082329940e+01 -1.2180275047848838e-03 +0.0000000000000000e+00 +9.9999925820422342e-01
