# field on trajectory
# s[mm] rx[mm] ry[mm] rz[mm] bx[T] by[T] bz[T]
0.0000000000000000e+00 +9.0449999999999999e+00 +0.0000000000000000e+00 +0.0000000000000000e+00 +1.1081117240231246e-02 -1.0303059202924241e+00 -5.8431571877637138e-02
-1.0000000000000001e-01 +9.0449994852022186e+00 +0.0000000000000000e+00 -9.9999999998233224e-02 +1.1081122042497610e-02 -1.0303130951558208e+00 -5.8436055710846549e-02
-2.0000000000000001e-01 +9.0449979408040857e+00 +0.0000000000000000e+00 -1.9999999998586571e-01 +1.1081126971771672e-02 -1.0303203220864916e+00 -5.8440539681896803e-02
-3.0000000000000004e-01 +9.0449953667983785e+00 +0.0000000000000000e+00 -2.9999999995229648e-01 +1.1081131697526449e-02 -1.0303275985602280e+00 -5.8445022785764612e-02
-4.0000000000000002e-01 +9.0449917631778280e+00 +0.0000000000000000e+00 -3.9999999988692436e-01 +1.1081135889239865e-02 -1.0303349220531008e+00 -5.8449504017397472e-02
-5.0000000000000000e-01 +9.0449871299351141e+00 +0.0000000000000000e+00 -4.9999999977914794e-01 +1.1081139216390626e-02 -1.0303422900414496e+00 -5.8453982371714647e-02
-5.9999999999999998e-01 +9.0449814670628772e+00 +0.0000000000000000e+00 -5.9999999961836559e-01 +1.1081141348454010e-02 -1.0303497000018746e+00 -5.8458456843608370e-02
-6.9999999999999996e-01 +9.0449747745537117e+00 +0.0000000000000000e+00 -6.9999999939397539e-01 +1.1081141954897787e-02 -1.0303571494112285e+00 -5.8462926427945094e-02
-7.9999999999999993e-01 +9.0449670524001746e+00 +0.0000000000000000e+00 -7.9999999909537534e-01 +1.1081140705178023e-02 -1.0303646357466023e+00 -5.8467390119566351e-02
-8.9999999999999991e-01 +9.0449583005947858e+00 +0.0000000000000000e+00 -8.9999999871196312e-01 +1.1081137268734918e-02 -1.0303721564853210e+00 -5.8471846913290097e-02
-9.9999999999999989e-01 +9.0449485191300294e+00 +0.0000000000000000e+00 -9.9999999823313612e-01 +1.1081131314988685e-02 -1.0303797091049307e+00 -5.8476295803911782e-02
-1.0999999999999999e+00 +9.0449377079983613e+00 +0.0000000000000000e+00 -1.0999999976482915e+00 +1.1081122513335378e-02 -1.0303872910831915e+00 -5.8480735786205398e-02
-1.2000000000000000e+00 +9.0449258671922053e+00 +0.0000000000000000e+00 -1.1999999969468262e+00 +1.1081110533142710e-02 -1.0303948998980643e+00 -5.8485165854924671e-02
-1.3000000000000000e+00 +9.0449129967039585e+00 +0.0000000000000000e+00 -1.2999999961181372e+00 +1.1081095043745966e-02 -1.0304025330277065e+00 -5.8489585004804216e-02
-1.4000000000000001e+00 +9.0448990965259970e+00 +0.0000000000000000e+00 -1.3999999951516207e+00 +1.1081075714443771e-02 -1.0304101879504570e+00 -5.8493992230560565e-02
-1.5000000000000002e+00 +9.0448841666506716e+00 +0.0000000000000000e+00 -1.4999999940366731e+00 +1.1081052214493988e-02 -1.0304178621448306e+00 -5.8498386526893369e-02
-1.6000000000000003e+00 +9.0448682070703139e+00 +0.0000000000000000e+00 -1.5999999927626902e+00 +1.1081024395279736e-02 -1.0304255535526596e+00 -5.8502767093282546e-02
-1.7000000000000004e+00 +9.0448512177772411e+00 +0.0000000000000000e+00 -1.6999999913190680e+00 +1.1080992836833402e-02 -1.0304332619686156e+00 -5.8507133948378386e-02
-1.8000000000000005e+00 +9.0448331987637509e+00 +0.0000000000000000e+00 -1.7999999896952019e+00 +1.1080958301355890e-02 -1.0304409876508847e+00 -5.8511487315616763e-02
-1.9000000000000006e+00 +9.0448141500221251e+00 +0.0000000000000000e+00 -1.8999999878804874e+00 +1.1080921551054094e-02 -1.0304487308580617e+00 -5.8515827418424753e-02
-2.0000000000000004e+00 +9.0447940715446293e+00 +0.0000000000000000e+00 -1.9999999858643194e+00 +1.1080883348144652e-02 -1.0304564918491677e+00 -5.8520154480222179e-02
-2.1000000000000005e+00 +9.0447729633235081e+00 +0.0000000000000000e+00 -2.0999999836360925e+00 +1.1080844454857739e-02 -1.0304642708836789e+00 -5.8524468724423288e-02
-2.2000000000000006e+00 +9.0447508253509916e+00 +0.0000000000000000e+00 -2.1999999811852016e+00 +1.1080805633440816e-02 -1.0304720682215474e+00 -5.8528770374438308e-02
-2.3000000000000007e+00 +9.0447276576192888e+00 +0.0000000000000000e+00 -2.2999999785010408e+00 +1.1080767646162414e-02 -1.0304798841232270e+00 -5.8533059653674932e-02
-2.4000000000000008e+00 +9.0447034601205925e+00 +0.0000000000000000e+00 -2.3999999755730039e+00 +1.1080731255315900e-02 -1.0304877188496975e+00 -5.8537336785540024e-02
-2.5000000000000009e+00 +9.0446782328470743e+00 +0.0000000000000000e+00 -2.4999999723904853e+00 +1.1080697223223246e-02 -1.0304955726624874e+00 -5.8541601993441134e-02
-2.6000000000000010e+00 +9.0446519757908899e+00 +0.0000000000000000e+00 -2.5999999689428783e+00 +1.1080666312238821e-02 -1.0305034458236986e+00 -5.8545855500788072e-02
-2.7000000000000011e+00 +9.0446246889441753e+00 +0.0000000000000000e+00 -2.6999999652195763e+00 +1.1080639284753131e-02 -1.0305113385960309e+00 -5.8550097530994501e-02
-2.8000000000000012e+00 +9.0445963722990452e+00 +0.0000000000000000e+00 -2.7999999612099722e+00 +1.1080616903196618e-02 -1.0305192512428054e+00 -5.8554328307479565e-02
-2.9000000000000012e+00 +9.0445670258475950e+00 +0.0000000000000000e+00 -2.8999999569034594e+00 +1.1080599930043424e-02 -1.0305271840279879e+00 -5.8558548053669300e-02
-3.0000000000000013e+00 +9.0445366495819002e+00 +0.0000000000000000e+00 -2.9999999522894298e+00 +1.1080589127815193e-02 -1.0305351372162146e+00 -5.8562756992998503e-02
-3.1000000000000014e+00 +9.0445052434940170e+00 +0.0000000000000000e+00 -3.0999999473572761e+00 +1.1080585259084791e-02 -1.0305431110728143e+00 -5.8566955348911987e-02
-3.2000000000000015e+00 +9.0444728075759802e+00 +0.0000000000000000e+00 -3.1999999420963903e+00 +1.1080589086480136e-02 -1.0305511058638341e+00 -5.8571143344866392e-02
-3.3000000000000016e+00 +9.0444393418198032e+00 +0.0000000000000000e+00 -3.2999999364961639e+00 +1.1080601372687963e-02 -1.0305591218560621e+00 -5.8575321204331711e-02
-3.4000000000000017e+00 +9.0444048462174802e+00 +0.0000000000000000e+00 -3.3999999305459889e+00 +1.1080622880457580e-02 -1.0305671593170509e+00 -5.8579489150792814e-02
-3.5000000000000018e+00 +9.0443693207609819e+00 +0.0000000000000000e+00 -3.4999999242352566e+00 +1.1080654372604682e-02 -1.0305752185151431e+00 -5.8583647407751051e-02
-3.6000000000000019e+00 +9.0443327654422596e+00 +0.0000000000000000e+00 -3.5999999175533577e+00 +1.1080696319728790e-02 -1.0305832990580190e+00 -5.8587796091847548e-02
-3.7000000000000020e+00 +9.0442951802532416e+00 +0.0000000000000000e+00 -3.6999999104896832e+00 +1.1080748023332641e-02 -1.0305913979080463e+00 -5.8591934892233286e-02
-3.8000000000000020e+00 +9.0442565651858402e+00 +0.0000000000000000e+00 -3.7999999030336240e+00 +1.1080808492644289e-02 -1.0305995113663049e+00 -5.8596063391214759e-02
-3.9000000000000021e+00 +9.0442169202319516e+00 +0.0000000000000000e+00 -3.8999998951745698e+00 +1.1080876736898395e-02 -1.0306076357339831e+00 -5.8600181171136446e-02
-4.0000000000000018e+00 +9.0441762453834595e+00 +0.0000000000000000e+00 -3.9999998869019109e+00 +1.1080951765335263e-02 -1.0306157673123533e+00 -5.8604287814383225e-02
-4.1000000000000014e+00 +9.0441345406322444e+00 +0.0000000000000000e+00 -4.0999998782050371e+00 +1.1081032587200002e-02 -1.0306239024027481e+00 -5.8608382903383070e-02
-4.2000000000000011e+00 +9.0440918059701811e+00 +0.0000000000000000e+00 -4.1999998690733378e+00 +1.1081118211741564e-02 -1.0306320373065365e+00 -5.8612466020609481e-02
-4.3000000000000007e+00 +9.0440480413891464e+00 +0.0000000000000000e+00 -4.2999998594962028e+00 +1.1081207648211848e-02 -1.0306401683250961e+00 -5.8616536748584025e-02
-4.4000000000000004e+00 +9.0440032468810188e+00 +0.0000000000000000e+00 -4.3999998494630201e+00 +1.1081299905864796e-02 -1.0306482917597939e+00 -5.8620594669878900e-02
-4.5000000000000000e+00 +9.0439574224376855e+00 +0.0000000000000000e+00 -4.4999998389631797e+00 +1.1081393993955463e-02 -1.0306564039119570e+00 -5.8624639367119424e-02
-4.5999999999999996e+00 +9.0439105680510448e+00 +0.0000000000000000e+00 -4.5999998279860694e+00 +1.1081488921739116e-02 -1.0306645010828492e+00 -5.8628670422986640e-02
-4.6999999999999993e+00 +9.0438626837130105e+00 +0.0000000000000000e+00 -4.6999998165210775e+00 +1.1081583698470329e-02 -1.0306725795736509e+00 -5.8632687420219827e-02
-4.7999999999999989e+00 +9.0438137694155163e+00 +0.0000000000000000e+00 -4.7999998045575918e+00 +1.1081677333402035e-02 -1.0306806356854274e+00 -5.8636689941618948e-02
-4.8999999999999986e+00 +9.0437638251505152e+00 +0.0000000000000000e+00 -4.8999997920850014e+00 +1.1081768835784638e-02 -1.0306886657191094e+00 -5.8640677570047317e-02
-4.9999999999999982e+00 +9.0437128509099907e+00 +0.0000000000000000e+00 -4.9999997790926924e+00 +1.1081857214865104e-02 -1.0306966659754682e+00 -5.8644649888434153e-02
-5.0999999999999979e+00 +9.0436608466859525e+00 +0.0000000000000000e+00 -5.0999997655700531e+00 +1.1081941479886004e-02 -1.0307046327550893e+00 -5.8648606479776932e-02
-5.1999999999999975e+00 +9.0436078124704444e+00 +0.0000000000000000e+00 -5.1999997515064695e+00 +1.1082020640084636e-02 -1.0307125623583497e+00 -5.8652546927144125e-02
-5.2999999999999972e+00 +9.0435537482555493e+00 +0.0000000000000000e+00 -5.2999997368913299e+00 +1.1082093704692073e-02 -1.0307204510853922e+00 -5.8656470813677690e-02
-5.3999999999999968e+00 +9.0434986540333888e+00 +0.0000000000000000e+00 -5.3999997217140203e+00 +1.1082159682932278e-02 -1.0307282952361023e+00 -5.8660377722595559e-02
-5.4999999999999964e+00 +9.0434425297961329e+00 +0.0000000000000000e+00 -5.4999997059639272e+00 +1.1082217584021142e-02 -1.0307360911100829e+00 -5.8664267237194243e-02
-5.5999999999999961e+00 +9.0433853755359941e+00 +0.0000000000000000e+00 -5.5999996896304367e+00 +1.1082266753585172e-02 -1.0307438370687170e+00 -5.8668139043747861e-02
-5.6999999999999957e+00 +9.0433271912452398e+00 +0.0000000000000000e+00 -5.6999996727029352e+00 +1.1082307882914129e-02 -1.0307515397214799e+00 -5.8671993240151578e-02
-5.7999999999999954e+00 +9.0432679769161766e+00 +0.0000000000000000e+00 -5.7999996551708080e+00 +1.1082341999664675e-02 -1.0307592077396222e+00 -5.8675830027138089e-02
-5.8999999999999950e+00 +9.0432077325411484e+00 +0.0000000000000000e+00 -5.8999996370234404e+00 +1.1082370131427556e-02 -1.0307668497940183e+00 -5.8679649605362018e-02
-5.9999999999999947e+00 +9.0431464581125223e+00 +0.0000000000000000e+00 -5.9999996182502189e+00 +1.1082393305724428e-02 -1.0307744745551466e+00 -5.8683452175395619e-02
-6.0999999999999943e+00 +9.0430841536226865e+00 +0.0000000000000000e+00 -6.0999995988405278e+00 +1.1082412550004708e-02 -1.0307820906930620e+00 -5.8687237937724297e-02
-6.1999999999999940e+00 +9.0430208190640347e+00 +0.0000000000000000e+00 -6.1999995787837516e+00 +1.1082428891642402e-02 -1.0307897068773706e+00 -5.8691007092742185e-02
-6.2999999999999936e+00 +9.0429564544289622e+00 +0.0000000000000000e+00 -6.2999995580692758e+00 +1.1082443357932962e-02 -1.0307973317772108e+00 -5.8694759840747762e-02
-6.3999999999999932e+00 +9.0428910597098575e+00 +0.0000000000000000e+00 -6.3999995366864848e+00 +1.1082456976090095e-02 -1.0308049740612226e+00 -5.8698496381939344e-02
-6.4999999999999929e+00 +9.0428246348990875e+00 +0.0000000000000000e+00 -6.4999995146247631e+00 +1.1082470773242648e-02 -1.0308126423975279e+00 -5.8702216916410782e-02
-6.5999999999999925e+00 +9.0427571799889961e+00 +0.0000000000000000e+00 -6.5999994918734943e+00 +1.1082485776431400e-02 -1.0308203454537015e+00 -5.8705921644146841e-02
-6.6999999999999922e+00 +9.0426886949718916e+00 +0.0000000000000000e+00 -6.6999994684220612e+00 +1.1082503012605972e-02 -1.0308280918967523e+00 -5.8709610765019064e-02
-6.7999999999999918e+00 +9.0426191798400399e+00 +0.0000000000000000e+00 -6.7999994442598481e+00 +1.1082523508621597e-02 -1.0308358903930930e+00 -5.8713284478781005e-02
-6.8999999999999915e+00 +9.0425486345856552e+00 +0.0000000000000000e+00 -6.8999994193762380e+00 +1.1082548291236017e-02 -1.0308437496085210e+00 -5.8716942985064066e-02
-6.9999999999999911e+00 +9.0424770592008894e+00 +0.0000000000000000e+00 -6.9999993937606142e+00 +1.1082578387106325e-02 -1.0308516782081902e+00 -5.8720586483372923e-02
-7.0999999999999908e+00 +9.0424044536778272e+00 +0.0000000000000000e+00 -7.0999993674023587e+00 +1.1082614822785787e-02 -1.0308596848565867e+00 -5.8724215173081143e-02
-7.1999999999999904e+00 +9.0423308180084732e+00 +0.0000000000000000e+00 -7.1999993402908542e+00 +1.1082658624720718e-02 -1.0308677782175064e+00 -5.8727829253426685e-02
-7.2999999999999901e+00 +9.0422561521847484e+00 +0.0000000000000000e+00 -7.2999993124154816e+00 +1.1082710819247322e-02 -1.0308759669540302e+00 -5.8731428923507613e-02
-7.3999999999999897e+00 +9.0421804561984764e+00 +0.0000000000000000e+00 -7.3999992837656237e+00 +1.1082772432588532e-02 -1.0308842597284960e+00 -5.8735014382277420e-02
-7.4999999999999893e+00 +9.0421037300413776e+00 +0.0000000000000000e+00 -7.4999992543306613e+00 +1.1082844490850900e-02 -1.0308926652024784e+00 -5.8738585828540850e-02
-7.5999999999999890e+00 +9.0420259737050586e+00 +0.0000000000000000e+00 -7.5999992240999754e+00 +1.1082927745326187e-02 -1.0309011886957713e+00 -5.8742143408619586e-02
-7.6999999999999886e+00 +9.0419471871810124e+00 +0.0000000000000000e+00 -7.6999991930629461e+00 +1.1083021848464670e-02 -1.0309098221627633e+00 -5.8745687059414096e-02
-7.7999999999999883e+00 +9.0418673704606203e+00 +0.0000000000000000e+00 -7.7999991612089543e+00 +1.1083126178125227e-02 -1.0309185542149288e+00 -5.8749216665497282e-02
-7.8999999999999879e+00 +9.0417865235351655e+00 +0.0000000000000000e+00 -7.8999991285273801e+00 +1.1083240112309418e-02 -1.0309273734618327e+00 -5.8752732111462619e-02
-7.9999999999999876e+00 +9.0417046463958446e+00 +0.0000000000000000e+00 -7.9999990950076025e+00 +1.1083363029166758e-02 -1.0309362685110706e+00 -5.8756233281925439e-02
-8.0999999999999872e+00 +9.0416217390337774e+00 +0.0000000000000000e+00 -8.0999990606390018e+00 +1.1083494307000053e-02 -1.0309452279682139e+00 -5.8759720061524481e-02
-8.1999999999999869e+00 +9.0415378014400218e+00 +0.0000000000000000e+00 -8.1999990254109552e+00 +1.1083633324270696e-02 -1.0309542404367515e+00 -5.8763192334923262e-02
-8.2999999999999865e+00 +9.0414528336055806e+00 +0.0000000000000000e+00 -8.2999989893128419e+00 +1.1083779459603961e-02 -1.0309632945180331e+00 -5.8766649986811498e-02
-8.3999999999999861e+00 +9.0413668355214156e+00 +0.0000000000000000e+00 -8.3999989523340410e+00 +1.1083932091794313e-02 -1.0309723788112131e+00 -5.8770092901906455e-02
-8.4999999999999858e+00 +9.0412798071784604e+00 +0.0000000000000000e+00 -8.4999989144639301e+00 +1.1084090599810702e-02 -1.0309814819131933e+00 -5.8773520964954508e-02
-8.5999999999999854e+00 +9.0411917485676270e+00 +0.0000000000000000e+00 -8.5999988756918864e+00 +1.1084254362801877e-02 -1.0309905924185658e+00 -5.8776934060732498e-02
-8.6999999999999851e+00 +9.0411026596798223e+00 +0.0000000000000000e+00 -8.6999988360072873e+00 +1.1084422760101673e-02 -1.0309996989195569e+00 -5.8780332074049126e-02
-8.7999999999999847e+00 +9.0410125405059549e+00 +0.0000000000000000e+00 -8.7999987953995085e+00 +1.1084595171234290e-02 -1.0310087900059683e+00 -5.8783714889746375e-02
-8.8999999999999844e+00 +9.0409213910369530e+00 +0.0000000000000000e+00 -8.8999987538579290e+00 +1.1084770975919615e-02 -1.0310178542651240e+00 -5.8787082392700987e-02
-8.9999999999999840e+00 +9.0408292112637678e+00 +0.0000000000000000e+00 -8.9999987113719246e+00 +1.1084949554078490e-02 -1.0310268802818110e+00 -5.8790434467825850e-02
-9.0999999999999837e+00 +9.0407360011773896e+00 +0.0000000000000000e+00 -9.0999986679308726e+00 +1.1085130285838019e-02 -1.0310358566382218e+00 -5.8793771000071396e-02
-9.1999999999999833e+00 +9.0406417607688603e+00 +0.0000000000000000e+00 -9.1999986235241469e+00 +1.1085312551536840e-02 -1.0310447719139000e+00 -5.8797091874427075e-02
-9.2999999999999829e+00 +9.0405464900292820e+00 +0.0000000000000000e+00 -9.2999985781411247e+00 +1.1085495731730418e-02 -1.0310536146856826e+00 -5.8800396975922715e-02
-9.3999999999999826e+00 +9.0404501889498281e+00 +0.0000000000000000e+00 -9.3999985317711818e+00 +1.1085679207196327e-02 -1.0310623735276425e+00 -5.8803686189630028e-02
-9.4999999999999822e+00 +9.0403528575217571e+00 +0.0000000000000000e+00 -9.4999984844036938e+00 +1.1085862358939528e-02 -1.0310710370110348e+00 -5.8806959400663925e-02
-9.5999999999999819e+00 +9.0402544957364235e+00 +0.0000000000000000e+00 -9.5999984360280362e+00 +1.1086044715039781e-02 -1.0310795956411301e+00 -5.8810216490909013e-02
-9.6999999999999815e+00 +9.0401551035852847e+00 +0.0000000000000000e+00 -9.6999983866335828e+00 +1.1086226391086322e-02 -1.0310880476695850e+00 -5.8813457329170725e-02
-9.7999999999999812e+00 +9.0400546810599050e+00 +0.0000000000000000e+00 -9.7999983362097094e+00 +1.1086407649422625e-02 -1.0310963932859887e+00 -5.8816681780957530e-02
-9.8999999999999808e+00 +9.0399532281519548e+00 +0.0000000000000000e+00 -9.8999982847457915e+00 +1.1086588752256177e-02 -1.0311046326811846e+00 -5.8819889711749569e-02
-9.9999999999999805e+00 +9.0398507448532115e+00 +0.0000000000000000e+00 -9.9999982322312029e+00 +1.1086769961654232e-02 -1.0311127660473214e+00 -5.8823080986998184e-02
-1.0099999999999980e+01 +9.0397472311555589e+00 +0.0000000000000000e+00 -1.0099998178655317e+01 +1.1086951539539544e-02 -1.0311207935779014e+00 -5.8826255472125465e-02
-1.0199999999999980e+01 +9.0396426870509856e+00 +0.0000000000000000e+00 -1.0199998124007511e+01 +1.1087133747686094e-02 -1.0311287154678319e+00 -5.8829413032523634e-02
-1.0299999999999979e+01 +9.0395371125315851e+00 +0.0000000000000000e+00 -1.0299998068277157e+01 +1.1087316847714858e-02 -1.0311365319134771e+00 -5.8832553533554724e-02
-1.0399999999999979e+01 +9.0394305075895591e+00 +0.0000000000000000e+00 -1.0399998011453629e+01 +1.1087501101089520e-02 -1.0311442431127056e+00 -5.8835676840549904e-02
-1.0499999999999979e+01 +9.0393228722172125e+00 +0.0000000000000000e+00 -1.0499997953526304e+01 +1.1087686769112235e-02 -1.0311518492649430e+00 -5.8838782818809110e-02
-1.0599999999999978e+01 +9.0392142064069567e+00 +0.0000000000000000e+00 -1.0599997894484552e+01 +1.1087874112919390e-02 -1.0311593505712209e+00 -5.8841871333600512e-02
-1.0699999999999978e+01 +9.0391045101513061e+00 +0.0000000000000000e+00 -1.0699997834317749e+01 +1.1088063393477328e-02 -1.0311667472342301e+00 -5.8844942250160064e-02
-1.0799999999999978e+01 +9.0389937834428800e+00 +0.0000000000000000e+00 -1.0799997773015267e+01 +1.1088254871578116e-02 -1.0311740394583639e+00 -5.8847995433690847e-02
-1.0899999999999977e+01 +9.0388820262744041e+00 +0.0000000000000000e+00 -1.0899997710566481e+01 +1.1088448807835308e-02 -1.0311812274497778e+00 -5.8851030749362869e-02
-1.0999999999999977e+01 +9.0387692386387073e+00 +0.0000000000000000e+00 -1.0999997646960765e+01 +1.1088645462679693e-02 -1.0311883114164329e+00 -5.8854048062312279e-02
-1.1099999999999977e+01 +9.0386554205287215e+00 +0.0000000000000000e+00 -1.1099997582187489e+01 +1.1088845096355071e-02 -1.0311952915681484e+00 -5.8857047237641076e-02
-1.1199999999999976e+01 +9.0385405719374852e+00 +0.0000000000000000e+00 -1.1199997516236031e+01 +1.1089047968914004e-02 -1.0312021681166528e+00 -5.8860028140416590e-02
-1.1299999999999976e+01 +9.0384246928581380e+00 +0.0000000000000000e+00 -1.1299997449095761e+01 +1.1089254340213590e-02 -1.0312089412756318e+00 -5.8862990635670860e-02
-1.1399999999999975e+01 +9.0383077832839227e+00 +0.0000000000000000e+00 -1.1399997380756052e+01 +1.1089464469911225e-02 -1.0312156112607813e+00 -5.8865934588400351e-02
-1.1499999999999975e+01 +9.0381898432081869e+00 +0.0000000000000000e+00 -1.1499997311206277e+01 +1.1089678617460403e-02 -1.0312221782898561e+00 -5.8868859863565319e-02
-1.1599999999999975e+01 +9.0380708726243810e+00 +0.0000000000000000e+00 -1.1599997240435810e+01 +1.1089896939536137e-02 -1.0312286424522692e+00 -5.8871766367583581e-02
-1.1699999999999974e+01 +9.0379508715260588e+00 +0.0000000000000000e+00 -1.1699997168434024e+01 +1.1090119182394826e-02 -1.0312350033171609e+00 -5.8874654172761276e-02
