# field on trajectory
# s[mm] rx[mm] ry[mm] rz[mm] bx[T] by[T] bz[T]
0.0000000000000000e+00 +9.1430000000000007e+00 +0.0000000000000000e+00 +0.0000000000000000e+00 +1.1432675906412290e-02 -1.0311118006437991e+00 -5.9655617849138469e-02
-1.0000000000000001e-01 +9.1429994848000877e+00 +0.0000000000000000e+00 -9.9999999998230449e-02 +1.1432670122525081e-02 -1.0311157572746972e+00 -5.9655001779930772e-02
-2.0000000000000001e-01 +9.1429979391977270e+00 +0.0000000000000000e+00 -1.9999999998584361e-01 +1.1432656113801896e-02 -1.0311196438072561e+00 -5.9654365297346822e-02
-3.0000000000000004e-01 +9.1429953631890335e+00 +0.0000000000000000e+00 -2.9999999995222215e-01 +1.1432635256724191e-02 -1.0311234644421918e+00 -5.9653708597141392e-02
-4.0000000000000002e-01 +9.1429917567701899e+00 +0.0000000000000000e+00 -3.9999999988674845e-01 +1.1432608927780832e-02 -1.0311272233800006e+00 -5.9653031875065536e-02
-5.0000000000000000e-01 +9.1429871199374393e+00 +0.0000000000000000e+00 -4.9999999977880494e-01 +1.1432578503464463e-02 -1.0311309248209866e+00 -5.9652335326861990e-02
-5.9999999999999998e-01 +9.1429814526870832e+00 +0.0000000000000000e+00 -5.9999999961777384e-01 +1.1432545360267908e-02 -1.0311345729652845e+00 -5.9651619148260254e-02
-6.9999999999999996e-01 +9.1429747550154765e+00 +0.0000000000000000e+00 -6.9999999939303736e-01 +1.1432510874680469e-02 -1.0311381720128823e+00 -5.9650883534971721e-02
-7.9999999999999993e-01 +9.1429670269190222e+00 +0.0000000000000000e+00 -7.9999999909397757e-01 +1.1432476423184358e-02 -1.0311417261636482e+00 -5.9650128682685037e-02
-8.9999999999999991e-01 +9.1429582683941693e+00 +0.0000000000000000e+00 -8.9999999870997638e-01 +1.1432443382251030e-02 -1.0311452396173524e+00 -5.9649354787061112e-02
-9.9999999999999989e-01 +9.1429484794374076e+00 +0.0000000000000000e+00 -9.9999999823041552e-01 +1.1432413128337563e-02 -1.0311487165736923e+00 -5.9648562043728391e-02
-1.0999999999999999e+00 +9.1429376600452628e+00 +0.0000000000000000e+00 -1.0999999976446768e+00 +1.1432387037883025e-02 -1.0311521612323165e+00 -5.9647750648277972e-02
-1.2000000000000000e+00 +9.1429258102142938e+00 +0.0000000000000000e+00 -1.1999999969421420e+00 +1.1432366487304828e-02 -1.0311555777928489e+00 -5.9646920796258919e-02
-1.3000000000000000e+00 +9.1429129299410867e+00 +0.0000000000000000e+00 -1.2999999961121924e+00 +1.1432352852995105e-02 -1.0311589704549124e+00 -5.9646072683173269e-02
-1.4000000000000001e+00 +9.1428990192222539e+00 +0.0000000000000000e+00 -1.3999999951442095e+00 +1.1432347511317083e-02 -1.0311623434181545e+00 -5.9645206504471436e-02
-1.5000000000000002e+00 +9.1428840780544238e+00 +0.0000000000000000e+00 -1.4999999940275746e+00 +1.1432351838601421e-02 -1.0311657008822688e+00 -5.9644322455547065e-02
-1.6000000000000003e+00 +9.1428681064342445e+00 +0.0000000000000000e+00 -1.5999999927516688e+00 +1.1432366827893621e-02 -1.0311690459326224e+00 -5.9643420604487830e-02
-1.7000000000000004e+00 +9.1428511043583729e+00 +0.0000000000000000e+00 -1.6999999913058734e+00 +1.1432391939217093e-02 -1.0311723771970303e+00 -5.9642500510353198e-02
-1.8000000000000005e+00 +9.1428330718234836e+00 +0.0000000000000000e+00 -1.7999999896795693e+00 +1.1432426249343942e-02 -1.0311756921888933e+00 -5.9641561604938748e-02
-1.9000000000000006e+00 +9.1428140088262655e+00 +0.0000000000000000e+00 -1.8999999878621376e+00 +1.1432468835049971e-02 -1.0311789884215878e+00 -5.9640603320028171e-02
-2.0000000000000004e+00 +9.1427939153634270e+00 +0.0000000000000000e+00 -1.9999999858429589e+00 +1.1432518773117390e-02 -1.0311822634084702e+00 -5.9639625087396279e-02
-2.1000000000000005e+00 +9.1427727914316979e+00 +0.0000000000000000e+00 -2.0999999836114140e+00 +1.1432575140337530e-02 -1.0311855146628786e+00 -5.9638626338812374e-02
-2.2000000000000006e+00 +9.1427506370278326e+00 +0.0000000000000000e+00 -2.1999999811568833e+00 +1.1432637013513568e-02 -1.0311887396981378e+00 -5.9637606506043300e-02
-2.3000000000000007e+00 +9.1427274521486090e+00 +0.0000000000000000e+00 -2.2999999784687475e+00 +1.1432703469463236e-02 -1.0311919360275617e+00 -5.9636565020856735e-02
-2.4000000000000008e+00 +9.1427032367908367e+00 +0.0000000000000000e+00 -2.3999999755363870e+00 +1.1432773585021533e-02 -1.0311951011644562e+00 -5.9635501315024139e-02
-2.5000000000000009e+00 +9.1426779909513556e+00 +0.0000000000000000e+00 -2.4999999723491824e+00 +1.1432846437043447e-02 -1.0311982326221232e+00 -5.9634414820324236e-02
-2.6000000000000010e+00 +9.1426517146270392e+00 +0.0000000000000000e+00 -2.5999999688965136e+00 +1.1432921102406656e-02 -1.0312013279138617e+00 -5.9633304968545880e-02
-2.7000000000000011e+00 +9.1426244078147967e+00 +0.0000000000000000e+00 -2.6999999651677613e+00 +1.1432996658014281e-02 -1.0312043845529744e+00 -5.9632171191491432e-02
-2.8000000000000012e+00 +9.1425960705115781e+00 +0.0000000000000000e+00 -2.7999999611523050e+00 +1.1433072180797569e-02 -1.0312074000527669e+00 -5.9631012920979914e-02
-2.9000000000000012e+00 +9.1425667027143707e+00 +0.0000000000000000e+00 -2.8999999568395247e+00 +1.1433146747718611e-02 -1.0312103719265540e+00 -5.9629829588850089e-02
-3.0000000000000013e+00 +9.1425363044202097e+00 +0.0000000000000000e+00 -2.9999999522188006e+00 +1.1433219435773089e-02 -1.0312132976876622e+00 -5.9628620626963690e-02
-3.1000000000000014e+00 +9.1425048756261749e+00 +0.0000000000000000e+00 -3.0999999472795126e+00 +1.1433289321992989e-02 -1.0312161748494324e+00 -5.9627385467208638e-02
-3.2000000000000015e+00 +9.1424724163293956e+00 +0.0000000000000000e+00 -3.1999999420110403e+00 +1.1433355483449290e-02 -1.0312190009252218e+00 -5.9626123541502159e-02
-3.3000000000000016e+00 +9.1424389265270491e+00 +0.0000000000000000e+00 -3.2999999364027635e+00 +1.1433416997254730e-02 -1.0312217734284106e+00 -5.9624834281793992e-02
-3.4000000000000017e+00 +9.1424044062163698e+00 +0.0000000000000000e+00 -3.3999999304440616e+00 +1.1433472940566501e-02 -1.0312244898724008e+00 -5.9623517120069539e-02
-3.5000000000000018e+00 +9.1423688553946469e+00 +0.0000000000000000e+00 -3.4999999241243143e+00 +1.1433522390588985e-02 -1.0312271477706245e+00 -5.9622171488353089e-02
-3.6000000000000019e+00 +9.1423322740592283e+00 +0.0000000000000000e+00 -3.5999999174329012e+00 +1.1433564646086570e-02 -1.0312297449728378e+00 -5.9620796991292288e-02
-3.7000000000000020e+00 +9.1422946622075223e+00 +0.0000000000000000e+00 -3.6999999103592014e+00 +1.1433599891895912e-02 -1.0312322806740806e+00 -5.9619393923888361e-02
-3.8000000000000020e+00 +9.1422560198369993e+00 +0.0000000000000000e+00 -3.7999999028925946e+00 +1.1433628534355414e-02 -1.0312347544059171e+00 -5.9617962753720985e-02
-3.9000000000000021e+00 +9.1422163469451920e+00 +0.0000000000000000e+00 -3.8999998950224599e+00 +1.1433650979786684e-02 -1.0312371657001687e+00 -5.9616503948361176e-02
-4.0000000000000018e+00 +9.1421756435296935e+00 +0.0000000000000000e+00 -3.9999998867381770e+00 +1.1433667634492562e-02 -1.0312395140889310e+00 -5.9615017975370624e-02
-4.1000000000000014e+00 +9.1421339095881624e+00 +0.0000000000000000e+00 -4.0999998780291245e+00 +1.1433678904755187e-02 -1.0312417991045935e+00 -5.9613505302301258e-02
-4.2000000000000011e+00 +9.1420911451183198e+00 +0.0000000000000000e+00 -4.1999998688846825e+00 +1.1433685196833998e-02 -1.0312440202798534e+00 -5.9611966396694457e-02
-4.3000000000000007e+00 +9.1420473501179504e+00 +0.0000000000000000e+00 -4.2999998592942292e+00 +1.1433686916963804e-02 -1.0312461771477348e+00 -5.9610401726080647e-02
-4.4000000000000004e+00 +9.1420025245849033e+00 +0.0000000000000000e+00 -4.3999998492471439e+00 +1.1433684471352786e-02 -1.0312482692416034e+00 -5.9608811757978580e-02
-4.5000000000000000e+00 +9.1419566685170928e+00 +0.0000000000000000e+00 -4.4999998387328057e+00 +1.1433678266180544e-02 -1.0312502960951835e+00 -5.9607196959894748e-02
-4.5999999999999996e+00 +9.1419097819124975e+00 +0.0000000000000000e+00 -4.5999998277405938e+00 +1.1433668707596135e-02 -1.0312522572425789e+00 -5.9605557799322778e-02
-4.6999999999999993e+00 +9.1418618647691652e+00 +0.0000000000000000e+00 -4.6999998162598873e+00 +1.1433656201716101e-02 -1.0312541522182841e+00 -5.9603894743742919e-02
-4.7999999999999989e+00 +9.1418129170852040e+00 +0.0000000000000000e+00 -4.7999998042800653e+00 +1.1433641154622486e-02 -1.0312559805572046e+00 -5.9602208260621327e-02
-4.8999999999999986e+00 +9.1417629388587951e+00 +0.0000000000000000e+00 -4.8999997917905063e+00 +1.1433623972360881e-02 -1.0312577417946731e+00 -5.9600498817409531e-02
-4.9999999999999982e+00 +9.1417119300881815e+00 +0.0000000000000000e+00 -4.9999997787805892e+00 +1.1433605060938459e-02 -1.0312594354664670e+00 -5.9598766881543787e-02
-5.0999999999999979e+00 +9.1416598907716775e+00 +0.0000000000000000e+00 -5.0999997652396933e+00 +1.1433584826321969e-02 -1.0312610611088235e+00 -5.9597012920444503e-02
-5.1999999999999975e+00 +9.1416068209076649e+00 +0.0000000000000000e+00 -5.1999997511571978e+00 +1.1433563674435803e-02 -1.0312626182584588e+00 -5.9595237401515656e-02
-5.2999999999999972e+00 +9.1415527204945910e+00 +0.0000000000000000e+00 -5.2999997365224809e+00 +1.1433542011160003e-02 -1.0312641064525829e+00 -5.9593440792144056e-02
-5.3999999999999968e+00 +9.1414975895309762e+00 +0.0000000000000000e+00 -5.3999997213249218e+00 +1.1433520242328273e-02 -1.0312655252289185e+00 -5.9591623559698916e-02
-5.4999999999999964e+00 +9.1414414280154084e+00 +0.0000000000000000e+00 -5.4999997055538987e+00 +1.1433498773726023e-02 -1.0312668741257178e+00 -5.9589786171531135e-02
-5.5999999999999961e+00 +9.1413842359465445e+00 +0.0000000000000000e+00 -5.5999996891987909e+00 +1.1433477931298565e-02 -1.0312681529571250e+00 -5.9587929097798240e-02
-5.6999999999999957e+00 +9.1413260133231127e+00 +0.0000000000000000e+00 -5.6999996722489774e+00 +1.1433457721795819e-02 -1.0312693626390259e+00 -5.9586052819958164e-02
-5.7999999999999954e+00 +9.1412667601439122e+00 +0.0000000000000000e+00 -5.7999996546938375e+00 +1.1433438072175384e-02 -1.0312705043625940e+00 -5.9584157822323194e-02
-5.8999999999999950e+00 +9.1412064764078060e+00 +0.0000000000000000e+00 -5.8999996365227494e+00 +1.1433418909398949e-02 -1.0312715793188683e+00 -5.9582244589240364e-02
-5.9999999999999947e+00 +9.1411451621137267e+00 +0.0000000000000000e+00 -5.9999996177250914e+00 +1.1433400160432814e-02 -1.0312725886987375e+00 -5.9580313605093069e-02
-6.0999999999999943e+00 +9.1410828172606724e+00 +0.0000000000000000e+00 -6.0999995982902435e+00 +1.1433381752248452e-02 -1.0312735336929304e+00 -5.9578365354302804e-02
-6.1999999999999940e+00 +9.1410194418477051e+00 +0.0000000000000000e+00 -6.1999995782075841e+00 +1.1433363611823051e-02 -1.0312744154919988e+00 -5.9576400321330943e-02
-6.2999999999999936e+00 +9.1409550358739509e+00 +0.0000000000000000e+00 -6.2999995574664922e+00 +1.1433345666140068e-02 -1.0312752352863039e+00 -5.9574418990680313e-02
-6.3999999999999932e+00 +9.1408895993385979e+00 +0.0000000000000000e+00 -6.3999995360563462e+00 +1.1433327842189788e-02 -1.0312759942660050e+00 -5.9572421846897074e-02
-6.4999999999999929e+00 +9.1408231322408930e+00 +0.0000000000000000e+00 -6.4999995139665261e+00 +1.1433310066969864e-02 -1.0312766936210436e+00 -5.9570409374572315e-02
-6.5999999999999925e+00 +9.1407556345801453e+00 +0.0000000000000000e+00 -6.5999994911864102e+00 +1.1433292267485873e-02 -1.0312773345411295e+00 -5.9568382058343729e-02
-6.6999999999999922e+00 +9.1406871063557205e+00 +0.0000000000000000e+00 -6.6999994677053776e+00 +1.1433274370751884e-02 -1.0312779182157290e+00 -5.9566340382897445e-02
-6.7999999999999918e+00 +9.1406175475670430e+00 +0.0000000000000000e+00 -6.7999994435128066e+00 +1.1433256303790981e-02 -1.0312784458340492e+00 -5.9564284832969668e-02
-6.8999999999999915e+00 +9.1405469582135925e+00 +0.0000000000000000e+00 -6.8999994185980773e+00 +1.1433237993635855e-02 -1.0312789185850262e+00 -5.9562215893348466e-02
-6.9999999999999911e+00 +9.1404753382949036e+00 +0.0000000000000000e+00 -6.9999993929505679e+00 +1.1433219367329326e-02 -1.0312793376573091e+00 -5.9560134048875293e-02
-7.0999999999999908e+00 +9.1404026878105658e+00 +0.0000000000000000e+00 -7.0999993665596577e+00 +1.1433200351924938e-02 -1.0312797042392470e+00 -5.9558039784446917e-02
-7.1999999999999904e+00 +9.1403290067602203e+00 +0.0000000000000000e+00 -7.1999993394147257e+00 +1.1433180874487464e-02 -1.0312800195188765e+00 -5.9555933585017054e-02
-7.2999999999999901e+00 +9.1402542951435599e+00 +0.0000000000000000e+00 -7.2999993115051511e+00 +1.1433160862093518e-02 -1.0312802846839058e+00 -5.9553815935597977e-02
-7.3999999999999897e+00 +9.1401785529603270e+00 +0.0000000000000000e+00 -7.3999992828203132e+00 +1.1433140241832089e-02 -1.0312805009217021e+00 -5.9551687321262481e-02
-7.4999999999999893e+00 +9.1401017802103137e+00 +0.0000000000000000e+00 -7.4999992533495909e+00 +1.1433118940805089e-02 -1.0312806694192778e+00 -5.9549548227145248e-02
-7.5999999999999890e+00 +9.1400239768933584e+00 +0.0000000000000000e+00 -7.5999992230823636e+00 +1.1433096846875634e-02 -1.0312807909534534e+00 -5.9547399215652490e-02
-7.6999999999999886e+00 +9.1399451430093492e+00 +0.0000000000000000e+00 -7.6999991920080095e+00 +1.1433073690914342e-02 -1.0312808646613114e+00 -5.9545241158063408e-02
-7.7999999999999883e+00 +9.1398652785582222e+00 +0.0000000000000000e+00 -7.7999991601159095e+00 +1.1433049164569728e-02 -1.0312808892696175e+00 -5.9543075002852365e-02
-7.8999999999999879e+00 +9.1397843835399595e+00 +0.0000000000000000e+00 -7.8999991273954420e+00 +1.1433022959524955e-02 -1.0312808635046353e+00 -5.9540901698469269e-02
-7.9999999999999876e+00 +9.1397024579545967e+00 +0.0000000000000000e+00 -7.9999990938359860e+00 +1.1432994767498983e-02 -1.0312807860921105e+00 -5.9538722193338459e-02
-8.0999999999999872e+00 +9.1396195018022190e+00 +0.0000000000000000e+00 -8.0999990594269207e+00 +1.1432964280247752e-02 -1.0312806557572562e+00 -5.9536537435857524e-02
-8.1999999999999869e+00 +9.1395355150829669e+00 +0.0000000000000000e+00 -8.1999990241576270e+00 +1.1432931189565334e-02 -1.0312804712247328e+00 -5.9534348374396029e-02
-8.2999999999999865e+00 +9.1394504977970321e+00 +0.0000000000000000e+00 -8.2999989880174834e+00 +1.1432895187285099e-02 -1.0312802312186355e+00 -5.9532155957294462e-02
-8.3999999999999861e+00 +9.1393644499446651e+00 +0.0000000000000000e+00 -8.3999989509958688e+00 +1.1432855965280885e-02 -1.0312799344624746e+00 -5.9529961132862949e-02
-8.4999999999999858e+00 +9.1392773715261697e+00 +0.0000000000000000e+00 -8.4999989130821643e+00 +1.1432813215468157e-02 -1.0312795796791616e+00 -5.9527764849380153e-02
-8.5999999999999854e+00 +9.1391892625419118e+00 +0.0000000000000000e+00 -8.5999988742657489e+00 +1.1432766629805170e-02 -1.0312791655909892e+00 -5.9525568055091974e-02
-8.6999999999999851e+00 +9.1391001229923141e+00 +0.0000000000000000e+00 -8.6999988345360020e+00 +1.1432715900294143e-02 -1.0312786909196190e+00 -5.9523371698210543e-02
-8.7999999999999847e+00 +9.1390099528778599e+00 +0.0000000000000000e+00 -8.7999987938823043e+00 +1.1432660718982414e-02 -1.0312781543860630e+00 -5.9521176726912969e-02
-8.8999999999999844e+00 +9.1389187521990962e+00 +0.0000000000000000e+00 -8.8999987522940334e+00 +1.1432600777963627e-02 -1.0312775547106652e+00 -5.9518984089340109e-02
-8.9999999999999840e+00 +9.1388265209566306e+00 +0.0000000000000000e+00 -8.9999987097605718e+00 +1.1432535769378867e-02 -1.0312768906130889e+00 -5.9516794733595488e-02
-9.0999999999999837e+00 +9.1387332591511381e+00 +0.0000000000000000e+00 -9.0999986662712988e+00 +1.1432465385417853e-02 -1.0312761608122973e+00 -5.9514609607744101e-02
-9.1999999999999833e+00 +9.1386389667833576e+00 +0.0000000000000000e+00 -9.1999986218155936e+00 +1.1432389318320099e-02 -1.0312753640265384e+00 -5.9512429659811253e-02
-9.2999999999999829e+00 +9.1385436438540957e+00 +0.0000000000000000e+00 -9.2999985763828370e+00 +1.1432307260376065e-02 -1.0312744989733280e+00 -5.9510255837781328e-02
-9.3999999999999826e+00 +9.1384472903642262e+00 +0.0000000000000000e+00 -9.3999985299624083e+00 +1.1432218903928369e-02 -1.0312735643694335e+00 -5.9508089089596775e-02
-9.4999999999999822e+00 +9.1383499063146942e+00 +0.0000000000000000e+00 -9.4999984825436883e+00 +1.1432123941372880e-02 -1.0312725589308567e+00 -5.9505930363156802e-02
-9.5999999999999819e+00 +9.1382514917065141e+00 +0.0000000000000000e+00 -9.5999984341160580e+00 +1.1432022243660385e-02 -1.0312714815524733e+00 -5.9503780725524792e-02
-9.6999999999999815e+00 +9.1381520465407728e+00 +0.0000000000000000e+00 -9.6999983846688984e+00 +1.1431914395779712e-02 -1.0312703318473286e+00 -5.9501641720602988e-02
-9.7999999999999812e+00 +9.1380515708186305e+00 +0.0000000000000000e+00 -9.7999983341915886e+00 +1.1431801161149040e-02 -1.0312691096081985e+00 -5.9499515011545906e-02
-9.8999999999999808e+00 +9.1379500645413199e+00 +0.0000000000000000e+00 -9.8999982826735113e+00 +1.1431683303083626e-02 -1.0312678146280054e+00 -5.9497402261549065e-02
-9.9999999999999805e+00 +9.1378475277101447e+00 +0.0000000000000000e+00 -9.9999982301040458e+00 +1.1431561584792914e-02 -1.0312664466998254e+00 -5.9495305133849812e-02
-1.0099999999999980e+01 +9.1377439603264836e+00 +0.0000000000000000e+00 -1.0099998176472575e+01 +1.1431436769377671e-02 -1.0312650056168957e+00 -5.9493225291728583e-02
-1.0199999999999980e+01 +9.1376393623917860e+00 +0.0000000000000000e+00 -1.0199998121768477e+01 +1.1431309619827077e-02 -1.0312634911726248e+00 -5.9491164398509690e-02
-1.0299999999999979e+01 +9.1375337339075777e+00 +0.0000000000000000e+00 -1.0299998065981136e+01 +1.1431180899015866e-02 -1.0312619031605972e+00 -5.9489124117562339e-02
-1.0399999999999979e+01 +9.1374270748754576e+00 +0.0000000000000000e+00 -1.0399998009099932e+01 +1.1431051369701422e-02 -1.0312602413745842e+00 -5.9487106112301701e-02
-1.0499999999999979e+01 +9.1373193852970971e+00 +0.0000000000000000e+00 -1.0499997951114246e+01 +1.1430921794520894e-02 -1.0312585056085517e+00 -5.9485112046189857e-02
-1.0599999999999978e+01 +9.1372106651742424e+00 +0.0000000000000000e+00 -1.0599997892013461e+01 +1.1430792935988303e-02 -1.0312566956566676e+00 -5.9483143582736681e-02
-1.0699999999999978e+01 +9.1371009145087125e+00 +0.0000000000000000e+00 -1.0699997831786957e+01 +1.1430665556491670e-02 -1.0312548113133073e+00 -5.9481202385500961e-02
-1.0799999999999978e+01 +9.1369901333024028e+00 +0.0000000000000000e+00 -1.0799997770424117e+01 +1.1430540418290086e-02 -1.0312528523730673e+00 -5.9479290118091256e-02
-1.0899999999999977e+01 +9.1368783215572833e+00 +0.0000000000000000e+00 -1.0899997707914324e+01 +1.1430418283510858e-02 -1.0312508186307687e+00 -5.9477408444166990e-02
-1.0999999999999977e+01 +9.1367654792753985e+00 +0.0000000000000000e+00 -1.0999997644246958e+01 +1.1430299914146591e-02 -1.0312487098814676e+00 -5.9475559027439298e-02
-1.1099999999999977e+01 +9.1366516064588659e+00 +0.0000000000000000e+00 -1.1099997579411403e+01 +1.1430186072052283e-02 -1.0312465259204617e+00 -5.9473743531672063e-02
-1.1199999999999976e+01 +9.1365367031098828e+00 +0.0000000000000000e+00 -1.1199997513397040e+01 +1.1430077518942452e-02 -1.0312442665432997e+00 -5.9471963620682876e-02
-1.1299999999999976e+01 +9.1364207692307176e+00 +0.0000000000000000e+00 -1.1299997446193254e+01 +1.1429975016388210e-02 -1.0312419315457886e+00 -5.9470220958343971e-02
-1.1399999999999975e+01 +9.1363038048237151e+00 +0.0000000000000000e+00 -1.1399997377789425e+01 +1.1429879325814385e-02 -1.0312395207240017e+00 -5.9468517208583198e-02
-1.1499999999999975e+01 +9.1361858098912982e+00 +0.0000000000000000e+00 -1.1499997308174938e+01 +1.1429791208496576e-02 -1.0312370338742876e+00 -5.9466854035384993e-02
-1.1599999999999975e+01 +9.1360667844359646e+00 +0.0000000000000000e+00 -1.1599997237339176e+01 +1.1429711139439084e-02 -1.0312344709966306e+00 -5.9465232937441881e-02
-1.1699999999999974e+01 +9.1359467284602864e+00 +0.0000000000000000e+00 -1.1699997165271521e+01 +1.1429638449045012e-02 -1.0312318329047647e+00 -5.9463654752034321e-02
