# multipoles
# s[mm] polynom_b[n=0][T/m^n] polynom_b[n=1][T/m^n] polynom_b[n=2][T/m^n] polynom_b[n=3][T/m^n] polynom_b[n=4][T/m^n] polynom_b[n=5][T/m^n] polynom_b[n=6][T/m^n] 
+0.0000000000000000e+00 -1.0344862096649012e+00 +2.2728137218123767e+00 +2.3280317758677299e+01 +7.7338682442190338e+02 -2.7110620814683545e+04 -4.1914004766061422e+06 +6.7276556568437293e+07 
+1.0000000000000001e-01 -1.0344867944629377e+00 +2.2725647294545483e+00 +2.3286174619038370e+01 +7.8201445244452998e+02 -2.7306596453604056e+04 -4.2430953377802093e+06 +6.8063695569777012e+07 
+2.0000000000000001e-01 -1.0344873565420885e+00 +2.2723269654175384e+00 +2.3288464217787979e+01 +7.9018645890914991e+02 -2.7437429492119289e+04 -4.2919315029270975e+06 +6.8565618805019587e+07 
+3.0000000000000004e-01 -1.0344878892749541e+00 +2.2721006645199675e+00 +2.3286712717038700e+01 +7.9789022561739080e+02 -2.7494496721726911e+04 -4.3378366566788545e+06 +6.8742596423934534e+07 
+4.0000000000000002e-01 -1.0344883860342786e+00 +2.2718860616044823e+00 +2.3280446300676747e+01 +8.0511313358279187e+02 -2.7469175346694883e+04 -4.3807384792814441e+06 +6.8554900457116678e+07 
+5.0000000000000000e-01 -1.0344888401929280e+00 +2.2716833915536507e+00 +2.3269191171774558e+01 +8.1184256256863603e+02 -2.7352842929993509e+04 -4.4205646439216360e+06 +6.7962804536017895e+07 
+5.9999999999999998e-01 -1.0344892466137687e+00 +2.2714927224867796e+00 +2.3252583609460345e+01 +8.1807371964453046e+02 -2.7138901418848560e+04 -4.4572923385894150e+06 +6.6936016355220489e+07 
+6.9999999999999996e-01 -1.0344896061164073e+00 +2.2713134491095626e+00 +2.3230700767482073e+01 +8.2383338497261877e+02 -2.6828889680313176e+04 -4.4910982792034950e+06 +6.5482242355576091e+07 
+7.9999999999999993e-01 -1.0344899210089851e+00 +2.2711447961947107e+00 +2.3203730189199838e+01 +8.2915629806207266e+02 -2.6426391234255763e+04 -4.5222094323481768e+06 +6.3618756943969898e+07 
+8.9999999999999991e-01 -1.0344901935997215e+00 +2.2709859885526296e+00 +2.3171859428681326e+01 +8.3407719715061376e+02 -2.5934989778463278e+04 -4.5508527569569843e+06 +6.1362835228337012e+07 
+9.9999999999999989e-01 -1.0344904261968819e+00 +2.2708362510332214e+00 +2.3135276045617907e+01 +8.3863081913512610e+02 -2.5358269085638862e+04 -4.5772552037944794e+06 +5.8731752511238471e+07 
+1.0999999999999999e+00 -1.0344906211087495e+00 +2.2706948085178320e+00 +2.3094167600703042e+01 +8.4285189977251696e+02 -2.4699812907733696e+04 -4.6016437164860889e+06 +5.5742783818335719e+07 
+1.2000000000000000e+00 -1.0344907806436192e+00 +2.2705608859361619e+00 +2.3048721654224245e+01 +8.4677517317073261e+02 -2.3963204941532149e+04 -4.6242452284483109e+06 +5.2413203712796137e+07 
+1.3000000000000000e+00 -1.0344909071097084e+00 +2.2704337082494761e+00 +2.2999125754057744e+01 +8.5043537226110664e+02 -2.3152028600757261e+04 -4.6452866655274602e+06 +4.8760285219411403e+07 
+1.4000000000000001e+00 -1.0344910028152507e+00 +2.2703125004684779e+00 +2.2945567446569225e+01 +8.5386722825253389e+02 -2.2269867211625413e+04 -4.6649949427011050e+06 +4.4801300721248463e+07 
+1.5000000000000002e+00 -1.0344910700683427e+00 +2.2701964876439122e+00 +2.2888234255822166e+01 +8.5710547087649081e+02 -2.1320303609584607e+04 -4.6835969653635966e+06 +4.0553520025472395e+07 
+1.6000000000000003e+00 -1.0344911111770643e+00 +2.2700848948685102e+00 +2.2827313699165746e+01 +8.6018482831281688e+02 -2.0306920441697883e+04 -4.7013196287869038e+06 +3.6034211820450939e+07 
+1.7000000000000004e+00 -1.0344911284492921e+00 +2.2699769472821898e+00 +2.2762993261778607e+01 +8.6314002701557365e+02 -1.9233299660692304e+04 -4.7183898169822665e+06 +3.1260641208624773e+07 
+1.8000000000000005e+00 -1.0344911241928574e+00 +2.2698718700705562e+00 +2.2695460415353281e+01 +8.6600579173709991e+02 -1.8103022881587061e+04 -4.7350344027357567e+06 +2.6250071413929008e+07 
+1.9000000000000006e+00 -1.0344911007153588e+00 +2.2697688884712552e+00 +2.2624902595699638e+01 +8.6881684531689393e+02 -1.6919670956811326e+04 -4.7514802462404808e+06 +2.1019761762660798e+07 
+2.0000000000000004e+00 -1.0344910603242505e+00 +2.2696672277628336e+00 +2.2551507210750572e+01 +8.7160790898306459e+02 -1.5686824112976255e+04 -4.7679541967314975e+06 +1.5586968296968948e+07 
+2.1000000000000005e+00 -1.0344910053267879e+00 +2.2695661132792577e+00 +2.2475461633758179e+01 +8.7441370192139675e+02 -1.4408061815294377e+04 -4.7846830899032177e+06 +9.9689431121054813e+06 
+2.2000000000000006e+00 -1.0344909380299849e+00 +2.2694647704044404e+00 +2.2396953197164500e+01 +8.7726894138508555e+02 -1.3086962650930223e+04 -4.8018937483369149e+06 +4.1829338078200193e+06 
+2.3000000000000007e+00 -1.0344908607406051e+00 +2.2693624245752844e+00 +2.2316169190604878e+01 +8.8020834260102333e+02 -1.1727104282788485e+04 -4.8198129808954066e+06 -1.7538167532856620e+06 
+2.4000000000000008e+00 -1.0344907757651722e+00 +2.2692583012786529e+00 +2.2233296861020950e+01 +8.8326661884439363e+02 -1.0332063443122248e+04 -4.8386675830585938e+06 -7.8240704979351377e+06 
+2.5000000000000009e+00 -1.0344906854098890e+00 +2.2691516260591560e+00 +2.2148523402021162e+01 +8.8647848115444560e+02 -8.9054157314321328e+03 -4.8586843350183349e+06 -1.4010595092803251e+07 
+2.6000000000000010e+00 -1.0344905918512171e+00 +2.2690419192635809e+00 +2.2062054702538035e+01 +8.8986691271594327e+02 -7.4509906097882895e+03 -4.8800132132831542e+06 -2.0295361799156357e+07 
+2.7000000000000011e+00 -1.0344904968513957e+00 +2.2689298710607999e+00 +2.1974177214133668e+01 +8.9340772939745216e+02 -5.9735700399938878e+03 -4.9024944562015161e+06 -2.6658053783197157e+07 
+2.8000000000000012e+00 -1.0344904020953043e+00 +2.2688164624146538e+00 +2.1885198984331698e+01 +8.9706485086325984e+02 -4.4781575445242597e+03 -4.9258899338437803e+06 -3.3078013743285071e+07 
+2.9000000000000012e+00 -1.0344903092680162e+00 +2.2687026742767311e+00 +2.1795428086378223e+01 +9.0080219690456045e+02 -2.9697571295605890e+03 -4.9499615160770928e+06 -3.9534582197020426e+07 
+3.0000000000000013e+00 -1.0344902200548574e+00 +2.2685894875624513e+00 +2.1705172627475587e+01 +9.0458368820641329e+02 -1.4533734505917760e+03 -4.9744710772448704e+06 -4.6007096669183649e+07 
+3.1000000000000014e+00 -1.0344901361413090e+00 +2.2684778831565091e+00 +2.1614740737708836e+01 +9.0837324618498099e+02 +6.5988387164180139e+01 -4.9991804952015961e+06 -5.2474892614281796e+07 
+3.2000000000000015e+00 -1.0344900592131303e+00 +2.2683688419025896e+00 +2.1524440585504703e+01 +9.1213479330951611e+02 +1.5833225322405242e+03 -5.0238516532483622e+06 -5.8917302001931421e+07 
+3.3000000000000016e+00 -1.0344899909563963e+00 +2.2682633445987230e+00 +2.1434580383799432e+01 +9.1583225325996500e+02 +3.0936222613258242e+03 -5.0482464411054300e+06 -6.5313652702662215e+07 
+3.4000000000000017e+00 -1.0344899330574517e+00 +2.2681623719873687e+00 +2.1345468384454389e+01 +9.1942955122300964e+02 +4.5918800777400456e+03 -5.0721267566552078e+06 -7.1643268936078951e+07 
+3.5000000000000018e+00 -1.0344898872029935e+00 +2.2680669047585944e+00 +2.1257412889111414e+01 +9.2289061380487829e+02 +6.0730875042053194e+03 -5.0952545054403562e+06 -7.7885470290962100e+07 
+3.6000000000000019e+00 -1.0344898550800383e+00 +2.2679779235370261e+00 +2.1170722246165479e+01 +9.2617936943690142e+02 +7.5322351295335538e+03 -5.1173916030980572e+06 -8.4019571917117998e+07 
+3.7000000000000020e+00 -1.0344898383760235e+00 +2.2678964088792313e+00 +2.1085704863402533e+01 +9.2925974847023758e+02 +8.9643123661953832e+03 -5.1382999759562453e+06 -9.0024883372999519e+07 
+3.8000000000000020e+00 -1.0344898387787389e+00 +2.2678233412668432e+00 +2.1002669202157840e+01 +9.3209568336307871e+02 +1.0364307543512547e+04 -5.1577415620814711e+06 -9.5880709022558510e+07 
+3.9000000000000021e+00 -1.0344898579764681e+00 +2.2677597010994051e+00 +2.0921923792563248e+01 +9.3465110894543500e+02 +1.1727207629947512e+04 -5.1754783129779780e+06 -1.0156634675174223e+08 
+4.0000000000000018e+00 -1.0344898976578780e+00 +2.2677064686926873e+00 +2.0843777222718323e+01 +9.3688996244663963e+02 +1.3047998420419650e+04 -5.1912721936795488e+06 -1.0706108881411874e+08 
+4.1000000000000014e+00 -1.0344899595121637e+00 +2.2676646242688556e+00 +2.0768538157133914e+01 +9.3877618381190575e+02 +1.4321664177154038e+04 -5.2048851846761908e+06 -1.1234422010028796e+08 
+4.2000000000000011e+00 -1.0344900452289933e+00 +2.2676351479552590e+00 +2.0696515329527710e+01 +9.4027371574910751e+02 +1.5543187773182313e+04 -5.2160792822118346e+06 -1.1739501884420659e+08 
+4.3000000000000007e+00 -1.0344901564985789e+00 +2.2676190197711557e+00 +2.0628017553669999e+01 +9.4134650413116026e+02 +1.6707550465577238e+04 -5.2246165006703222e+06 -1.2219275549265003e+08 
+4.4000000000000004e+00 -1.0344902950116814e+00 +2.2676172196331463e+00 +2.0563353723724759e+01 +9.4195849784808820e+02 +1.7809731890727897e+04 -5.2302588717386210e+06 -1.2671669268781942e+08 
+4.5000000000000000e+00 -1.0344904624596305e+00 +2.2676307273356757e+00 +2.0502832817873760e+01 +9.4207364938778915e+02 +1.8844709986142450e+04 -5.2327684483103389e+06 -1.3094608492202289e+08 
+4.5999999999999996e+00 -1.0344906607035054e+00 +2.2676600783528436e+00 +2.0446747328481131e+01 +9.4166693041019266e+02 +1.9807623406698040e+04 -5.2319720807157420e+06 -1.3486052764955765e+08 
+4.6999999999999993e+00 -1.0344908919916622e+00 +2.2677040446501571e+00 +2.0395307130583092e+01 +9.4075805287178446e+02 +2.0694471909152118e+04 -5.2279608767889831e+06 -1.3844147521098438e+08 
+4.7999999999999989e+00 -1.0344911585963528e+00 +2.2677609600522035e+00 +2.0348697249325934e+01 +9.3937811529878479e+02 +2.1501522274747356e+04 -5.2208936490145950e+06 -1.4167094947930914e+08 
+4.8999999999999986e+00 -1.0344914627894366e+00 +2.2678291583389112e+00 +2.0307102672686817e+01 +9.3755821757369597e+02 +2.2225042034044494e+04 -5.2109292176932851e+06 -1.4453097635749543e+08 
+4.9999999999999982e+00 -1.0344918068423239e+00 +2.2679069732593820e+00 +2.0270708344381557e+01 +9.3532946041807747e+02 +2.2861299615177784e+04 -5.1982264073498966e+06 -1.4700358656483373e+08 
+5.0999999999999979e+00 -1.0344921930259601e+00 +2.2679927385214045e+00 +2.0239699162390444e+01 +9.3272294572295925e+02 +2.3406564375988204e+04 -5.1829440487043345e+06 -1.4907081581439194e+08 
+5.1999999999999975e+00 -1.0344926236107646e+00 +2.2680847877968571e+00 +2.0214259972107090e+01 +9.2976977637647622e+02 +2.3857106737752911e+04 -5.1652409776321910e+06 -1.5071470547705883e+08 
+5.2999999999999972e+00 -1.0344931008666778e+00 +2.2681814547199166e+00 +2.0194575572914498e+01 +9.2650105635227408e+02 +2.4209198055511104e+04 -5.1452760357510895e+06 -1.5191730195902380e+08 
+5.3999999999999968e+00 -1.0344936270630591e+00 +2.2682810728797391e+00 +2.0180830704623521e+01 +9.2294789088574169e+02 +2.4459110893314770e+04 -5.1232080713476641e+06 -1.5266065808018899e+08 
+5.4999999999999964e+00 -1.0344942044686813e+00 +2.2683819758352630e+00 +2.0173210049174347e+01 +9.1914138609042573e+02 +2.4603118978036193e+04 -5.0991959372527599e+06 -1.5292683282517537e+08 
+5.5999999999999961e+00 -1.0344948353517061e+00 +2.2684824970942854e+00 +2.0171898226553456e+01 +9.1511264955653985e+02 +2.4637497291346615e+04 -5.0733984942974001e+06 -1.5269789183636326e+08 
+5.6999999999999957e+00 -1.0344955219796623e+00 +2.2685809701293227e+00 +2.0177079792957599e+01 +9.1089278989226636e+02 +2.4558522103457894e+04 -5.0459746086329287e+06 -1.5195590758415729e+08 
+5.7999999999999954e+00 -1.0344962666193807e+00 +2.2686757283708583e+00 +2.0188939233336175e+01 +9.0651291692533880e+02 +2.4362471117536628e+04 -5.0170831529021524e+06 -1.5068296007607460e+08 
+5.8999999999999950e+00 -1.0344970715370081e+00 +2.2687651052054334e+00 +2.0207660963932391e+01 +9.0200414177524897e+02 +2.4045623422007255e+04 -4.9868830067064483e+06 -1.4886113664573723e+08 
+5.9999999999999947e+00 -1.0344979389979456e+00 +2.2688474339758851e+00 +2.0233429324081033e+01 +8.9739757684533936e+02 +2.3604259654168745e+04 -4.9555330565376459e+06 -1.4647253276431322e+08 
+6.0999999999999943e+00 -1.0344988712668299e+00 +2.2689210479831536e+00 +2.0266428574955906e+01 +8.9272433578074265e+02 +2.3034662024530866e+04 -4.9231921955534732e+06 -1.4349925217374927e+08 
+6.1999999999999940e+00 -1.0344998706075401e+00 +2.2689842804811091e+00 +2.0306842901325549e+01 +8.8801553361835090e+02 +2.2333114282559574e+04 -4.8900193244382245e+06 -1.3992340673498607e+08 
+6.2999999999999936e+00 -1.0345009392830751e+00 +2.2690354646845230e+00 +2.0354856395961960e+01 +8.8330228656486167e+02 +2.1495902021377220e+04 -4.8561733501218921e+06 -1.3572711791268668e+08 
+6.3999999999999932e+00 -1.0345020795556414e+00 +2.2690729337552105e+00 +2.0410653071189596e+01 +8.7861571240632782e+02 +2.0519312458696786e+04 -4.8218131881790664e+06 -1.3089251575063732e+08 
+6.4999999999999929e+00 -1.0345032936864618e+00 +2.2690950207756071e+00 +2.0474416831717331e+01 +8.7398693172278854e+02 +1.9399635049968671e+04 -4.7870977689927332e+06 -1.2540174192905642e+08 
+6.5999999999999925e+00 -1.0345045823419710e+00 +2.2691004777550643e+00 +2.0546187395038796e+01 +8.6944215039624430e+02 +1.8135914583953818e+04 -4.7521666552201770e+06 -1.1924988644448158e+08 
+6.6999999999999922e+00 -1.0345059402598200e+00 +2.2690898715365173e+00 +2.0625456211496850e+01 +8.6498323352575289e+02 +1.6737373355480766e+04 -4.7170571063966230e+06 -1.1247927292046937e+08 
+6.7999999999999918e+00 -1.0345073608029147e+00 +2.2690642544303468e+00 +2.0711583422664255e+01 +8.6060498615550898e+02 +1.5215602284120427e+04 -4.6817756719917133e+06 -1.0514307447730206e+08 
+6.8999999999999915e+00 -1.0345088373346343e+00 +2.2690246789444299e+00 +2.0803929218143644e+01 +8.5630220659525264e+02 +1.3582191201498679e+04 -4.6463288560522590e+06 -9.7294458050332665e+07 
+6.9999999999999911e+00 -1.0345103632187358e+00 +2.2689721978027562e+00 +2.0901853823019454e+01 +8.5206968561561189e+02 +1.1848729114436952e+04 -4.6107231124314172e+06 -8.8986585639998332e+07 
+7.0999999999999908e+00 -1.0345119318194254e+00 +2.2689078639481450e+00 +2.1004717506991614e+01 +8.4790220634718798e+02 +1.0026804020516653e+04 -4.5749648440673631e+06 -8.0272613376908258e+07 
+7.1999999999999904e+00 -1.0345135365013627e+00 +2.2688327305611473e+00 +2.1111880582680005e+01 +8.4379454370772237e+02 +8.1280029404224006e+03 -4.5390603994965721e+06 -7.1205691641199306e+07 
+7.2999999999999901e+00 -1.0345151706296727e+00 +2.2687478510519674e+00 +2.1222703408110707e+01 +8.3974146455508412e+02 +6.1639118577286108e+03 -4.5030160734380428e+06 -6.1838964717316084e+07 
+7.3999999999999897e+00 -1.0345168275699641e+00 +2.2686542790823521e+00 +2.1336546387292046e+01 +8.3573772703984469e+02 +4.1461157058749150e+03 -4.4668381029028520e+06 -5.2225570690403201e+07 
+7.4999999999999893e+00 -1.0345185006884015e+00 +2.2685530685712716e+00 +2.1452769978804454e+01 +8.3177808040841603e+02 +2.0861981990478266e+03 -4.4305326658915654e+06 -4.2418640601367973e+07 
+7.5999999999999890e+00 -1.0345201833516506e+00 +2.2684452736991827e+00 +2.1570734688616835e+01 +8.2785726481181575e+02 -4.2580432238327894e+00 -4.3941058800048968e+06 -3.2471298971686918e+07 
+7.6999999999999886e+00 -1.0345218689269455e+00 +2.2683319489183935e+00 +2.1689801077623088e+01 +8.2397001100318039e+02 -2.1136716402588895e+03 -4.3575638006014945e+06 -2.2436663088800415e+07 
+7.7999999999999883e+00 -1.0345235507820927e+00 +2.2682141489651562e+00 +2.1809329761308124e+01 +8.2011103990640754e+02 -4.2304624501749377e+03 -4.3209124179779813e+06 -1.2367842959048124e+07 
+7.8999999999999879e+00 -1.0345252222855026e+00 +2.2680929288649292e+00 +2.1928681413417621e+01 +8.1627506244993424e+02 -6.3430516521284180e+03 -4.2841576562890150e+06 -2.3179408491398781e+06 
+7.9999999999999876e+00 -1.0345268768061791e+00 +2.2679693439365520e+00 +2.2047216763549237e+01 +8.1245677940079179e+02 -8.4398616976478716e+03 -4.2473053723784341e+06 +7.6599484989220211e+06 
+8.0999999999999872e+00 -1.0345285077138247e+00 +2.2678444498082277e+00 +2.2164296610142255e+01 +8.0865088085410855e+02 -1.0509316573620779e+04 -4.2103613525846722e+06 +1.7512739198582929e+07 
+8.1999999999999869e+00 -1.0345301083787086e+00 +2.2677193024263214e+00 +2.2279281802445148e+01 +8.0485204594997037e+02 -1.2539841454460508e+04 -4.1733313109547761e+06 +2.7187352575445261e+07 
+8.2999999999999865e+00 -1.0345316721718587e+00 +2.2675949580530816e+00 +2.2391533265492598e+01 +8.0105494289083049e+02 -1.4519863198679994e+04 -4.1362208891102574e+06 +3.6630719621944338e+07 
+8.3999999999999861e+00 -1.0345331924649677e+00 +2.2674724732907752e+00 +2.2500411985753047e+01 +7.9725422820269534e+02 -1.6437810067082773e+04 -4.0990356517801452e+06 +4.5789779660389170e+07 
+8.4999999999999858e+00 -1.0345346626306586e+00 +2.2673529051991239e+00 +2.2605279060813462e+01 +7.9344454206980186e+02 -1.8282112960125367e+04 -4.0617810588996336e+06 +5.4611486953039378e+07 
+8.5999999999999854e+00 -1.0345360772317342e+00 +2.2672374387765308e+00 +2.2705618404672471e+01 +7.8961241286353265e+02 -2.0043614670049374e+04 -4.0244111880003447e+06 +6.3054362479889914e+07 
+8.6999999999999851e+00 -1.0345374350464196e+00 +2.2671276129142233e+00 +2.2801316873011857e+01 +7.8571697360248857e+02 -2.1720464075244498e+04 -3.9867021926359334e+06 +7.1110461343330801e+07 
+8.7999999999999847e+00 -1.0345387357848406e+00 +2.2670250323687853e+00 +2.2892342732450597e+01 +7.8171107010516596e+02 -2.3312113602974248e+04 -3.9483884042788874e+06 +7.8777352848346904e+07 
+8.8999999999999844e+00 -1.0345399791576380e+00 +2.2669313018101058e+00 +2.2978664279993055e+01 +7.7754755181639996e+02 -2.4818015528882959e+04 -3.9092041859684736e+06 +8.6052602510647252e+07 
+8.9999999999999840e+00 -1.0345411648759948e+00 +2.2668480257590153e+00 +2.3060249850915664e+01 +7.7317927458840870e+02 -2.6237622259947493e+04 -3.8688839501274768e+06 +9.2933773717720941e+07 
+9.0999999999999837e+00 -1.0345422926516861e+00 +2.2667768085822120e+00 +2.3137067824202493e+01 +7.6855910089933070e+02 -2.7570386422952019e+04 -3.8271621602374841e+06 +9.9418428079994664e+07 
+9.1999999999999833e+00 -1.0345433621970752e+00 +2.2667192544843080e+00 +2.3209086621520946e+01 +7.6363990016733567e+02 -2.8815760828987070e+04 -3.7837733331011105e+06 +1.0550412518322532e+08 
+9.2999999999999829e+00 -1.0345443732251531e+00 +2.2666769675051177e+00 +2.3276274711600600e+01 +7.5837454888396894e+02 -2.9973198540876117e+04 -3.7384520399854043e+06 +1.1118842283572669e+08 
+9.3999999999999826e+00 -1.0345453254495112e+00 +2.2666515515087737e+00 +2.3338600605426699e+01 +7.5271593101802512e+02 -3.1042152761843350e+04 -3.6909329094109829e+06 +1.1646887645047893e+08 
+9.4999999999999822e+00 -1.0345462185843877e+00 +2.2666446101852182e+00 +2.3396032861876151e+01 +7.4661693802541720e+02 -3.2022076927279297e+04 -3.6409506275792746e+06 +1.2134303940755709e+08 
+9.5999999999999819e+00 -1.0345470523446572e+00 +2.2666577470350466e+00 +2.3448540085079699e+01 +7.4003046938475620e+02 -3.2912424635779556e+04 -3.5882399419422075e+06 +1.2580846264150237e+08 
+9.6999999999999815e+00 -1.0345478264458818e+00 +2.2666925653699503e+00 +2.3496090930228267e+01 +7.3290943263137888e+02 -3.3712649742284390e+04 -3.5325356617574017e+06 +1.2986269500576234e+08 
+9.7999999999999812e+00 -1.0345485406042594e+00 +2.2667506683040175e+00 +2.3538654096466953e+01 +7.2520674371235680e+02 -3.4422206209006486e+04 -3.4735726606341046e+06 +1.3350328249315667e+08 
+9.8999999999999808e+00 -1.0345491945367244e+00 +2.2668336587506168e+00 +2.3576198339083845e+01 +7.1687532711303197e+02 -3.5040548318775989e+04 -3.4110858775748857e+06 +1.3672776916656789e+08 
+9.9999999999999805e+00 -1.0345497879608556e+00 +2.2669431394111550e+00 +2.3608692455932157e+01 +7.0786811628447026e+02 -3.5567130395412678e+04 -3.3448103199576759e+06 +1.3953369573922744e+08 
+1.0099999999999980e+01 -1.0345503205949820e+00 +2.2670807127732369e+00 +2.3636105301073311e+01 +6.9813805375492791e+02 -3.6001407051895680e+04 -3.2744810645441352e+06 +1.4191860069267973e+08 
