# multipoles
# s[mm] polynom_b[n=0][T/m^n] polynom_b[n=1][T/m^n] polynom_b[n=2][T/m^n] polynom_b[n=3][T/m^n] polynom_b[n=4][T/m^n] polynom_b[n=5][T/m^n] polynom_b[n=6][T/m^n] 
+0.0000000000000000e+00 -1.0337119406931441e+00 +2.2956912974055519e+00 +2.7084947565998426e+01 -1.6148067646804967e+02 -1.3381693723047059e+05 +1.2239271598642699e+06 +6.8825183686487389e+08 
+1.0000000000000001e-01 -1.0337146705388558e+00 +2.2957628152030267e+00 +2.6978658332169328e+01 -1.5743834683903066e+02 -1.3112971972618692e+05 +1.1981090387552122e+06 +6.7463414548321331e+08 
+2.0000000000000001e-01 -1.0337172315772567e+00 +2.2958270538829710e+00 +2.6862437444731832e+01 -1.5322883742950657e+02 -1.2828778652047731e+05 +1.1715790095349320e+06 +6.6033654152405465e+08 
+2.9999999999999999e-01 -1.0337196138013185e+00 +2.2958840303745385e+00 +2.6735715791908337e+01 -1.4885584449648226e+02 -1.2528215995941107e+05 +1.1443868514516929e+06 +6.4531758212824297e+08 
+4.0000000000000002e-01 -1.0337218072039938e+00 +2.2959337616831084e+00 +2.6597924262042437e+01 -1.4432306611684717e+02 -1.2210386242794144e+05 +1.1165823539001681e+06 +6.2953582469104588e+08 
+5.0000000000000000e-01 -1.0337238017781587e+00 +2.2959762648991076e+00 +2.6448493736914589e+01 -1.3963420238881406e+02 -1.1874391621618181e+05 +1.0882153175498678e+06 +6.1294982620595813e+08 
+5.9999999999999998e-01 -1.0337255932192946e+00 +2.2960115700022783e+00 +2.6287146292514784e+01 -1.3479452390924394e+02 -1.1519749761060595e+05 +1.0593435954530658e+06 +5.9553590604843235e+08 
+6.9999999999999996e-01 -1.0337272000367961e+00 +2.2960397644939117e+00 +2.6114769185615028e+01 -1.2981561119664883e+02 -1.1147639890924019e+05 +1.0300566351593181e+06 +5.7734143199360156e+08 
+8.0000000000000004e-01 -1.0337286464443816e+00 +2.2960609518439159e+00 +2.5932541068289979e+01 -1.2471063182262762e+02 -1.0759656648850364e+05 +1.0004516434242681e+06 +5.5843153431901574e+08 
+9.0000000000000002e-01 -1.0337299566556875e+00 +2.2960752355428564e+00 +2.5741640586809130e+01 -1.1949275411042005e+02 -1.0357394664576439e+05 +9.7062583242101793e+05 +5.3887134293728781e+08 
+1.0000000000000000e+00 -1.0337311548843717e+00 +2.2960827190893891e+00 +2.5543246393792892e+01 -1.1417514693018752e+02 -9.9424485842154667e+04 +9.4067641891808272e+05 +5.1872598857529199e+08 
+1.1000000000000001e+00 -1.0337322653440695e+00 +2.2960835059713740e+00 +2.5338537145488960e+01 -1.0877097929898629e+02 -9.5164130644195102e+04 +9.1070062238268205e+05 +4.9806060246844065e+08 
+1.2000000000000000e+00 -1.0337333122483523e+00 +2.2960776996554997e+00 +2.5128691494821705e+01 -1.0329342024076628e+02 -9.0808827593325186e+04 +8.8079566454022541e+05 +4.7694031573323935e+08 
+1.3000000000000000e+00 -1.0337343198108224e+00 +2.2960654035678103e+00 +2.4914888105765431e+01 -9.7755638355217911e+01 -8.6374523481725511e+04 +8.5105876723545766e+05 +4.5543026067810696e+08 
+1.3999999999999999e+00 -1.0337353122450492e+00 +2.2960467210823374e+00 +2.4698305644612748e+01 -9.2170801657768934e+01 -8.1877165185687409e+04 +8.2158715192417975e+05 +4.3359556999689949e+08 
+1.5000000000000000e+00 -1.0337363137646134e+00 +2.2960217555008731e+00 +2.4480122785295901e+01 -8.6552077147245342e+01 -7.7332699765354017e+04 +7.9247803754891304e+05 +4.1150137723233706e+08 
+1.6000000000000001e+00 -1.0337373485830754e+00 +2.2959906100447225e+00 +2.4261518207984629e+01 -8.0912630703524727e+01 -7.2757074442843004e+04 +7.6382864031169075e+05 +3.8921281667217404e+08 
+1.7000000000000000e+00 -1.0337384409140216e+00 +2.2959533878289999e+00 +2.4043670603836226e+01 -7.5265626498270095e+01 -6.8166236691032595e+04 +7.3573617063331499e+05 +3.6679502375882512e+08 
+1.8000000000000000e+00 -1.0337396149710056e+00 +2.2959101918569029e+00 +2.3827758667263957e+01 -6.9624226997400257e+01 -6.3576134083505254e+04 +7.0829783359713410e+05 +3.4431313435790545e+08 
+1.8999999999999999e+00 -1.0337408949676334e+00 +2.2958611250039320e+00 +2.3614961109443922e+01 -6.4001592629585389e+01 -5.9002714556752217e+04 +6.8161082735777239e+05 +3.2183228600771600e+08 
+2.0000000000000000e+00 -1.0337423051175192e+00 +2.2958062899961447e+00 +2.3406456651301752e+01 -5.8410881329027539e+01 -5.4461926278781466e+04 +6.5577234091518295e+05 +2.9941761729308712e+08 
+2.1000000000000001e+00 -1.0337438696342773e+00 +2.2957457893981723e+00 +2.3203424024144073e+01 -5.2865248328215976e+01 -4.9969717655739521e+04 +6.3087955327634700e+05 +2.7713426785033292e+08 
+2.2000000000000002e+00 -1.0337456127315510e+00 +2.2956797256016968e+00 +2.3007041972874390e+01 -4.7377845989640250e+01 -4.5542037396842992e+04 +6.0702963290254446e+05 +2.5504737867498302e+08 
+2.2999999999999998e+00 -1.0337475586230205e+00 +2.2956082008027434e+00 +2.2818489257031203e+01 -4.1961823277476462e+01 -4.1194834533296540e+04 +5.8431973494836653e+05 +2.3322209220272553e+08 
+2.3999999999999999e+00 -1.0337497315223920e+00 +2.2955313169952749e+00 +2.2638944652109998e+01 -3.6630325744338840e+01 -3.6944058448212687e+04 +5.6284700166729686e+05 +2.1172355245176834e+08 
+2.5000000000000000e+00 -1.0337521556434055e+00 +2.2954491759478266e+00 +2.2469586948293067e+01 -3.1396494955929693e+01 -3.2805658843933532e+04 +5.4270855913483619e+05 +1.9061690482150143e+08 
+2.6000000000000001e+00 -1.0337548478111704e+00 +2.2953618017485455e+00 +2.2311257527996084e+01 -2.6267459553954463e+01 -2.8791254070631421e+04 +5.2395309635055915e+05 +1.6994997493269914e+08 
+2.7000000000000002e+00 -1.0337577952784678e+00 +2.2952688200116245e+00 +2.2163448340708506e+01 -2.1224404276216266e+01 -2.4895279101962773e+04 +5.0642906640884763e+05 +1.4970258024419618e+08 
+2.7999999999999998e+00 -1.0337609779019727e+00 +2.2951697339203165e+00 +2.2025314411893202e+01 -1.6241512041694055e+01 -2.1107916693801966e+04 +4.8993291537638649e+05 +1.2983788890962824e+08 
+2.8999999999999999e+00 -1.0337643755382318e+00 +2.2950640466604399e+00 +2.1896010748844613e+01 -1.1292964836256370e+01 -1.7419349242044482e+04 +4.7426108056176180e+05 +1.1031906738742895e+08 
+3.0000000000000000e+00 -1.0337679680435619e+00 +2.2949512614390235e+00 +2.1774692331979949e+01 -6.3529440701209117e+00 -1.3819758605731542e+04 +4.5920999202245532e+05 +9.1109279585332096e+07 
+3.1000000000000001e+00 -1.0337717352741114e+00 +2.2948308814830995e+00 +2.1660514117631291e+01 -1.3956303427865842e+00 -1.0299326154275041e+04 +4.4457607052743231e+05 +7.2171687088862926e+07 
+3.2000000000000002e+00 -1.0337756570857768e+00 +2.2947024100614488e+00 +2.1552631027471563e+01 +3.6047961164235804e+00 -6.8482325588425956e+03 +4.3015572951462533e+05 +5.3469448161868989e+07 
+3.2999999999999998e+00 -1.0337797133342459e+00 +2.2945653504867551e+00 +2.1450197955450466e+01 +8.6741555928272103e+00 -3.4566579249518263e+03 +4.1574537362857268e+05 +3.4965718400754586e+07 
+3.3999999999999999e+00 -1.0337838838749602e+00 +2.2944192061233792e+00 +2.1352369759939020e+01 +1.3838268849194435e+01 -1.1478163168061680e+02 +4.0114139831129013e+05 +1.6623649954401866e+07 
+3.5000000000000000e+00 -1.0337881485630966e+00 +2.2942634803990427e+00 +2.1258301261195474e+01 +1.9122956984048137e+01 +3.1872177189298086e+03 +3.8614019001301267e+05 -1.5936087066291871e+06 
+3.6000000000000001e+00 -1.0337924872535755e+00 +2.2940976768133736e+00 +2.1167147243607506e+01 +2.4554041393118563e+01 +6.4591622620769385e+03 +3.7053812577130704e+05 -1.9722912589097321e+07 
+3.7000000000000002e+00 -1.0337968798010035e+00 +2.2939212989517315e+00 +2.1078062445466468e+01 +3.0157343547836849e+01 +9.7108750737103237e+03 +3.5413157391001884e+05 -3.7801121153751411e+07 
+3.7999999999999998e+00 -1.0338013060596889e+00 +2.2937338504806384e+00 +2.0990201560711117e+01 +3.5958685336514534e+01 +1.2952180142305422e+04 +3.3671689140167728e+05 -5.5865098177098140e+07 
+3.8999999999999999e+00 -1.0338057458836232e+00 +2.2935348351750462e+00 +2.0902719237986638e+01 +4.1983888474612449e+01 +1.6192902388713097e+04 +3.1809042668832489e+05 -7.3951711832198605e+07 
+4.0000000000000000e+00 -1.0338101791265126e+00 +2.2933237569105609e+00 +2.0814770079276382e+01 +4.8258774911431885e+01 +1.9442867702492953e+04 +2.9804851668299781e+05 -9.2097834873248667e+07 
+4.0999999999999996e+00 -1.0338145856416197e+00 +2.2931001196847181e+00 +2.0725508626207738e+01 +5.4809166434591987e+01 +2.2711903199777771e+04 +2.7638748845767841e+05 -1.1034034583890958e+08 
+4.2000000000000002e+00 -1.0338189452819440e+00 +2.2928634276197304e+00 +2.0634089374602180e+01 +6.1660884749443014e+01 +2.6009836961731307e+04 +2.5290365819004853e+05 -1.2871612782773773e+08 
+4.2999999999999998e+00 -1.0338232379000438e+00 +2.2926131849739502e+00 +2.0539666757322752e+01 +6.8839751395683919e+01 +2.9346498355885491e+04 +2.2739333093037573e+05 -1.4726207000216621e+08 
+4.4000000000000004e+00 -1.0338274433481360e+00 +2.2923488961494911e+00 +2.0441395151958414e+01 +7.6371587674623242e+01 +3.2731717906156799e+04 +1.9965280051501514e+05 -1.6601506699194559e+08 
+4.5000000000000000e+00 -1.0338315414779611e+00 +2.2920700657078221e+00 +2.0338428867716022e+01 +8.4282214242979791e+01 +3.6175327514095683e+04 +1.6947835288889555e+05 -1.8501201973520288e+08 
+4.5999999999999996e+00 -1.0338355157941603e+00 +2.2917764900567281e+00 +2.0230127527213046e+01 +9.2587723339729763e+01 +3.9684312648966385e+04 +1.3673471668089816e+05 -2.0427768723412290e+08 
+4.7000000000000002e+00 -1.0338393643554706e+00 +2.2914691654931802e+00 +2.0116647379915683e+01 +1.0126437736353290e+02 +4.3254986195424739e+04 +1.0156010269803408e+05 -2.2379288624085122e+08 
+4.7999999999999998e+00 -1.0338430888398498e+00 +2.2911494006207622e+00 +1.9998336823615709e+01 +1.1027808002431473e+02 +4.6881189955392794e+04 +6.4162344203619672e+04 -2.4352868401689500e+08 
+4.9000000000000004e+00 -1.0338466909255832e+00 +2.2908185040547440e+00 +1.9875544294066724e+01 +1.1959473486829363e+02 +5.0556765011257892e+04 +2.4749275171427842e+04 -2.6345614442335957e+08 
+5.0000000000000000e+00 -1.0338501722913149e+00 +2.2904777844142599e+00 +1.9748618272134266e+01 +1.2918024563862210e+02 +5.4275551567516872e+04 -1.6471272139101031e+04 -2.8354632708861417e+08 
+5.0999999999999996e+00 -1.0338535346159894e+00 +2.2901285503172142e+00 +1.9617907275158203e+01 +1.3900051638756241e+02 +5.8031389110277159e+04 -5.9291467719339598e+04 -3.0377028815679401e+08 
+5.2000000000000002e+00 -1.0338567795790163e+00 +2.2897721103801580e+00 +1.9483759878192988e+01 +1.4902145145157078e+02 +6.1818115995863554e+04 -1.0350348355087145e+05 -3.2409907831290871e+08 
+5.2999999999999998e+00 -1.0338599088601994e+00 +2.2894097732164767e+00 +1.9346524705747278e+01 +1.5920895547911346e+02 +6.5629569610462961e+04 -1.4889949363924391e+05 -3.4450374355086750e+08 
+5.4000000000000004e+00 -1.0338629241397708e+00 +2.2890428474416189e+00 +1.9206550434421153e+01 +1.6952893322393106e+02 +6.9459586318535003e+04 -1.9527167264562380e+05 -3.6495532492951012e+08 
+5.5000000000000000e+00 -1.0338658270984082e+00 +2.2886726416688892e+00 +1.9064185797427907e+01 +1.7994728966275198e+02 +7.3302001373626728e+04 -2.4241219648760746e+05 -3.8542485813959956e+08 
+5.5999999999999996e+00 -1.0338686194173410e+00 +2.2883004645076239e+00 +1.8919779594405124e+01 +1.9042992999296371e+02 +7.7150648727226231e+04 -2.9011324217810086e+05 -4.0588337258544129e+08 
+5.7000000000000002e+00 -1.0338713027782533e+00 +2.2879276245665832e+00 +1.8773680682995810e+01 +2.0094275951149436e+02 +8.0999361189943083e+04 -3.3816698697395460e+05 -4.2630189215936613e+08 
+5.7999999999999998e+00 -1.0338738788634341e+00 +2.2875554304456620e+00 +1.8626237995150575e+01 +2.1145168382121537e+02 +8.4841970116416778e+04 -3.8636560947426764e+05 -4.4665143372855443e+08 
+5.9000000000000004e+00 -1.0338763493556351e+00 +2.2871851907494318e+00 +1.8477800520276986e+01 +2.2192260841298517e+02 +8.8672305730491382e+04 -4.3450128705894970e+05 -4.6690300869966274e+08 
+6.0000000000000000e+00 -1.0338787159382832e+00 +2.2868182140714715e+00 +1.8328717332365837e+01 +2.3232143908195184e+02 +9.2484196596987080e+04 -4.8236619817342266e+05 -4.8702762047293371e+08 
+6.0999999999999996e+00 -1.0338809802953890e+00 +2.2864558090042157e+00 +1.8179337575773054e+01 +2.4261408159453973e+02 +9.6271469896953015e+04 -5.2975252024855802e+05 -5.0699626577106595e+08 
+6.2000000000000002e+00 -1.0338831441116119e+00 +2.2860992841347225e+00 +1.8030010478030135e+01 +2.5276644181146935e+02 +1.0002795118188919e+05 -5.7645243031634868e+05 -5.2677993346250111e+08 
+6.2999999999999998e+00 -1.0338852090722201e+00 +2.2857499480433772e+00 +1.7881085340421958e+01 +2.6274442567101551e+02 +1.0374746454828941e+05 -6.2225810478183290e+05 -5.4634960538604212e+08 
+6.4000000000000004e+00 -1.0338871768632496e+00 +2.2854091093076967e+00 +1.7732911560002677e+01 +2.7251393903711767e+02 +1.0742383221457465e+05 -6.6696171836233290e+05 -5.6567625432544279e+08 
+6.5000000000000000e+00 -1.0338890491713657e+00 +2.2850780764793184e+00 +1.7585838609183369e+01 +2.8204088821207336e+02 +1.1105087490944566e+05 -7.1035544800132024e+05 -5.8473084596604562e+08 
+6.5999999999999996e+00 -1.0338908282926325e+00 +2.2847579526720256e+00 +1.7440159092513170e+01 +2.9129348098668441e+02 +1.1462360533153833e+05 -7.5224213588920853e+05 -6.0348997229344428e+08 
+6.7000000000000002e+00 -1.0338925190512238e+00 +2.2844491835401524e+00 +1.7295965856370891e+01 +3.0024647279250684e+02 +1.1814138540549122e+05 -7.9245563247198705e+05 -6.2195070267964208e+08 
+6.7999999999999998e+00 -1.0338941269224238e+00 +2.2841520895248899e+00 +1.7153307443123946e+01 +3.0887560911002828e+02 +1.2160458286501101e+05 -8.3083490829988173e+05 -6.4011482461469018e+08 
+6.9000000000000004e+00 -1.0338956573819402e+00 +2.2838669911185505e+00 +1.7012232462901665e+01 +3.1715663251867147e+02 +1.2501356416602597e+05 -8.6721891456156608e+05 -6.5798411976437271e+08 
+7.0000000000000000e+00 -1.0338971159058374e+00 +2.2835942088762264e+00 +1.6872789590315879e+01 +3.2506528219528730e+02 +1.2836869454342531e+05 -9.0144657870029053e+05 -6.7556036432873499e+08 
+7.0999999999999996e+00 -1.0338985079705494e+00 +2.2833340633999013e+00 +1.6735027564498768e+01 +3.3257729431969074e+02 +1.3167033801428048e+05 -9.3335680665892479e+05 -6.9284532907986367e+08 
+7.2000000000000002e+00 -1.0338998390528973e+00 +2.2830868753480762e+00 +1.6598995191404210e+01 +3.3966840171025018e+02 +1.3491885733190711e+05 -9.6278848054564465e+05 -7.0984077915072346e+08 
+7.2999999999999998e+00 -1.0339011146300909e+00 +2.2828529654375957e+00 +1.6464741348741523e+01 +3.4631433370719537e+02 +1.3811461389257183e+05 -9.8958045773898612e+05 -7.2654847360270309e+08 
+7.4000000000000004e+00 -1.0339023401797800e+00 +2.2826326544455244e+00 +1.6332314986594412e+01 +3.5249081602737812e+02 +1.4125796772638831e+05 -1.0135715698875720e+06 -7.4297016540650177e+08 
+7.5000000000000000e+00 -1.0339035211799965e+00 +2.2824262632067280e+00 +1.6201765125988306e+01 +3.5817357076591850e+02 +1.4434927752178939e+05 -1.0346006226674422e+06 -7.5910760155677593e+08 
+7.5999999999999996e+00 -1.0339046631092392e+00 +2.2822341126196650e+00 +1.6073140867864311e+01 +3.6333831615920144e+02 +1.4738890045646616e+05 -1.0525063942658929e+06 -7.7496252229130888e+08 
+7.7000000000000002e+00 -1.0339057714463511e+00 +2.2820565236495050e+00 +1.5946491379532960e+01 +3.6796076641334685e+02 +1.5037719245804427e+05 -1.0671276341543712e+06 -7.9053666234707415e+08 
+7.7999999999999998e+00 -1.0339068516707295e+00 +2.2818938173227554e+00 +1.5821865921130755e+01 +3.7201663179269059e+02 +1.5331450769630933e+05 -1.0783030634283081e+06 -8.0583174854501688e+08 
+7.9000000000000004e+00 -1.0339079092621364e+00 +2.2817463147359112e+00 +1.5699313820779841e+01 +3.7548161828615446e+02 +1.5620119906039146e+05 -1.0858713726740545e+06 -8.2084950208682156e+08 
+8.0000000000000000e+00 -1.0339089497008305e+00 +2.2816143370531545e+00 +1.5578884494744706e+01 +3.7833142759851285e+02 +1.5903761777497575e+05 -1.0896712216859905e+06 -8.3559163673960948e+08 
+8.0999999999999996e+00 -1.0339099784675485e+00 +2.2814982055074902e+00 +1.5460627443909500e+01 +3.8054175705099016e+02 +1.6182411346401900e+05 -1.0895412387474917e+06 -8.5005985914270937e+08 
+8.1999999999999993e+00 -1.0339110010434451e+00 +2.2813982414086671e+00 +1.5344592248221703e+01 +3.8208829927486852e+02 +1.6456103426304660e+05 -1.0853200186196109e+06 -8.6425586937114143e+08 
+8.3000000000000007e+00 -1.0339120229102308e+00 +2.2813147661364890e+00 +1.5230828581918942e+01 +3.8294674231817970e+02 +1.6724872652558319e+05 -1.0768461229604473e+06 -8.7818135954115260e+08 
+8.4000000000000004e+00 -1.0339130495500692e+00 +2.2812481011476518e+00 +1.5119386204759644e+01 +3.8309276939661305e+02 +1.6988753499019222e+05 -1.0639580787313869e+06 -8.9183801461846924e+08 
+8.5000000000000000e+00 -1.0339140864457568e+00 +2.2811985679543927e+00 +1.5010314983961477e+01 +3.8250206123248302e+02 +1.7247780255608796e+05 -1.0464944016173551e+06 -9.0522751251367450e+08 
+8.5999999999999996e+00 -1.0339151374444404e+00 +2.2811662310522132e+00 +1.4903638121734616e+01 +3.8116312362372639e+02 +1.7501999819368258e+05 -1.0243834506633527e+06 -9.1835267933282924e+08 
+8.6999999999999993e+00 -1.0339161995954467e+00 +2.2811499623983269e+00 +1.4799265173896536e+01 +3.7911800881922045e+02 +1.7751445207351769e+05 -9.9790758212461695e+05 -9.3121521283845985e+08 
+8.8000000000000007e+00 -1.0339172682101574e+00 +2.2811482826532021e+00 +1.4697080329714957e+01 +3.7642335600910701e+02 +1.7996120375543181e+05 -9.6744081145375606e+05 -9.4381471354872787e+08 
+8.9000000000000004e+00 -1.0339183385993098e+00 +2.2811597123513301e+00 +1.4596967695075891e+01 +3.7313581275005174e+02 +1.8236029416881266e+05 -9.3335721079635085e+05 -9.5615078739744604e+08 
+9.0000000000000000e+00 -1.0339194060727341e+00 +2.2811827719947613e+00 +1.4498811248292794e+01 +3.6931203139879648e+02 +1.8471176667737780e+05 -8.9603089015908190e+05 -9.6822305111872077e+08 
+9.0999999999999996e+00 -1.0339204659394294e+00 +2.2812159820498334e+00 +1.4402494845738840e+01 +3.6500866929485306e+02 +1.8701566697697982e+05 -8.5583599871386215e+05 -9.8003113175376987e+08 
+9.1999999999999993e+00 -1.0339215135074704e+00 +2.2812578629534177e+00 +1.4307902210210120e+01 +3.6028238870478594e+02 +1.8927204332013938e+05 -8.1314672478609555e+05 -9.9157466769835377e+08 
+9.3000000000000007e+00 -1.0339225440839908e+00 +2.2813069351045256e+00 +1.4214916930622621e+01 +3.5518985718782852e+02 +1.9148094651577738e+05 -7.6833729827655712e+05 -1.0028533086633525e+09 
+9.4000000000000004e+00 -1.0339235529751791e+00 +2.2813617188634736e+00 +1.4123422458008717e+01 +3.4978774771366557e+02 +1.9364243001121731e+05 -7.2178199159500306e+05 -1.0138667160542483e+09 
+9.5000000000000000e+00 -1.0339245354861857e+00 +2.2814207345532096e+00 +1.4033302094568683e+01 +3.4413273873535667e+02 +1.9575655009934341e+05 -6.7385512036548590e+05 -1.0246145639302263e+09 
+9.5999999999999996e+00 -1.0339254869211993e+00 +2.2814825024591441e+00 +1.3944439002658932e+01 +3.3828151432438455e+02 +1.9782336574152482e+05 -6.2493104454711988e+05 -1.0350965381154355e+09 
+9.6999999999999993e+00 -1.0339264025833028e+00 +2.2815455428228661e+00 +1.3856716184916191e+01 +3.3229076443497127e+02 +1.9984293895812923e+05 -5.7538417017056665e+05 -1.0453123380729076e+09 
+9.8000000000000007e+00 -1.0339272777745128e+00 +2.2816083758441872e+00 +1.3770016491382583e+01 +3.2621718500074377e+02 +2.0181533468579283e+05 -5.2558895028411504e+05 -1.0552616761745043e+09 
+9.9000000000000004e+00 -1.0339281077957687e+00 +2.2816695216779221e+00 +1.3684222612923794e+01 +3.2011747807907449e+02 +2.0374062089801140e+05 -4.7591988597087929e+05 -1.0649442782407124e+09 
+1.0000000000000000e+01 -1.0339288879468327e+00 +2.2817275004338877e+00 +1.3599217073345249e+01 +3.1404835202016943e+02 +2.0561886876915471e+05 -4.2675152768635482e+05 -1.0743598843328705e+09 
+1.0100000000000000e+01 -1.0339296135262850e+00 +2.2817808321790718e+00 +1.3514882223825714e+01 +3.0806652147140238e+02 +2.0745015276655828e+05 -3.7845847552441235e+05 -1.0835082491285119e+09 
