# multipoles
# s[mm] polynom_b[n=0][T/m^n] polynom_b[n=1][T/m^n] polynom_b[n=2][T/m^n] polynom_b[n=3][T/m^n] polynom_b[n=4][T/m^n] polynom_b[n=5][T/m^n] polynom_b[n=6][T/m^n] 
+0.0000000000000000e+00 -1.0320180811210444e+00 +2.2799315060652194e+00 +2.0960826807911531e+01 +2.2256844471002648e+02 -3.9575481472728345e+04 -8.8447904016114050e+05 +2.6217950080583870e+08 
+1.0000000000000001e-01 -1.0320182879145146e+00 +2.2796688467235051e+00 +2.0978257806949934e+01 +2.3126602454271233e+02 -4.0651025185255159e+04 -9.2611638961256749e+05 +2.6880858400127769e+08 
+2.0000000000000001e-01 -1.0320185068022729e+00 +2.2794225876796115e+00 +2.0995792739270925e+01 +2.3963317173135798e+02 -4.1729597024594215e+04 -9.6628261513377400e+05 +2.7548920940481496e+08 
+3.0000000000000004e-01 -1.0320187404091452e+00 +2.2791932490264446e+00 +2.1013337034879200e+01 +2.4765876907777860e+02 -4.2808881872884027e+04 -1.0049129895496712e+06 +2.8221188470594549e+08 
+4.0000000000000002e-01 -1.0320189913600561e+00 +2.2789813508861534e+00 +2.1030796129080908e+01 +2.5533169820326970e+02 -4.3886564632215763e+04 -1.0419427784134634e+06 +2.8896711742747158e+08 
+5.0000000000000000e-01 -1.0320192622800692e+00 +2.2787874134177049e+00 +2.1048075466768687e+01 +2.6264083920728729e+02 -4.4960330308490229e+04 -1.0773072376016614e+06 +2.9574541533739555e+08 
+5.9999999999999998e-01 -1.0320195553894658e+00 +2.2786115831732365e+00 +2.1065053760549006e+01 +2.6958157535776002e+02 -4.6027290167675623e+04 -1.1109678960444524e+06 +3.0253377496219301e+08 
+6.9999999999999996e-01 -1.0320198712899979e+00 +2.2784525153540303e+00 +2.1081505213279101e+01 +2.7617512402121145e+02 -4.7082303081062440e+04 -1.1429897620144882e+06 +3.0930532206087279e+08 
+7.9999999999999993e-01 -1.0320202101791747e+00 +2.2783084931297295e+00 +2.1097178529032167e+01 +2.8244911429860196e+02 -4.8119675811075518e+04 -1.1734632952345242e+06 +3.1602975940169996e+08 
+8.9999999999999991e-01 -1.0320205722545368e+00 +2.2781777996952326e+00 +2.1111822415217908e+01 +2.8843117409587853e+02 -4.9133715171564851e+04 -1.2024789474820702e+06 +3.2267678993008524e+08 
+9.9999999999999989e-01 -1.0320209577136690e+00 +2.2780587182750205e+00 +2.1125185585652453e+01 +2.9414893002580607e+02 -5.0118728105636510e+04 -1.2301271620758197e+06 +3.2921611719146931e+08 
+1.0999999999999999e+00 -1.0320213667541982e+00 +2.2779495321180989e+00 +2.1137016761355387e+01 +2.9963000751801104e+02 -5.1069021710047964e+04 -1.2564983743732339e+06 +3.3561744547343141e+08 
+1.2000000000000000e+00 -1.0320217995737915e+00 +2.2778485244939670e+00 +2.1147064673180456e+01 +3.0490203096580012e+02 -5.1978903314244504e+04 -1.2816830126670450e+06 +3.4185048026279336e+08 
+1.3000000000000000e+00 -1.0320222563701373e+00 +2.2777539786973278e+00 +2.1155078060170641e+01 +3.0999262355679593e+02 -5.2842680454736605e+04 -1.3057714970796183e+06 +3.4788492813755107e+08 
+1.4000000000000001e+00 -1.0320227373408808e+00 +2.2776641780418569e+00 +2.1160805663471251e+01 +3.1492940748007948e+02 -5.3654660782729326e+04 -1.3288542408076935e+06 +3.5369049639378512e+08 
+1.5000000000000002e+00 -1.0320232426836853e+00 +2.2775774058566016e+00 +2.1163996235636496e+01 +3.1974000401295905e+02 -5.4409152253882487e+04 -1.3510216505422774e+06 +3.5923689398231769e+08 
+1.6000000000000003e+00 -1.0320237725962067e+00 +2.2774919454850449e+00 +2.1164398538671623e+01 +3.2445203354890947e+02 -5.5100463109389915e+04 -1.3723641265917297e+06 +3.6449383147194779e+08 
+1.7000000000000004e+00 -1.0320243272760019e+00 +2.2774060802868132e+00 +2.1161761334898891e+01 +3.2909311555535436e+02 -5.5722901719030655e+04 -1.3929720626365284e+06 +3.6943102034580588e+08 
+1.8000000000000005e+00 -1.0320249069206437e+00 +2.2773180936308188e+00 +2.1155833402174661e+01 +3.3369086874814303e+02 -5.6270776886108433e+04 -1.4129358466224144e+06 +3.7401817449708784e+08 
+1.9000000000000006e+00 -1.0320255117275823e+00 +2.2772262688976177e+00 +2.1146363519116832e+01 +3.3827291104652227e+02 -5.6738397584643375e+04 -1.4323458605482853e+06 +3.7822500902854395e+08 
+2.0000000000000004e+00 -1.0320261418942429e+00 +2.2771288894717325e+00 +2.1133100478247240e+01 +3.4286685978219231e+02 -5.7120073226817447e+04 -1.4512924815937083e+06 +3.8202124157361037e+08 
+2.1000000000000005e+00 -1.0320267976179349e+00 +2.2770242387468556e+00 +2.1115793076793270e+01 +3.4750033154440325e+02 -5.7410113503768691e+04 -1.4698660811843376e+06 +3.8537659158206385e+08 
+2.2000000000000006e+00 -1.0320274790958519e+00 +2.2769106001199457e+00 +2.1094190117320462e+01 +3.5220094235736752e+02 -5.7602828408646965e+04 -1.4881570259971630e+06 +3.8826078046023422e+08 
+2.3000000000000007e+00 -1.0320281865250720e+00 +2.2767862569853747e+00 +2.1068040410814369e+01 +3.5699630783474521e+02 -5.7692528322129983e+04 -1.5062556787843653e+06 +3.9064353205161583e+08 
+2.4000000000000008e+00 -1.0320289201026063e+00 +2.2766494927404035e+00 +2.1037092783747994e+01 +3.6191404304332082e+02 -5.7673524159804954e+04 -1.5242523976120185e+06 +3.9249457337593311e+08 
+2.5000000000000009e+00 -1.0320296800252364e+00 +2.2764985907836404e+00 +2.1001096058822679e+01 +3.6698176253652531e+02 -5.7540127014024343e+04 -1.5422375360496386e+06 +3.9378363293799281e+08 
+2.6000000000000010e+00 -1.0320304663102391e+00 +2.2763322084865845e+00 +2.0959944822889796e+01 +3.7222312290286271e+02 -5.7289608774195716e+04 -1.5603012682970667e+06 +3.9449440569179302e+08 
+2.7000000000000011e+00 -1.0320312781064229e+00 +2.2761503809880486e+00 +2.0914084187516057e+01 +3.7764838422133948e+02 -5.6930536795928994e+04 -1.5785449553574498e+06 +3.9466433915544140e+08 
+2.8000000000000012e+00 -1.0320321143082376e+00 +2.2759534590044703e+00 +2.0864089061219609e+01 +3.8326506688584851e+02 -5.6474171726402456e+04 -1.5970758319500315e+06 +3.9434382260270733e+08 
+2.9000000000000012e+00 -1.0320329738099405e+00 +2.2757417931450652e+00 +2.0810534322393185e+01 +3.8908069511616401e+02 -5.5931773576611995e+04 -1.6160011572952508e+06 +3.9358324210274631e+08 
+3.0000000000000013e+00 -1.0320338555056325e+00 +2.2755157338980623e+00 +2.0753994822701930e+01 +3.9510279745806196e+02 -5.5314601764504645e+04 -1.6354282182486078e+06 +3.9243298064858311e+08 
+3.1000000000000014e+00 -1.0320347582892617e+00 +2.2752756316327818e+00 +2.0695045387577352e+01 +4.0133890679844080e+02 -5.4633915124215899e+04 -1.6554643295868337e+06 +3.9094341821017241e+08 
+3.2000000000000015e+00 -1.0320356810545199e+00 +2.2750218365807138e+00 +2.0634260799704965e+01 +4.0779656102929914e+02 -5.3900971557716286e+04 -1.6762168382302595e+06 +3.8916492997720838e+08 
+3.3000000000000016e+00 -1.0320366226949760e+00 +2.2747546988266043e+00 +2.0572215815205503e+01 +4.1448330339082838e+02 -5.3127028337924065e+04 -1.6977931254632436e+06 +3.8714788779413861e+08 
+3.4000000000000017e+00 -1.0320375821039229e+00 +2.2744745683024399e+00 +2.0509485144056530e+01 +4.2140668275824555e+02 -5.2323341725744758e+04 -1.7203006089361596e+06 +3.8494265830893368e+08 
+3.5000000000000018e+00 -1.0320385581744587e+00 +2.2741817947739396e+00 +2.0446643456325635e+01 +4.2857425410798004e+02 -5.1501167056372477e+04 -1.7438467456066876e+06 +3.8259960329535365e+08 
+3.6000000000000019e+00 -1.0320395497994541e+00 +2.2738767278320990e+00 +2.0384265378735929e+01 +4.3599357888679174e+02 -5.0671758673793927e+04 -1.7685390342251891e+06 +3.8016907934394199e+08 
+3.7000000000000020e+00 -1.0320405558715322e+00 +2.2735597168795931e+00 +2.0322925489982101e+01 +4.4367222548786486e+02 -4.9846369820075866e+04 -1.7944850183577084e+06 +3.7770143727514893e+08 
+3.8000000000000020e+00 -1.0320415752830561e+00 +2.2732311111295340e+00 +2.0263198317378070e+01 +4.5161776938337880e+02 -4.9036252556572559e+04 -1.8217922874351640e+06 +3.7524702172619808e+08 
+3.9000000000000021e+00 -1.0320426069261370e+00 +2.2728912595858355e+00 +2.0205658336904630e+01 +4.5983779380153760e+02 -4.8252657749379403e+04 -1.8505684809985179e+06 +3.7285617103926229e+08 
+4.0000000000000018e+00 -1.0320436496926171e+00 +2.2725405110404955e+00 +2.0150879969331612e+01 +4.6833988989443213e+02 -4.7506834981056556e+04 -1.8809212899411034e+06 +3.7057921680330110e+08 
+4.1000000000000014e+00 -1.0320447024740351e+00 +2.2721792140606119e+00 +2.0099437574303671e+01 +4.7713165721709777e+02 -4.6810032420035983e+04 -1.9129584595914583e+06 +3.6846648318460816e+08 
+4.2000000000000011e+00 -1.0320457641616421e+00 +2.2718077169766926e+00 +2.0051905451075818e+01 +4.8622070415822986e+02 -4.6173496822102083e+04 -1.9467877924832981e+06 +3.6656828690023869e+08 
+4.3000000000000007e+00 -1.0320468336464157e+00 +2.2714263678740734e+00 +2.0008857839220184e+01 +4.9561464829917736e+02 -4.5608473529585492e+04 -1.9825171507640823e+06 +3.6493493717671412e+08 
+4.4000000000000004e+00 -1.0320479098189759e+00 +2.2710355145903645e+00 +1.9970868905257838e+01 +5.0532111655966554e+02 -4.5126206193828853e+04 -2.0202544572558233e+06 +3.6361673436618966e+08 
+4.5000000000000000e+00 -1.0320489915696254e+00 +2.2706355046851612e+00 +1.9938512746540177e+01 +5.1534774601640459e+02 -4.4737936855607659e+04 -2.0601076997452746e+06 +3.6266397039630240e+08 
+4.5999999999999996e+00 -1.0320500776584125e+00 +2.2702268174551192e+00 +1.9912197065793404e+01 +5.2569500074323889e+02 -4.4451833015876371e+04 -2.1021334732869449e+06 +3.6211357000035852e+08 
+4.6999999999999993e+00 -1.0320511666340872e+00 +2.2698106488196332e+00 +1.9891699278142600e+01 +5.3633183361367446e+02 -4.4264236093910054e+04 -2.1461749758643159e+06 +3.6195048716247392e+08 
+4.7999999999999989e+00 -1.0320522570634609e+00 +2.2693884209929740e+00 +1.9876646448695965e+01 +5.4721858034586103e+02 -4.4168619532099823e+04 -2.1920197494314439e+06 +3.6214693071870112e+08 
+4.8999999999999986e+00 -1.0320533475136977e+00 +2.2689615562523815e+00 +1.9866665676538499e+01 +5.5831557454879498e+02 -4.4158457249423169e+04 -2.2394553224704699e+06 +3.6267511122802371e+08 
+4.9999999999999982e+00 -1.0320544365521667e+00 +2.2685314769411451e+00 +1.9861384076497057e+01 +5.6958314759137295e+02 -4.4227223296508651e+04 -2.2882692090109577e+06 +3.6350723932682174e+08 
+5.0999999999999979e+00 -1.0320555227466284e+00 +2.2680996054709075e+00 +1.9860428803566442e+01 +5.8098162848709819e+02 -4.4368392325745219e+04 -2.3382489077893831e+06 +3.6461552797915590e+08 
+5.1999999999999975e+00 -1.0320566046651607e+00 +2.2676673643290144e+00 +1.9863427041852969e+01 +5.9247134363329428e+02 -4.4575439361736630e+04 -2.3891819005690366e+06 +3.6597219132674229e+08 
+5.2999999999999972e+00 -1.0320576808762221e+00 +2.2672361760904298e+00 +1.9870006013675049e+01 +6.0401261640720872e+02 -4.4841839980801895e+04 -2.4408556495938636e+06 +3.6754944555831218e+08 
+5.3999999999999968e+00 -1.0320587499486227e+00 +2.2668074634250357e+00 +1.9879792974808915e+01 +6.1556576692097690e+02 -4.5161070210035934e+04 -2.4930575960373306e+06 +3.6931950839674020e+08 
+5.4999999999999964e+00 -1.0320598104516310e+00 +2.2663826491018852e+00 +1.9892415228180202e+01 +6.2709111183338507e+02 -4.5526606784499570e+04 -2.5455751586913979e+06 +3.7125460030986112e+08 
+5.5999999999999961e+00 -1.0320608609549071e+00 +2.2659631560075315e+00 +1.9907500115143826e+01 +6.3854896377697412e+02 -4.5931926976433642e+04 -2.5981957304889490e+06 +3.7332694368155807e+08 
+5.6999999999999957e+00 -1.0320619000285798e+00 +2.2655504071340258e+00 +1.9924675024894444e+01 +6.4989963166087807e+02 -4.6370508770681525e+04 -2.6507066801059460e+06 +3.7550876363362515e+08 
+5.7999999999999954e+00 -1.0320629262432670e+00 +2.2651458256107131e+00 +1.9943567396816604e+01 +6.6110341968830846e+02 -4.6835830901624118e+04 -2.7028953460397655e+06 +3.7777228817767656e+08 
+5.8999999999999950e+00 -1.0320639381700720e+00 +2.2647508346934244e+00 +1.9963804719867781e+01 +6.7212062762743824e+02 -4.7321372839138741e+04 -2.7545490380395255e+06 +3.8008974813560188e+08 
+5.9999999999999947e+00 -1.0320649343806074e+00 +2.2643668577858618e+00 +1.9985014535271429e+01 +6.8291155015014340e+02 -4.7820614831598577e+04 -2.8054550331067941e+06 +3.8243337732089156e+08 
+6.0999999999999943e+00 -1.0320659134470493e+00 +2.2639953184367352e+00 +2.0006824443488835e+01 +6.9343647683974643e+02 -4.8327038041161417e+04 -2.8554005753046246e+06 +3.8477541318617165e+08 
+6.1999999999999940e+00 -1.0320668739421115e+00 +2.2636376403574494e+00 +2.0028862100320733e+01 +7.0365569166319381e+02 -4.8834124455614699e+04 -2.9041728726044022e+06 +3.8708809636039448e+08 
+6.2999999999999936e+00 -1.0320678144391271e+00 +2.2632952474164689e+00 +2.0050755227397321e+01 +7.1352947306863882e+02 -4.9335357090292149e+04 -2.9515590972423824e+06 +3.8934367161398351e+08 
+6.3999999999999932e+00 -1.0320687335120020e+00 +2.2629695636663465e+00 +2.0072131605045819e+01 +7.2301809313903959e+02 -4.9824219839093093e+04 -2.9973463805816253e+06 +3.9151438711053240e+08 
+6.4999999999999929e+00 -1.0320696297353438e+00 +2.2626620133398090e+00 +2.0092619091277601e+01 +7.3208181789499770e+02 -5.0294197825941068e+04 -3.0413218157093059e+06 +3.9357249599660581e+08 
+6.5999999999999925e+00 -1.0320705020741656e+00 +2.2623736861492660e+00 +2.0111934945394058e+01 +7.4068973962434745e+02 -5.0740312578039535e+04 -3.0833209729900239e+06 +3.9549664899277753e+08 
+6.6999999999999922e+00 -1.0320713507998729e+00 +2.2621042251507180e+00 +2.0130145944209080e+01 +7.4884749696776987e+02 -5.1163723293166331e+04 -3.1233737760212310e+06 +3.9729137658346868e+08 
+6.7999999999999918e+00 -1.0320721764544316e+00 +2.2618528827699391e+00 +2.0147405859609773e+01 +7.5657023869358773e+02 -5.1567150043709582e+04 -3.1615592044126419e+06 +3.9896786409066516e+08 
+6.8999999999999915e+00 -1.0320729795796102e+00 +2.2616189112840752e+00 +2.0163868441401011e+01 +7.6387311883781399e+02 -5.1953312389573628e+04 -3.1979562708809637e+06 +4.0053729396983004e+08 
+6.9999999999999911e+00 -1.0320737607169626e+00 +2.2614015628373276e+00 +2.0179687412918472e+01 +7.7077129639634188e+02 -5.2324929288080326e+04 -3.2326440205340637e+06 +4.0201084542722327e+08 
+7.0999999999999908e+00 -1.0320745204077961e+00 +2.2612000894235731e+00 +2.0195016467237611e+01 +7.7727993587946355e+02 -5.2684719024279220e+04 -3.2657015342580541e+06 +4.0339969409444827e+08 
+7.1999999999999904e+00 -1.0320752591931450e+00 +2.2610137429034771e+00 +2.0210009264588574e+01 +7.8341420683316073e+02 -5.3035399165405848e+04 -3.2972079260147684e+06 +4.0471501182120520e+08 
+7.2999999999999901e+00 -1.0320759776138066e+00 +2.2608417749733603e+00 +2.0224819436559500e+01 +7.8918928479313877e+02 -5.3379686636385100e+04 -3.3272423485438162e+06 +4.0596796701765782e+08 
+7.3999999999999897e+00 -1.0320766762102593e+00 +2.2606834371810507e+00 +2.0239600576709805e+01 +7.9462035084019317e+02 -5.3720297547584996e+04 -3.3558839908451559e+06 +4.0716972385350668e+08 
+7.4999999999999893e+00 -1.0320773555226954e+00 +2.2605379809141981e+00 +2.0254506244192399e+01 +7.9972259199196299e+02 -5.4059947258588931e+04 -3.3832120806363206e+06 +4.0833144254457736e+08 
+7.5999999999999890e+00 -1.0320780160910692e+00 +2.2604046573937069e+00 +2.0269689971160190e+01 +8.0451120141564274e+02 -5.4401350528642863e+04 -3.4093058856692389e+06 +4.0946428009208786e+08 
+7.6999999999999886e+00 -1.0320786584549206e+00 +2.2602827176778781e+00 +2.0285305239760120e+01 +8.0900137834465556e+02 -5.4747221070227621e+04 -3.4342447133722841e+06 +4.1057938813599402e+08 
+7.7999999999999883e+00 -1.0320792831535173e+00 +2.2601714126445027e+00 +2.0301505501225961e+01 +8.1320832863365763e+02 -5.5100271921285595e+04 -3.4581079141968782e+06 +4.1168791474572903e+08 
+7.8999999999999879e+00 -1.0320798907258097e+00 +2.2600699929990924e+00 +2.0318444169729169e+01 +8.1714726456021810e+02 -5.5463215322074786e+04 -3.4809748806106178e+06 +4.1280100381618625e+08 
+7.9999999999999876e+00 -1.0320804817103457e+00 +2.2599777092612863e+00 +2.0336274612308870e+01 +8.2083340524037635e+02 -5.5838762529271029e+04 -3.5029250495872074e+06 +4.1392979420046949e+08 
+8.0999999999999872e+00 -1.0320810566453427e+00 +2.2598938117705938e+00 +2.0355150158556725e+01 +8.2428197650271113e+02 -5.6229624001618504e+04 -3.5240379020186788e+06 +4.1508542059119284e+08 
+8.1999999999999869e+00 -1.0320816160686335e+00 +2.2598175506709635e+00 +2.0375224093416737e+01 +8.2750821137485741e+02 -5.6638509259433304e+04 -3.5443929656689600e+06 +4.1627901284339219e+08 
+8.2999999999999865e+00 -1.0320821605176826e+00 +2.2597481759134217e+00 +2.0396649659912008e+01 +8.3052735003419366e+02 -5.7068126940394905e+04 -3.5640698149921838e+06 +4.1752169624765909e+08 
+8.3999999999999861e+00 -1.0320826905295539e+00 +2.2596849372475045e+00 +2.0419580055274494e+01 +8.3335464009564771e+02 -5.7521184728376305e+04 -3.5831480729394280e+06 +4.1882459119970006e+08 
+8.4999999999999858e+00 -1.0320832066408190e+00 +2.2596270842123425e+00 +2.0444168417733664e+01 +8.3600533662079965e+02 -5.8000389091922247e+04 -3.6017074053906575e+06 +4.2019881237673169e+08 
+8.5999999999999854e+00 -1.0320837090734711e+00 +2.2595740262580457e+00 +2.0470510906304821e+01 +8.3849193372727620e+02 -5.8507353725013229e+04 -3.6198095345273078e+06 +4.2165102581291437e+08 
+8.6999999999999851e+00 -1.0320841969851182e+00 +2.2595259030209811e+00 +2.0498485166236026e+01 +8.4081438951008090e+02 -5.9039566454514519e+04 -3.6374467628358547e+06 +4.2317100617312926e+08 
+8.7999999999999847e+00 -1.0320846693133126e+00 +2.2594830591034261e+00 +2.0527915641261774e+01 +8.4296919459585024e+02 -5.9593528768133445e+04 -3.6545945890670689e+06 +4.2474450854000753e+08 
+8.8999999999999844e+00 -1.0320851249958658e+00 +2.2594458392032530e+00 +2.0558626803060157e+01 +8.4495283594567798e+02 -6.0165742815153535e+04 -3.6712284903821843e+06 +4.2635729185069704e+08 
+8.9999999999999840e+00 -1.0320855629710146e+00 +2.2594145881262868e+00 +2.0590443172368602e+01 +8.4676179603364278e+02 -6.0752711770019137e+04 -3.6873239153841771e+06 +4.2799512040408665e+08 
+9.0999999999999837e+00 -1.0320859821771942e+00 +2.2593896507954199e+00 +2.0623189290488845e+01 +8.4839255253117426e+02 -6.1350939292379837e+04 -3.7028562821834343e+06 +4.2964376130602401e+08 
+9.1999999999999833e+00 -1.0320863815532435e+00 +2.2593713722458686e+00 +2.0656689745529977e+01 +8.4984157838612794e+02 -6.1956930034676734e+04 -3.7178009787215581e+06 +4.3128898691566265e+08 
+9.2999999999999829e+00 -1.0320867600383699e+00 +2.2593600976447354e+00 +2.0690769167233686e+01 +8.5110534122283809e+02 -6.2567189548135924e+04 -3.7321333592358190e+06 +4.3291657442018056e+08 
+9.3999999999999826e+00 -1.0320871165720717e+00 +2.2593561722783657e+00 +2.0725252218289913e+01 +8.5218030363359867e+02 -6.3178224123791624e+04 -3.7458287457656269e+06 +4.3451230509999520e+08 
+9.4999999999999822e+00 -1.0320874500942723e+00 +2.2593599415723866e+00 +2.0759963610016424e+01 +8.5306292257151267e+02 -6.3786541095802968e+04 -3.7588624245963120e+06 +4.3606196579885167e+08 
+9.5999999999999819e+00 -1.0320877595452393e+00 +2.2593717510844415e+00 +2.0794728093053596e+01 +8.5374964949769003e+02 -6.4388648668089932e+04 -3.7712096469684341e+06 +4.3755134811321735e+08 
+9.6999999999999815e+00 -1.0320880438656193e+00 +2.2593919465180865e+00 +2.0829370461144627e+01 +8.5423692991857843e+02 -6.4981055993756876e+04 -3.7828456262543770e+06 +4.3896624880193961e+08 
+9.7999999999999812e+00 -1.0320883019964988e+00 +2.2594208737181698e+00 +2.0863715559704879e+01 +8.5452120349234212e+02 -6.5560273345038309e+04 -3.7937455385352611e+06 +4.4029247061924976e+08 
+9.8999999999999808e+00 -1.0320885328792953e+00 +2.2594588786852881e+00 +2.0897588270696392e+01 +8.5459890353964329e+02 -6.6122811823371085e+04 -3.8038845195986563e+06 +4.4151582093940973e+08 
+9.9999999999999805e+00 -1.0320887354559347e+00 +2.2595063075734996e+00 +2.0930813536777904e+01 +8.5446645706948357e+02 -6.6665183838212732e+04 -3.8132376650100062e+06 +4.4262211409696019e+08 
+1.0099999999999980e+01 -1.0320889086686720e+00 +2.2595635066976221e+00 +2.0963216336719217e+01 +8.5412028450411037e+02 -6.7183902627800810e+04 -3.8217800283708568e+06 +4.4359716908159679e+08 
