# trajectory
# s[mm] rx[mm] ry[mm] rz[mm] px[rad] py[rad] pz[rad]
0.0000000000000000e+00 +9.0998000000000001e+00 +0.0000000000000000e+00 +0.0000000000000000e+00 +0.0000000000000000e+00 +0.0000000000000000e+00 +1.0000000000000000e+00
1.0000000000000001e-01 +9.0997994843422703e+00 +0.0000000000000000e+00 +9.9999999998227312e-02 -1.0313158000139405e-05 +0.0000000000000000e+00 +9.9999999994681943e-01
2.0000000000000001e-01 +9.0997979373677111e+00 +0.0000000000000000e+00 +1.9999999998581849e-01 -2.0626336672511628e-05 +0.0000000000000000e+00 +9.9999999978727716e-01
3.0000000000000004e-01 +9.0997953590742355e+00 +0.0000000000000000e+00 +2.9999999995213733e-01 -3.0939536393566543e-05 +0.0000000000000000e+00 +9.9999999952137264e-01
4.0000000000000002e-01 +9.0997917494597189e+00 +0.0000000000000000e+00 +3.9999999988654755e-01 -4.1252757535334270e-05 +0.0000000000000000e+00 +9.9999999914910509e-01
5.0000000000000000e-01 +9.0997871085220012e+00 +0.0000000000000000e+00 +4.9999999977841286e-01 -5.1566000465439442e-05 +0.0000000000000000e+00 +9.9999999867047384e-01
5.9999999999999998e-01 +9.0997814362588869e+00 +0.0000000000000000e+00 +5.9999999961709682e-01 -6.1879265546126844e-05 +0.0000000000000000e+00 +9.9999999808547835e-01
6.9999999999999996e-01 +9.0997747326681431e+00 +0.0000000000000000e+00 +6.9999999939196300e-01 -7.2192553123389758e-05 +0.0000000000000000e+00 +9.9999999739411771e-01
7.9999999999999993e-01 +9.0997669977475031e+00 +0.0000000000000000e+00 +7.9999999909237485e-01 -8.2505863516095295e-05 +0.0000000000000000e+00 +9.9999999659639127e-01
8.9999999999999991e-01 +9.0997582314946701e+00 +0.0000000000000000e+00 +8.9999999870769576e-01 -9.2819197015004510e-05 +0.0000000000000000e+00 +9.9999999569229836e-01
9.9999999999999989e-01 +9.0997484339073207e+00 +0.0000000000000000e+00 +9.9999999822728902e-01 -1.0313255388278077e-04 +0.0000000000000000e+00 +9.9999999468183820e-01
1.0999999999999999e+00 +9.0997376049831065e+00 +0.0000000000000000e+00 +1.0999999976405179e+00 -1.1344593435399665e-04 +0.0000000000000000e+00 +9.9999999356501001e-01
1.2000000000000000e+00 +9.0997257447196560e+00 +0.0000000000000000e+00 +1.1999999969367454e+00 -1.2375933863513944e-04 +0.0000000000000000e+00 +9.9999999234181303e-01
1.3000000000000000e+00 +9.0997128531145801e+00 +0.0000000000000000e+00 +1.2999999961053348e+00 -1.3407276690461512e-04 +0.0000000000000000e+00 +9.9999999101224657e-01
1.4000000000000001e+00 +9.0996989301654718e+00 +0.0000000000000000e+00 +1.3999999951356490e+00 -1.4438621931275102e-04 +0.0000000000000000e+00 +9.9999998957630976e-01
1.5000000000000002e+00 +9.0996839758699100e+00 +0.0000000000000000e+00 +1.4999999940170510e+00 -1.5469969598179694e-04 +0.0000000000000000e+00 +9.9999998803400192e-01
1.6000000000000003e+00 +9.0996679902254645e+00 +0.0000000000000000e+00 +1.5999999927389037e+00 -1.6501319700592491e-04 +0.0000000000000000e+00 +9.9999998638532228e-01
1.7000000000000004e+00 +9.0996509732296946e+00 +0.0000000000000000e+00 +1.6999999912905697e+00 -1.7532672245122740e-04 +0.0000000000000000e+00 +9.9999998463027007e-01
1.8000000000000005e+00 +9.0996329248801580e+00 +0.0000000000000000e+00 +1.7999999896614118e+00 -1.8564027235571428e-04 +0.0000000000000000e+00 +9.9999998276884450e-01
1.9000000000000006e+00 +9.0996138451744084e+00 +0.0000000000000000e+00 +1.8999999878407927e+00 -1.9595384672930807e-04 +0.0000000000000000e+00 +9.9999998080104480e-01
2.0000000000000004e+00 +9.0995937341099982e+00 +0.0000000000000000e+00 +1.9999999858180750e+00 -2.0626744555383804e-04 +0.0000000000000000e+00 +9.9999997872687019e-01
2.1000000000000005e+00 +9.0995725916844847e+00 +0.0000000000000000e+00 +2.0999999835826211e+00 -2.1658106878303269e-04 +0.0000000000000000e+00 +9.9999997654632000e-01
2.2000000000000006e+00 +9.0995504178954310e+00 +0.0000000000000000e+00 +2.1999999811237934e+00 -2.2689471634251081e-04 +0.0000000000000000e+00 +9.9999997425939346e-01
2.3000000000000007e+00 +9.0995272127404085e+00 +0.0000000000000000e+00 +2.2999999784309542e+00 -2.3720838812977117e-04 +0.0000000000000000e+00 +9.9999997186608980e-01
2.4000000000000008e+00 +9.0995029762170017e+00 +0.0000000000000000e+00 +2.3999999754934658e+00 -2.4752208401418072e-04 +0.0000000000000000e+00 +9.9999996936640834e-01
2.5000000000000009e+00 +9.0994777083228087e+00 +0.0000000000000000e+00 +2.4999999723006900e+00 -2.5783580383696134e-04 +0.0000000000000000e+00 +9.9999996676034841e-01
2.6000000000000010e+00 +9.0994514090554439e+00 +0.0000000000000000e+00 +2.5999999688419893e+00 -2.6814954741261391e-04 +0.0000000000000000e+00 +9.9999996404790925e-01
2.7000000000000011e+00 +9.0994240784125413e+00 +0.0000000000000000e+00 +2.6999999651067257e+00 -2.7846331454473076e-04 +0.0000000000000000e+00 +9.9999996122909030e-01
2.8000000000000012e+00 +9.0993957163917560e+00 +0.0000000000000000e+00 +2.7999999610842612e+00 -2.8877710504181643e-04 +0.0000000000000000e+00 +9.9999995830389077e-01
2.9000000000000012e+00 +9.0993663229907611e+00 +0.0000000000000000e+00 +2.8999999567639576e+00 -2.9909091871872632e-04 +0.0000000000000000e+00 +9.9999995527231000e-01
3.0000000000000013e+00 +9.0993358982072454e+00 +0.0000000000000000e+00 +2.9999999521351768e+00 -3.0940475539666676e-04 +0.0000000000000000e+00 +9.9999995213434734e-01
3.1000000000000014e+00 +9.0993044420389193e+00 +0.0000000000000000e+00 +3.0999999471872810e+00 -3.1971861490319567e-04 +0.0000000000000000e+00 +9.9999994889000210e-01
3.2000000000000015e+00 +9.0992719544835090e+00 +0.0000000000000000e+00 +3.1999999419096312e+00 -3.3003249707222313e-04 +0.0000000000000000e+00 +9.9999994553927374e-01
3.3000000000000016e+00 +9.0992384355387550e+00 +0.0000000000000000e+00 +3.2999999362915897e+00 -3.4034640174401246e-04 +0.0000000000000000e+00 +9.9999994208216147e-01
3.4000000000000017e+00 +9.0992038852024155e+00 +0.0000000000000000e+00 +3.3999999303225175e+00 -3.5066032876518107e-04 +0.0000000000000000e+00 +9.9999993851866475e-01
3.5000000000000018e+00 +9.0991683034722630e+00 +0.0000000000000000e+00 +3.4999999239917763e+00 -3.6097427798870206e-04 +0.0000000000000000e+00 +9.9999993484878291e-01
3.6000000000000019e+00 +9.0991316903460824e+00 +0.0000000000000000e+00 +3.5999999172887276e+00 -3.7128824927390561e-04 +0.0000000000000000e+00 +9.9999993107251528e-01
3.7000000000000020e+00 +9.0990940458216762e+00 +0.0000000000000000e+00 +3.6999999102027328e+00 -3.8160224248648086e-04 +0.0000000000000000e+00 +9.9999992718986130e-01
3.8000000000000020e+00 +9.0990553698968579e+00 +0.0000000000000000e+00 +3.7999999027231532e+00 -3.9191625749847780e-04 +0.0000000000000000e+00 +9.9999992320082032e-01
3.9000000000000021e+00 +9.0990156625694532e+00 +0.0000000000000000e+00 +3.8999998948393504e+00 -4.0223029418830962e-04 +0.0000000000000000e+00 +9.9999991910539165e-01
4.0000000000000018e+00 +9.0989749238373001e+00 +0.0000000000000000e+00 +3.9999998865406852e+00 -4.1254435244075501e-04 +0.0000000000000000e+00 +9.9999991490357476e-01
4.1000000000000014e+00 +9.0989331536982494e+00 +0.0000000000000000e+00 +4.0999998778165185e+00 -4.2285843214696071e-04 +0.0000000000000000e+00 +9.9999991059536897e-01
4.2000000000000011e+00 +9.0988903521501587e+00 +0.0000000000000000e+00 +4.1999998686562119e+00 -4.3317253320444463e-04 +0.0000000000000000e+00 +9.9999990618077361e-01
4.3000000000000007e+00 +9.0988465191909000e+00 +0.0000000000000000e+00 +4.2999998590491266e+00 -4.4348665551709865e-04 +0.0000000000000000e+00 +9.9999990165978814e-01
4.4000000000000004e+00 +9.0988016548183506e+00 +0.0000000000000000e+00 +4.3999998489846233e+00 -4.5380079899519203e-04 +0.0000000000000000e+00 +9.9999989703241188e-01
4.5000000000000000e+00 +9.0987557590303982e+00 +0.0000000000000000e+00 +4.4999998384520623e+00 -4.6411496355537493e-04 +0.0000000000000000e+00 +9.9999989229864428e-01
4.5999999999999996e+00 +9.0987088318249398e+00 +0.0000000000000000e+00 +4.5999998274408052e+00 -4.7442914911792082e-04 +0.0000000000000000e+00 +9.9999988745848467e-01
4.6999999999999993e+00 +9.0986608731998793e+00 +0.0000000000000000e+00 +4.6999998159402123e+00 -4.8474335557635551e-04 +0.0000000000000000e+00 +9.9999988251193250e-01
4.7999999999999989e+00 +9.0986118831531346e+00 +0.0000000000000000e+00 +4.7999998039396452e+00 -4.9505758276708169e-04 +0.0000000000000000e+00 +9.9999987745898711e-01
4.8999999999999986e+00 +9.0985618616826436e+00 +0.0000000000000000e+00 +4.8999997914284634e+00 -5.0537183046661313e-04 +0.0000000000000000e+00 +9.9999987229964804e-01
4.9999999999999982e+00 +9.0985108087863686e+00 +0.0000000000000000e+00 +4.9999997783960284e+00 -5.1568609839157029e-04 +0.0000000000000000e+00 +9.9999986703391486e-01
5.0999999999999979e+00 +9.0984587244623025e+00 +0.0000000000000000e+00 +5.0999997648316997e+00 -5.2600038619867535e-04 +0.0000000000000000e+00 +9.9999986166178700e-01
5.1999999999999975e+00 +9.0984056087084788e+00 +0.0000000000000000e+00 +5.1999997507248388e+00 -5.3631469348474692e-04 +0.0000000000000000e+00 +9.9999985618326415e-01
5.2999999999999972e+00 +9.0983514615229719e+00 +0.0000000000000000e+00 +5.2999997360648061e+00 -5.4662901978669472e-04 +0.0000000000000000e+00 +9.9999985059834595e-01
5.3999999999999968e+00 +9.0982962829039060e+00 +0.0000000000000000e+00 +5.3999997208409614e+00 -5.5694336458151424e-04 +0.0000000000000000e+00 +9.9999984490703209e-01
5.4999999999999964e+00 +9.0982400728494586e+00 +0.0000000000000000e+00 +5.4999997050426659e+00 -5.6725772728628040e-04 +0.0000000000000000e+00 +9.9999983910932222e-01
5.5999999999999961e+00 +9.0981828313578728e+00 +0.0000000000000000e+00 +5.5999996886592793e+00 -5.7757210725814198e-04 +0.0000000000000000e+00 +9.9999983320521635e-01
5.6999999999999957e+00 +9.0981245584274557e+00 +0.0000000000000000e+00 +5.6999996716801622e+00 -5.8788650379431511e-04 +0.0000000000000000e+00 +9.9999982719471425e-01
5.7999999999999954e+00 +9.0980652540565874e+00 +0.0000000000000000e+00 +5.7999996540946750e+00 -5.9820091613207657e-04 +0.0000000000000000e+00 +9.9999982107781582e-01
5.8999999999999950e+00 +9.0980049182437295e+00 +0.0000000000000000e+00 +5.8999996358921782e+00 -6.0851534344875729e-04 +0.0000000000000000e+00 +9.9999981485452116e-01
5.9999999999999947e+00 +9.0979435509874271e+00 +0.0000000000000000e+00 +5.9999996170620324e+00 -6.1882978486173517e-04 +0.0000000000000000e+00 +9.9999980852483028e-01
6.0999999999999943e+00 +9.0978811522863179e+00 +0.0000000000000000e+00 +6.0999995975935981e+00 -6.2914423942842792e-04 +0.0000000000000000e+00 +9.9999980208874339e-01
6.1999999999999940e+00 +9.0978177221391352e+00 +0.0000000000000000e+00 +6.1999995774762349e+00 -6.3945870614628573e-04 +0.0000000000000000e+00 +9.9999979554626062e-01
6.2999999999999936e+00 +9.0977532605447173e+00 +0.0000000000000000e+00 +6.2999995566993032e+00 -6.4977318395278321e-04 +0.0000000000000000e+00 +9.9999978889738239e-01
6.3999999999999932e+00 +9.0976877675020109e+00 +0.0000000000000000e+00 +6.3999995352521646e+00 -6.6008767172541190e-04 +0.0000000000000000e+00 +9.9999978214210905e-01
6.4999999999999929e+00 +9.0976212430100780e+00 +0.0000000000000000e+00 +6.4999995131241786e+00 -6.7040216828167176e-04 +0.0000000000000000e+00 +9.9999977528044115e-01
6.5999999999999925e+00 +9.0975536870681015e+00 +0.0000000000000000e+00 +6.5999994903047066e+00 -6.8071667238491808e-04 +0.0000000000000000e+00 +9.9999976831237913e-01
6.6999999999999922e+00 +9.0974850996753904e+00 +0.0000000000000000e+00 +6.6999994667831082e+00 -6.9103118280876492e-04 +0.0000000000000000e+00 +9.9999976123792367e-01
6.7999999999999918e+00 +9.0974154808313692e+00 +0.0000000000000000e+00 +6.7999994425487449e+00 -7.0134569840149975e-04 +0.0000000000000000e+00 +9.9999975405707542e-01
6.8999999999999915e+00 +9.0973448305355742e+00 +0.0000000000000000e+00 +6.8999994175909771e+00 -7.1166021809195164e-04 +0.0000000000000000e+00 +9.9999974676983494e-01
6.9999999999999911e+00 +9.0972731487876466e+00 +0.0000000000000000e+00 +6.9999993918991654e+00 -7.2197474088950438e-04 +0.0000000000000000e+00 +9.9999973937620279e-01
7.0999999999999908e+00 +9.0972004355873235e+00 +0.0000000000000000e+00 +7.0999993654626712e+00 -7.3228926588411031e-04 +0.0000000000000000e+00 +9.9999973187617963e-01
7.1999999999999904e+00 +9.0971266909344255e+00 +0.0000000000000000e+00 +7.1999993382708549e+00 -7.4260379224630458e-04 +0.0000000000000000e+00 +9.9999972426976591e-01
7.2999999999999901e+00 +9.0970519148288549e+00 +0.0000000000000000e+00 +7.2999993103130780e+00 -7.5291831922722006e-04 +0.0000000000000000e+00 +9.9999971655696218e-01
7.3999999999999897e+00 +9.0969761072705833e+00 +0.0000000000000000e+00 +7.3999992815787010e+00 -7.6323284615860279e-04 +0.0000000000000000e+00 +9.9999970873776889e-01
7.4999999999999893e+00 +9.0968992682596443e+00 +0.0000000000000000e+00 +7.4999992520570853e+00 -7.7354737245282810e-04 +0.0000000000000000e+00 +9.9999970081218659e-01
7.5999999999999890e+00 +9.0968213977961305e+00 +0.0000000000000000e+00 +7.5999992217375922e+00 -7.8386189760291697e-04 +0.0000000000000000e+00 +9.9999969278021561e-01
7.6999999999999886e+00 +9.0967424958801768e+00 +0.0000000000000000e+00 +7.6999991906095824e+00 -7.9417642118255331e-04 +0.0000000000000000e+00 +9.9999968464185640e-01
7.7999999999999883e+00 +9.0966625625119590e+00 +0.0000000000000000e+00 +7.7999991586624171e+00 -8.0449094284610148e-04 +0.0000000000000000e+00 +9.9999967639710918e-01
7.8999999999999879e+00 +9.0965815976916815e+00 +0.0000000000000000e+00 +7.8999991258854578e+00 -8.1480546232862443e-04 +0.0000000000000000e+00 +9.9999966804597429e-01
7.9999999999999876e+00 +9.0964996014195734e+00 +0.0000000000000000e+00 +7.9999990922680659e+00 -8.2511997944590288e-04 +0.0000000000000000e+00 +9.9999965958845194e-01
8.0999999999999872e+00 +9.0964165736958762e+00 +0.0000000000000000e+00 +8.0999990577996019e+00 -8.3543449409445418e-04 +0.0000000000000000e+00 +9.9999965102454225e-01
8.1999999999999869e+00 +9.0963325145208387e+00 +0.0000000000000000e+00 +8.1999990224694272e+00 -8.4574900625155247e-04 +0.0000000000000000e+00 +9.9999964235424532e-01
8.2999999999999865e+00 +9.0962474238947078e+00 +0.0000000000000000e+00 +8.2999989862669032e+00 -8.5606351597524886e-04 +0.0000000000000000e+00 +9.9999963357756128e-01
8.3999999999999861e+00 +9.0961613018177196e+00 +0.0000000000000000e+00 +8.3999989491813931e+00 -8.6637802340439269e-04 +0.0000000000000000e+00 +9.9999962469449000e-01
8.4999999999999858e+00 +9.0960741482900946e+00 +0.0000000000000000e+00 +8.4999989112022565e+00 -8.7669252875865274e-04 +0.0000000000000000e+00 +9.9999961570503126e-01
8.5999999999999854e+00 +9.0959859633120264e+00 +0.0000000000000000e+00 +8.5999988723188530e+00 -8.8700703233304638e-04 +0.0000000000000000e+00 +9.9999960660918497e-01
8.6999999999999851e+00 +9.0958967468836764e+00 +0.0000000000000000e+00 +8.6999988325205457e+00 -8.9732153443752892e-04 +0.0000000000000000e+00 +9.9999959740695088e-01
8.7999999999999847e+00 +9.0958064990051781e+00 +0.0000000000000000e+00 +8.7999987917966962e+00 -9.0763603533656047e-04 +0.0000000000000000e+00 +9.9999958809832890e-01
8.8999999999999844e+00 +9.0957152196766415e+00 +0.0000000000000000e+00 +8.8999987501366657e+00 -9.1795053524359701e-04 +0.0000000000000000e+00 +9.9999957868331868e-01
8.9999999999999840e+00 +9.0956229088981573e+00 +0.0000000000000000e+00 +8.9999987075298140e+00 -9.2826503432107306e-04 +0.0000000000000000e+00 +9.9999956916192023e-01
9.0999999999999837e+00 +9.0955295666698017e+00 +0.0000000000000000e+00 +9.0999986639655042e+00 -9.3857953268038454e-04 +0.0000000000000000e+00 +9.9999955953413344e-01
9.1999999999999833e+00 +9.0954351929916424e+00 +0.0000000000000000e+00 +9.1999986194330958e+00 -9.4889403038187089e-04 +0.0000000000000000e+00 +9.9999954979995820e-01
9.2999999999999829e+00 +9.0953397878637467e+00 +0.0000000000000000e+00 +9.2999985739219504e+00 -9.5920852743479616e-04 +0.0000000000000000e+00 +9.9999953995939461e-01
9.3999999999999826e+00 +9.0952433512861788e+00 +0.0000000000000000e+00 +9.3999985274214293e+00 -9.6952302379733012e-04 +0.0000000000000000e+00 +9.9999953001244268e-01
9.4999999999999822e+00 +9.0951458832590131e+00 +0.0000000000000000e+00 +9.4999984799208939e+00 -9.7983751937652866e-04 +0.0000000000000000e+00 +9.9999951995910252e-01
9.5999999999999819e+00 +9.0950473837823349e+00 +0.0000000000000000e+00 +9.5999984314097038e+00 -9.9015201402831345e-04 +0.0000000000000000e+00 +9.9999950979937435e-01
9.6999999999999815e+00 +9.0949478528562455e+00 +0.0000000000000000e+00 +9.6999983818772222e+00 -1.0004665075574511e-03 +0.0000000000000000e+00 +9.9999949953325828e-01
9.7999999999999812e+00 +9.0948472904808693e+00 +0.0000000000000000e+00 +9.7999983313128087e+00 -1.0107809997175316e-03 +0.0000000000000000e+00 +9.9999948916075476e-01
9.8999999999999808e+00 +9.0947456966563571e+00 +0.0000000000000000e+00 +9.8999982797058266e+00 -1.0210954902109466e-03 +0.0000000000000000e+00 +9.9999947868186401e-01
9.9999999999999805e+00 +9.0946430713828939e+00 +0.0000000000000000e+00 +9.9999982270456353e+00 -1.0314099786888666e-03 +0.0000000000000000e+00 +9.9999946809658646e-01
1.0099999999999980e+01 +9.0945394146606997e+00 +0.0000000000000000e+00 +1.0099998173321598e+01 -1.0417244647512184e-03 +0.0000000000000000e+00 +9.9999945740492258e-01
1.0199999999999980e+01 +9.0944347264900394e+00 +0.0000000000000000e+00 +1.0199998118523075e+01 -1.0520389479466608e-03 +0.0000000000000000e+00 +9.9999944660687290e-01
1.0299999999999979e+01 +9.0943290068712237e+00 +0.0000000000000000e+00 +1.0299998062639427e+01 -1.0623534277725605e-03 +0.0000000000000000e+00 +9.9999943570243810e-01
1.0399999999999979e+01 +9.0942222558046169e+00 +0.0000000000000000e+00 +1.0399998005660017e+01 -1.0726679036749678e-03 +0.0000000000000000e+00 +9.9999942469161884e-01
1.0499999999999979e+01 +9.0941144732906398e+00 +0.0000000000000000e+00 +1.0499997947574204e+01 -1.0829823750485906e-03 +0.0000000000000000e+00 +9.9999941357441580e-01
1.0599999999999978e+01 +9.0940056593297793e+00 +0.0000000000000000e+00 +1.0599997888371353e+01 -1.0932968412392986e-03 +0.0000000000000000e+00 +9.9999940235082996e-01
1.0699999999999978e+01 +9.0938958139225878e+00 +0.0000000000000000e+00 +1.0699997828040825e+01 -1.1036113015719337e-03 +0.0000000000000000e+00 +9.9999939102086222e-01
1.0799999999999978e+01 +9.0937849370696835e+00 +0.0000000000000000e+00 +1.0799997766571980e+01 -1.1139257553781396e-03 +0.0000000000000000e+00 +9.9999937958451346e-01
1.0899999999999977e+01 +9.0936730287717520e+00 +0.0000000000000000e+00 +1.0899997703954181e+01 -1.1242402019989014e-03 +0.0000000000000000e+00 +9.9999936804178458e-01
1.0999999999999977e+01 +9.0935600890295447e+00 +0.0000000000000000e+00 +1.0999997640176790e+01 -1.1345546407845540e-03 +0.0000000000000000e+00 +9.9999935639267656e-01
1.1099999999999977e+01 +9.0934461178438770e+00 +0.0000000000000000e+00 +1.1099997575229169e+01 -1.1448690710947915e-03 +0.0000000000000000e+00 +9.9999934463719042e-01
1.1199999999999976e+01 +9.0933311152156282e+00 +0.0000000000000000e+00 +1.1199997509100681e+01 -1.1551834922986770e-03 +0.0000000000000000e+00 +9.9999933277532715e-01
1.1299999999999976e+01 +9.0932150811457415e+00 +0.0000000000000000e+00 +1.1299997441780688e+01 -1.1654979037746527e-03 +0.0000000000000000e+00 +9.9999932080708764e-01
1.1399999999999975e+01 +9.0930980156352188e+00 +0.0000000000000000e+00 +1.1399997373258552e+01 -1.1758123049105498e-03 +0.0000000000000000e+00 +9.9999930873247300e-01
1.1499999999999975e+01 +9.0929799186851241e+00 +0.0000000000000000e+00 +1.1499997303523637e+01 -1.1861266951035984e-03 +0.0000000000000000e+00 +9.9999929655148423e-01
1.1599999999999975e+01 +9.0928607902965819e+00 +0.0000000000000000e+00 +1.1599997232565304e+01 -1.1964410737604395e-03 +0.0000000000000000e+00 +9.9999928426412243e-01
1.1699999999999974e+01 +9.0927406304707752e+00 +0.0000000000000000e+00 +1.1699997160372916e+01 -1.2067554402971346e-03 +0.0000000000000000e+00 +9.9999927187038862e-01
1.1799999999999974e+01 +9.0926194392089457e+00 +0.0000000000000000e+00 +1.1799997086935836e+01 -1.2170697941391779e-03 +0.0000000000000000e+00 +9.9999925937028389e-01
