# field on trajectory
# s[mm] rx[mm] ry[mm] rz[mm] bx[T] by[T] bz[T]
0.0000000000000000e+00 +9.1076201166355002e+00 +0.0000000000000000e+00 +0.0000000000000000e+00 +1.1096778583285933e-02 -1.0334088471226490e+00 -5.9237078846133259e-02
1.0005104645227200e-01 +9.1076196006322601e+00 +0.0000000000000000e+00 +1.0005104645049701e-01 +1.1096800895332675e-02 -1.0334044898264934e+00 -5.9238441101985000e-02
2.0010209290454301e-01 +9.1076180526189905e+00 +0.0000000000000000e+00 +2.0010209289035000e-01 +1.1096816310757488e-02 -1.0334001664991785e+00 -5.9239776291354872e-02
3.0015313935681498e-01 +9.1076154725992300e+00 +0.0000000000000000e+00 +3.0015313930891202e-01 +1.1096824105071902e-02 -1.0333958797192098e+00 -5.9241083368706419e-02
4.0020418580908601e-01 +9.1076118605712200e+00 +0.0000000000000000e+00 +4.0020418569554000e-01 +1.1096823553787140e-02 -1.0333916320652450e+00 -5.9242361288504977e-02
5.0025523226135804e-01 +9.1076072165331805e+00 +0.0000000000000000e+00 +5.0025523203958799e-01 +1.1096813932413073e-02 -1.0333874261160740e+00 -5.9243609005219328e-02
6.0030627871362996e-01 +9.1076015404886608e+00 +0.0000000000000000e+00 +6.0030627833041095e-01 +1.1096794796599989e-02 -1.0333832645360668e+00 -5.9244825675509115e-02
7.0035732516590099e-01 +9.1075948324376501e+00 +0.0000000000000000e+00 +7.0035732455736299e-01 +1.1096766814023809e-02 -1.0333791503289154e+00 -5.9246011258616435e-02
8.0040837161817302e-01 +9.1075870923766207e+00 +0.0000000000000000e+00 +8.0040837070980198e-01 +1.1096730928245487e-02 -1.0333750865823719e+00 -5.9247165912897637e-02
9.0045941807044405e-01 +9.1075783203073204e+00 +0.0000000000000000e+00 +9.0045941677707997e-01 +1.1096688082822858e-02 -1.0333710763839554e+00 -5.9248289796705357e-02
1.0005104645227201e+00 +9.1075685162297706e+00 +0.0000000000000000e+00 +1.0005104627485499e+00 +1.1096639221310446e-02 -1.0333671228208809e+00 -5.9249383068387597e-02
1.1005615109749900e+00 +9.1075576801457405e+00 +0.0000000000000000e+00 +1.1005615086135800e+00 +1.1096585287258959e-02 -1.0333632289799639e+00 -5.9250445886285717e-02
1.2006125574272599e+00 +9.1075458120516792e+00 +0.0000000000000000e+00 +1.2006125543615100e+00 +1.1096527224215121e-02 -1.0333593979475473e+00 -5.9251478408733703e-02
1.3006636038795301e+00 +9.1075329119511395e+00 +0.0000000000000000e+00 +1.3006635999817000e+00 +1.1096465975720837e-02 -1.0333556328093834e+00 -5.9252480794054901e-02
1.4007146503318000e+00 +9.1075189798405596e+00 +0.0000000000000000e+00 +1.4007146454635000e+00 +1.1096402485313290e-02 -1.0333519366505828e+00 -5.9253453200562155e-02
1.5007656967840699e+00 +9.1075040157234994e+00 +0.0000000000000000e+00 +1.5007656907962801e+00 +1.1096337696524062e-02 -1.0333483125554903e+00 -5.9254395786554552e-02
1.6008167432363500e+00 +9.1074880195981898e+00 +0.0000000000000000e+00 +1.6008167359693799e+00 +1.1096272552879118e-02 -1.0333447636076274e+00 -5.9255308710317096e-02
1.7008677896886200e+00 +9.1074709914646199e+00 +0.0000000000000000e+00 +1.7008677809721600e+00 +1.1096207997898200e-02 -1.0333412928895851e+00 -5.9256192130118318e-02
1.8009188361408901e+00 +9.1074529313228005e+00 +0.0000000000000000e+00 +1.8009188257939699e+00 +1.1096144975094457e-02 -1.0333379034829415e+00 -5.9257046204208810e-02
1.9009698825931600e+00 +9.1074338391727103e+00 +0.0000000000000000e+00 +1.9009698704241800e+00 +1.1096084427974072e-02 -1.0333345984681765e+00 -5.9257871090819675e-02
2.0010209290454299e+00 +9.1074137150161505e+00 +0.0000000000000000e+00 +2.0010209148521301e+00 +1.1096027300035761e-02 -1.0333313809245745e+00 -5.9258666948160552e-02
2.1010719754977001e+00 +9.1073925588495506e+00 +0.0000000000000000e+00 +2.1010719590671898e+00 +1.1095974534770639e-02 -1.0333282539301569e+00 -5.9259433934418883e-02
2.2011230219499698e+00 +9.1073703706746993e+00 +0.0000000000000000e+00 +2.2011230030586999e+00 +1.1095927075661434e-02 -1.0333252205615668e+00 -5.9260172207756999e-02
2.3011740684022501e+00 +9.1073471504933696e+00 +0.0000000000000000e+00 +2.3011740468160200e+00 +1.1095885866182304e-02 -1.0333222838939946e+00 -5.9260881926311175e-02
2.4012251148545198e+00 +9.1073228983037797e+00 +0.0000000000000000e+00 +2.4012250903285000e+00 +1.1095851849798491e-02 -1.0333194470010982e+00 -5.9261563248190229e-02
2.5012761613067900e+00 +9.1072976141041497e+00 +0.0000000000000000e+00 +2.5012761335854998e+00 +1.1095825969965169e-02 -1.0333167129549059e+00 -5.9262216331473508e-02
2.6013272077590601e+00 +9.1072712978980501e+00 +0.0000000000000000e+00 +2.6013271765763899e+00 +1.1095808838716316e-02 -1.0333140850367586e+00 -5.9262841238519409e-02
2.7013782542113298e+00 +9.1072439496836903e+00 +0.0000000000000000e+00 +2.7013782192905000e+00 +1.1095799792200101e-02 -1.0333115673391773e+00 -5.9263437663285068e-02
2.8014293006636000e+00 +9.1072155694610704e+00 +0.0000000000000000e+00 +2.8014292617172001e+00 +1.1095797859591356e-02 -1.0333091641496903e+00 -5.9264005211113038e-02
2.9014803471158799e+00 +9.1071861572302009e+00 +0.0000000000000000e+00 +2.9014803038458301e+00 +1.1095802070093159e-02 -1.0333068797554990e+00 -5.9264543487380229e-02
3.0015313935681500e+00 +9.1071557129910694e+00 +0.0000000000000000e+00 +3.0015313456657702e+00 +1.1095811452939711e-02 -1.0333047184435316e+00 -5.9265052097502165e-02
3.1015824400204202e+00 +9.1071242367454595e+00 +0.0000000000000000e+00 +3.1015823871663502e+00 +1.1095825037399143e-02 -1.0333026845004860e+00 -5.9265530646936918e-02
3.2016334864726899e+00 +9.1070917284915893e+00 +0.0000000000000000e+00 +3.2016334283369399e+00 +1.1095841852776544e-02 -1.0333007822128959e+00 -5.9265978741189974e-02
3.3016845329249600e+00 +9.1070581882277004e+00 +0.0000000000000000e+00 +3.3016844691668901e+00 +1.1095860928416733e-02 -1.0332990158671673e+00 -5.9266395985817968e-02
3.4017355793772301e+00 +9.1070236159573206e+00 +0.0000000000000000e+00 +3.4017355096455599e+00 +1.1095881293706936e-02 -1.0332973897496205e+00 -5.9266781986432468e-02
3.5017866258295101e+00 +9.1069880116786806e+00 +0.0000000000000000e+00 +3.5017865497623002e+00 +1.1095901978080020e-02 -1.0332959081465627e+00 -5.9267136348705181e-02
3.6018376722817802e+00 +9.1069513753917892e+00 +0.0000000000000000e+00 +3.6018375895064700e+00 +1.1095922011017124e-02 -1.0332945753443210e+00 -5.9267458678371514e-02
3.7018887187340499e+00 +9.1069137070966395e+00 +0.0000000000000000e+00 +3.7018886288674100e+00 +1.1095940422050579e-02 -1.0332933956292969e+00 -5.9267748581234951e-02
3.8019397651863200e+00 +9.1068750067950095e+00 +0.0000000000000000e+00 +3.8019396678344899e+00 +1.1095956240766727e-02 -1.0332923732880128e+00 -5.9268005663170989e-02
3.9019908116385902e+00 +9.1068352744833394e+00 +0.0000000000000000e+00 +3.9019907063970600e+00 +1.1095968496809019e-02 -1.0332915126071771e+00 -5.9268229530132215e-02
4.0020418580908599e+00 +9.1067945101634198e+00 +0.0000000000000000e+00 +4.0020417445444796e+00 +1.1095976219880548e-02 -1.0332908178737097e+00 -5.9268419788151429e-02
4.1020929045431300e+00 +9.1067527138370199e+00 +0.0000000000000000e+00 +4.1020927822660997e+00 +1.1095978439747091e-02 -1.0332902933748032e+00 -5.9268576043346205e-02
4.2021439509954099e+00 +9.1067098855023705e+00 +0.0000000000000000e+00 +4.2021438195512797e+00 +1.1095974186240079e-02 -1.0332899433979850e+00 -5.9268697901923718e-02
4.3021949974476801e+00 +9.1066660251594502e+00 +0.0000000000000000e+00 +4.3021948563893604e+00 +1.1095962489259328e-02 -1.0332897722311476e+00 -5.9268784970184209e-02
4.4022460438999502e+00 +9.1066211328065094e+00 +0.0000000000000000e+00 +4.4022458927697201e+00 +1.1095942378775992e-02 -1.0332897841626132e+00 -5.9268836854525726e-02
4.5022970903522204e+00 +9.1065752084488594e+00 +0.0000000000000000e+00 +4.5022969286816901e+00 +1.1095912884839298e-02 -1.0332899834811362e+00 -5.9268853161449461e-02
4.6023481368044896e+00 +9.1065282520811692e+00 +0.0000000000000000e+00 +4.6023479641146396e+00 +1.1095873400889104e-02 -1.0332903722896167e+00 -5.9268833692359572e-02
4.7023991832567598e+00 +9.1064802637070095e+00 +0.0000000000000000e+00 +4.7023989990579196e+00 +1.1095824676973252e-02 -1.0332909445270013e+00 -5.9268778976088773e-02
4.8024502297090397e+00 +9.1064312433245895e+00 +0.0000000000000000e+00 +4.8024500335008904e+00 +1.1095767779623268e-02 -1.0332916922260589e+00 -5.9268689711217536e-02
4.9025012761613098e+00 +9.1063811909321402e+00 +0.0000000000000000e+00 +4.9025010674329002e+00 +1.1095703775265201e-02 -1.0332926074182760e+00 -5.9268566596330841e-02
5.0025523226135800e+00 +9.1063301065332105e+00 +0.0000000000000000e+00 +5.0025521008432996e+00 +1.1095633730212792e-02 -1.0332936821338004e+00 -5.9268410330016147e-02
5.1026033690658501e+00 +9.1062779901260207e+00 +0.0000000000000000e+00 +5.1026031337214599e+00 +1.1095558710661096e-02 -1.0332949084014160e+00 -5.9268221610863044e-02
5.2026544155181202e+00 +9.1062248417123506e+00 +0.0000000000000000e+00 +5.2026541660567203e+00 +1.1095479782679534e-02 -1.0332962782484749e+00 -5.9268001137460717e-02
5.3027054619703904e+00 +9.1061706612886404e+00 +0.0000000000000000e+00 +5.3027051978384501e+00 +1.1095398012205493e-02 -1.0332977837008710e+00 -5.9267749608397577e-02
5.4027565084226703e+00 +9.1061154488584606e+00 +0.0000000000000000e+00 +5.4027562290559903e+00 +1.1095314465037238e-02 -1.0332994167829623e+00 -5.9267467722258334e-02
5.5028075548749404e+00 +9.1060592044200206e+00 +0.0000000000000000e+00 +5.5028072596986997e+00 +1.1095230206827615e-02 -1.0333011695175538e+00 -5.9267156177623827e-02
5.6028586013272097e+00 +9.1060019279733204e+00 +0.0000000000000000e+00 +5.6028582897559396e+00 +1.1095146303077145e-02 -1.0333030339258329e+00 -5.9266815673068761e-02
5.7029096477794798e+00 +9.1059436195183707e+00 +0.0000000000000000e+00 +5.7029093192170599e+00 +1.1095063819127383e-02 -1.0333050020273247e+00 -5.9266446907160507e-02
5.8029606942317500e+00 +9.1058842790551608e+00 +0.0000000000000000e+00 +5.8029603480714202e+00 +1.1094983820154235e-02 -1.0333070658398458e+00 -5.9266050578457498e-02
5.9030117406840201e+00 +9.1058239065854707e+00 +0.0000000000000000e+00 +5.9030113763083696e+00 +1.1094907371161221e-02 -1.0333092173794518e+00 -5.9265627385507592e-02
6.0030627871363000e+00 +9.1057625021075204e+00 +0.0000000000000000e+00 +6.0030624039172604e+00 +1.1094835536972924e-02 -1.0333114486604040e+00 -5.9265178026847151e-02
6.1031138335885702e+00 +9.1057000656213205e+00 +0.0000000000000000e+00 +6.1031134308874604e+00 +1.1094769382228160e-02 -1.0333137516951068e+00 -5.9264703200998997e-02
6.2031648800408403e+00 +9.1056365971268605e+00 +0.0000000000000000e+00 +6.2031644572083096e+00 +1.1094709971373306e-02 -1.0333161184940662e+00 -5.9264203606471028e-02
6.3032159264931096e+00 +9.1055720966241402e+00 +0.0000000000000000e+00 +6.3032154828691800e+00 +1.1094658368655643e-02 -1.0333185410658419e+00 -5.9263679941754792e-02
6.4032669729453797e+00 +9.1055065641149504e+00 +0.0000000000000000e+00 +6.4032665078594100e+00 +1.1094615638116591e-02 -1.0333210114169942e+00 -5.9263132905323791e-02
6.5033180193976499e+00 +9.1054399995957205e+00 +0.0000000000000000e+00 +6.5033175321683601e+00 +1.1094582843572162e-02 -1.0333235215521210e+00 -5.9262563195625111e-02
6.6033690658499298e+00 +9.1053724030699996e+00 +0.0000000000000000e+00 +6.6033685557853898e+00 +1.1094560653668709e-02 -1.0333260654194276e+00 -5.9261971279521007e-02
6.7034201123021999e+00 +9.1053037745378091e+00 +0.0000000000000000e+00 +6.7034195786998501e+00 +1.1094548306590296e-02 -1.0333286440141174e+00 -5.9261356785224234e-02
6.8034711587544701e+00 +9.1052341139955892e+00 +0.0000000000000000e+00 +6.8034706009011003e+00 +1.1094544716981852e-02 -1.0333312599303046e+00 -5.9260719151188197e-02
6.9035222052067402e+00 +9.1051634214468908e+00 +0.0000000000000000e+00 +6.9035216223784897e+00 +1.1094548799707211e-02 -1.0333339157669026e+00 -5.9260057815909976e-02
7.0035732516590103e+00 +9.1050916968899305e+00 +0.0000000000000000e+00 +7.0035726431213803e+00 +1.1094559469859201e-02 -1.0333366141278568e+00 -5.9259372217932614e-02
7.1036242981112796e+00 +9.1050189403247099e+00 +0.0000000000000000e+00 +7.1036236631191203e+00 +1.1094575642769094e-02 -1.0333393576223329e+00 -5.9258661795845435e-02
7.2036753445635497e+00 +9.1049451517530091e+00 +0.0000000000000000e+00 +7.2036746823610702e+00 +1.1094596234016294e-02 -1.0333421488649197e+00 -5.9257925988284943e-02
7.3037263910158297e+00 +9.1048703311712806e+00 +0.0000000000000000e+00 +7.3037257008365799e+00 +1.1094620159438231e-02 -1.0333449904758509e+00 -5.9257164233936711e-02
7.4037774374680998e+00 +9.1047944785830701e+00 +0.0000000000000000e+00 +7.4037767185350001e+00 +1.1094646335139693e-02 -1.0333478850811784e+00 -5.9256375971534971e-02
7.5038284839203699e+00 +9.1047175939865994e+00 +0.0000000000000000e+00 +7.5038277354457001e+00 +1.1094673677502854e-02 -1.0333508353130052e+00 -5.9255560639864951e-02
7.6038795303726401e+00 +9.1046396773836609e+00 +0.0000000000000000e+00 +7.6038787515580202e+00 +1.1094701103196726e-02 -1.0333538438096732e+00 -5.9254717677763059e-02
7.7039305768249102e+00 +9.1045607287706805e+00 +0.0000000000000000e+00 +7.7039297668613296e+00 +1.1094727529187106e-02 -1.0333569132159814e+00 -5.9253846524118726e-02
7.8039816232771804e+00 +9.1044807481512198e+00 +0.0000000000000000e+00 +7.8039807813449800e+00 +1.1094751872745877e-02 -1.0333600461833650e+00 -5.9252946617874044e-02
7.9040326697294496e+00 +9.1043997355235007e+00 +0.0000000000000000e+00 +7.9040317949983097e+00 +1.1094773051461100e-02 -1.0333632453701274e+00 -5.9252017398026290e-02
8.0040837161817304e+00 +9.1043176908892995e+00 +0.0000000000000000e+00 +8.0040828078106898e+00 +1.1094789983246416e-02 -1.0333665134416239e+00 -5.9251058303627833e-02
8.1041347626340006e+00 +9.1042346142468507e+00 +0.0000000000000000e+00 +8.1041338197714801e+00 +1.1094801586350966e-02 -1.0333698530704813e+00 -5.9250068773787974e-02
8.2041858090862707e+00 +9.1041505055961398e+00 +0.0000000000000000e+00 +8.2041848308700196e+00 +1.1094806779368924e-02 -1.0333732669367908e+00 -5.9249048247673422e-02
8.3042368555385409e+00 +9.1040653649371706e+00 +0.0000000000000000e+00 +8.3042358410956805e+00 +1.1094804481249249e-02 -1.0333767577283144e+00 -5.9247996164509417e-02
8.4042879019908092e+00 +9.1039791922699393e+00 +0.0000000000000000e+00 +8.4042868504377992e+00 +1.1094793611305371e-02 -1.0333803281406917e+00 -5.9246911963580812e-02
8.5043389484430794e+00 +9.1038919875980202e+00 +0.0000000000000000e+00 +8.5043378588857408e+00 +1.1094773089249438e-02 -1.0333839808775294e+00 -5.9245795084253747e-02
8.6043899948953602e+00 +9.1038037509160592e+00 +0.0000000000000000e+00 +8.6043888664288701e+00 +1.1094742178495660e-02 -1.0333877172056456e+00 -5.9244645259273913e-02
8.7044410413476303e+00 +9.1037144822276108e+00 +0.0000000000000000e+00 +8.7044398730565202e+00 +1.1094701348695475e-02 -1.0333915333194399e+00 -5.9243463251828291e-02
8.8044920877999004e+00 +9.1036241815309200e+00 +0.0000000000000000e+00 +8.8044908787580596e+00 +1.1094651333937925e-02 -1.0333954242967542e+00 -5.9242250051159143e-02
8.9045431342521706e+00 +9.1035328488259601e+00 +0.0000000000000000e+00 +8.9045418835228496e+00 +1.1094592867974776e-02 -1.0333993852121015e+00 -5.9241006646387283e-02
9.0045941807044407e+00 +9.1034404841127508e+00 +0.0000000000000000e+00 +9.0045928873402303e+00 +1.1094526684209413e-02 -1.0334034111365389e+00 -5.9239734026507951e-02
9.1046452271567109e+00 +9.1033470873930593e+00 +0.0000000000000000e+00 +9.1046438901995597e+00 +1.1094453515685661e-02 -1.0334074971375242e+00 -5.9238433180386595e-02
9.2046962736089899e+00 +9.1032526586651095e+00 +0.0000000000000000e+00 +9.2046948920902096e+00 +1.1094374095076779e-02 -1.0334116382787968e+00 -5.9237105096755192e-02
9.3047473200612600e+00 +9.1031571979306793e+00 +0.0000000000000000e+00 +9.3047458930015097e+00 +1.1094289154674097e-02 -1.0334158296202223e+00 -5.9235750764207278e-02
9.4047983665135302e+00 +9.1030607051879997e+00 +0.0000000000000000e+00 +9.4047968929228301e+00 +1.1094199426376083e-02 -1.0334200662176765e+00 -5.9234371171194594e-02
9.5048494129658003e+00 +9.1029631804370599e+00 +0.0000000000000000e+00 +9.5048478918435304e+00 +1.1094105641677043e-02 -1.0334243431228949e+00 -5.9232967306022316e-02
9.6049004594180705e+00 +9.1028646236796291e+00 +0.0000000000000000e+00 +9.6048988897529508e+00 +1.1094008531655951e-02 -1.0334286553833412e+00 -5.9231540156844849e-02
9.7049515058703406e+00 +9.1027650349139595e+00 +0.0000000000000000e+00 +9.7049498866404598e+00 +1.1093908826965466e-02 -1.0334329980420784e+00 -5.9230090711662180e-02
9.8050025523226108e+00 +9.1026644141418007e+00 +0.0000000000000000e+00 +9.8050008824953991e+00 +1.1093807257820566e-02 -1.0334373661376239e+00 -5.9228619958315076e-02
9.9050535987748898e+00 +9.1025627613596107e+00 +0.0000000000000000e+00 +9.9050518773071392e+00 +1.1093704553987671e-02 -1.0334417547038308e+00 -5.9227128884481756e-02
1.0005104645227201e+01 +9.1024600765709298e+00 +0.0000000000000000e+00 +1.0005102871065001e+01 +1.1093601444773095e-02 -1.0334461587697223e+00 -5.9225618477672264e-02
1.0105155691679400e+01 +9.1023563597757793e+00 +0.0000000000000000e+00 +1.0105153863758400e+01 +1.1093498659012234e-02 -1.0334505733593840e+00 -5.9224089725225630e-02
1.0205206738131700e+01 +9.1022516109723703e+00 +0.0000000000000000e+00 +1.0205204855376600e+01 +1.1093396925058341e-02 -1.0334549934918236e+00 -5.9222543614305373e-02
1.0305257784584001e+01 +9.1021458301607101e+00 +0.0000000000000000e+00 +1.0305255845909100e+01 +1.1093296970771263e-02 -1.0334594141808271e+00 -5.9220981131894897e-02
1.0405308831036200e+01 +9.1020390173425607e+00 +0.0000000000000000e+00 +1.0405306835345099e+01 +1.1093199523506313e-02 -1.0334638304348229e+00 -5.9219403264793413e-02
1.0505359877488500e+01 +9.1019311725161600e+00 +0.0000000000000000e+00 +1.0505357823674100e+01 +1.1093105310078700e-02 -1.0334682372568493e+00 -5.9217810999600599e-02
1.0605410923940800e+01 +9.1018222956832808e+00 +0.0000000000000000e+00 +1.0605408810885301e+01 +1.1093014870135866e-02 -1.0334726303404860e+00 -5.9216205234497894e-02
1.0705461970393101e+01 +9.1017123868421397e+00 +0.0000000000000000e+00 +1.0705459796968199e+01 +1.1092928107077765e-02 -1.0334770077475817e+00 -5.9214586566846604e-02
1.0805513016845300e+01 +9.1016014459927401e+00 +0.0000000000000000e+00 +1.0805510781912000e+01 +1.1092844789318568e-02 -1.0334813680428978e+00 -5.9212955529938334e-02
1.0905564063297600e+01 +9.1014894731368603e+00 +0.0000000000000000e+00 +1.0905561765706199e+01 +1.1092764685750817e-02 -1.0334857097893797e+00 -5.9211312656998555e-02
1.1005615109749900e+01 +9.1013764682745109e+00 +0.0000000000000000e+00 +1.1005612748340100e+01 +1.1092687565758024e-02 -1.0334900315481217e+00 -5.9209658481185888e-02
1.1105666156202100e+01 +9.1012624314038906e+00 +0.0000000000000000e+00 +1.1105663729803000e+01 +1.1092613199227084e-02 -1.0334943318783312e+00 -5.9207993535591356e-02
1.1205717202654400e+01 +9.1011473625250208e+00 +0.0000000000000000e+00 +1.1205714710084401e+01 +1.1092541356560624e-02 -1.0334986093372791e+00 -5.9206318353236614e-02
1.1305768249106700e+01 +9.1010312616396707e+00 +0.0000000000000000e+00 +1.1305765689173500e+01 +1.1092471808689443e-02 -1.0335028624802600e+00 -5.9204633467073255e-02
1.1405819295559001e+01 +9.1009141287460693e+00 +0.0000000000000000e+00 +1.1405816667059700e+01 +1.1092404327085130e-02 -1.0335070898605667e+00 -5.9202939409982294e-02
1.1505870342011200e+01 +9.1007959638459806e+00 +0.0000000000000000e+00 +1.1505867643732399e+01 +1.1092338683772280e-02 -1.0335112900294330e+00 -5.9201236714772329e-02
1.1605921388463500e+01 +9.1006767669376405e+00 +0.0000000000000000e+00 +1.1605918619181001e+01 +1.1092274651341176e-02 -1.0335154615360111e+00 -5.9199525914179429e-02
1.1705972434915800e+01 +9.1005565380228095e+00 +0.0000000000000000e+00 +1.1705969593394700e+01 +1.1092212002959992e-02 -1.0335196029273146e+00 -5.9197807540865260e-02
1.1806023481367999e+01 +9.1004352770997308e+00 +0.0000000000000000e+00 +1.1806020566362900e+01 +1.1092150512387480e-02 -1.0335237127481978e+00 -5.9196082127416949e-02
