# trajectory
# s[mm] rx[mm] ry[mm] rz[mm] px[rad] py[rad] pz[rad]
0.0000000000000000e+00 +9.1013000000000002e+00 +0.0000000000000000e+00 +0.0000000000000000e+00 +0.0000000000000000e+00 +0.0000000000000000e+00 +1.0000000000000000e+00
1.0000000000000001e-01 +9.1012994843468800e+00 +0.0000000000000000e+00 +9.9999999998227340e-02 -1.0313054031411902e-05 +0.0000000000000000e+00 +9.9999999994682043e-01
2.0000000000000001e-01 +9.1012979373908678e+00 +0.0000000000000000e+00 +1.9999999998581883e-01 -2.0626057843161578e-05 +0.0000000000000000e+00 +9.9999999978728282e-01
3.0000000000000004e-01 +9.1012953591369889e+00 +0.0000000000000000e+00 +2.9999999995213872e-01 -3.0939011324122687e-05 +0.0000000000000000e+00 +9.9999999952138874e-01
4.0000000000000002e-01 +9.1012917495902830e+00 +0.0000000000000000e+00 +3.9999999988655144e-01 -4.1251914363086584e-05 +0.0000000000000000e+00 +9.9999999914913973e-01
5.0000000000000000e-01 +9.1012871087558000e+00 +0.0000000000000000e+00 +4.9999999977842158e-01 -5.1564766848762329e-05 +0.0000000000000000e+00 +9.9999999867053735e-01
5.9999999999999998e-01 +9.1012814366386010e+00 +0.0000000000000000e+00 +5.9999999961711381e-01 -6.1877568669776664e-05 +0.0000000000000000e+00 +9.9999999808558315e-01
6.9999999999999996e-01 +9.1012747332437574e+00 +0.0000000000000000e+00 +6.9999999939199320e-01 -7.2190319714673910e-05 +0.0000000000000000e+00 +9.9999999739427881e-01
7.9999999999999993e-01 +9.1012669985763530e+00 +0.0000000000000000e+00 +7.9999999909242470e-01 -8.2503019871915846e-05 +0.0000000000000000e+00 +9.9999999659662575e-01
8.9999999999999991e-01 +9.1012582326414826e+00 +0.0000000000000000e+00 +8.9999999870777347e-01 -9.2815669029881596e-05 +0.0000000000000000e+00 +9.9999999569262565e-01
9.9999999999999989e-01 +9.1012484354442513e+00 +0.0000000000000000e+00 +9.9999999822740493e-01 -1.0312826707686736e-04 +0.0000000000000000e+00 +9.9999999468228007e-01
1.0999999999999999e+00 +9.1012376069897751e+00 +0.0000000000000000e+00 +1.0999999976406847e+00 -1.1344081390108617e-04 +0.0000000000000000e+00 +9.9999999356559066e-01
1.2000000000000000e+00 +9.1012257472831823e+00 +0.0000000000000000e+00 +1.1999999969369783e+00 -1.2375330939066765e-04 +0.0000000000000000e+00 +9.9999999234255899e-01
1.3000000000000000e+00 +9.1012128563296120e+00 +0.0000000000000000e+00 +1.2999999961056519e+00 -1.3406575343365756e-04 +0.0000000000000000e+00 +9.9999999101318660e-01
1.4000000000000001e+00 +9.1011989341342137e+00 +0.0000000000000000e+00 +1.3999999951360711e+00 -1.4437814591801754e-04 +0.0000000000000000e+00 +9.9999998957747516e-01
1.5000000000000002e+00 +9.1011839807021495e+00 +0.0000000000000000e+00 +1.4999999940176023e+00 -1.5469048673162465e-04 +0.0000000000000000e+00 +9.9999998803542633e-01
1.6000000000000003e+00 +9.1011679960385923e+00 +0.0000000000000000e+00 +1.5999999927396118e+00 -1.6500277576227078e-04 +0.0000000000000000e+00 +9.9999998638704168e-01
1.7000000000000004e+00 +9.1011509801487271e+00 +0.0000000000000000e+00 +1.6999999912914661e+00 -1.7531501289766232e-04 +0.0000000000000000e+00 +9.9999998463232276e-01
1.8000000000000005e+00 +9.1011329330377464e+00 +0.0000000000000000e+00 +1.7999999896625318e+00 -1.8562719802541944e-04 +0.0000000000000000e+00 +9.9999998277127122e-01
1.9000000000000006e+00 +9.1011138547108583e+00 +0.0000000000000000e+00 +1.8999999878421758e+00 -1.9593933103307561e-04 +0.0000000000000000e+00 +9.9999998080388874e-01
2.0000000000000004e+00 +9.1010937451732801e+00 +0.0000000000000000e+00 +1.9999999858197652e+00 -2.0625141180807683e-04 +0.0000000000000000e+00 +9.9999997873017699e-01
2.1000000000000005e+00 +9.1010726044302412e+00 +0.0000000000000000e+00 +2.0999999835846670e+00 -2.1656344023813018e-04 +0.0000000000000000e+00 +9.9999997655013750e-01
2.2000000000000006e+00 +9.1010504324869803e+00 +0.0000000000000000e+00 +2.1999999811262487e+00 -2.2687541621504366e-04 +0.0000000000000000e+00 +9.9999997426377207e-01
2.3000000000000007e+00 +9.1010272293487500e+00 +0.0000000000000000e+00 +2.2999999784338776e+00 -2.3718733963856676e-04 +0.0000000000000000e+00 +9.9999997187108225e-01
2.4000000000000008e+00 +9.1010029950208082e+00 +0.0000000000000000e+00 +2.3999999754969212e+00 -2.4749921041674022e-04 +0.0000000000000000e+00 +9.9999996937206959e-01
2.5000000000000009e+00 +9.1009777295084238e+00 +0.0000000000000000e+00 +2.4999999723047477e+00 -2.5781102846589667e-04 +0.0000000000000000e+00 +9.9999996676673586e-01
2.6000000000000010e+00 +9.1009514328168741e+00 +0.0000000000000000e+00 +2.5999999688467246e+00 -2.6812279371066163e-04 +0.0000000000000000e+00 +9.9999996405508274e-01
2.7000000000000011e+00 +9.1009241049514440e+00 +0.0000000000000000e+00 +2.6999999651122204e+00 -2.7843450608395430e-04 +0.0000000000000000e+00 +9.9999996123711177e-01
2.8000000000000012e+00 +9.1008957459174216e+00 +0.0000000000000000e+00 +2.7999999610906032e+00 -2.8874616552698859e-04 +0.0000000000000000e+00 +9.9999995831282473e-01
2.9000000000000012e+00 +9.1008663557201039e+00 +0.0000000000000000e+00 +2.8999999567712416e+00 -2.9905777198927435e-04 +0.0000000000000000e+00 +9.9999995528222319e-01
3.0000000000000013e+00 +9.1008359343647918e+00 +0.0000000000000000e+00 +2.9999999521435039e+00 -3.0936932542861855e-04 +0.0000000000000000e+00 +9.9999995214530879e-01
3.1000000000000014e+00 +9.1008044818567875e+00 +0.0000000000000000e+00 +3.0999999471967596e+00 -3.1968082581112676e-04 +0.0000000000000000e+00 +9.9999994890208321e-01
3.2000000000000015e+00 +9.1007719982013988e+00 +0.0000000000000000e+00 +3.1999999419203773e+00 -3.2999227311120453e-04 +0.0000000000000000e+00 +9.9999994555254812e-01
3.3000000000000016e+00 +9.1007384834039353e+00 +0.0000000000000000e+00 +3.2999999363037258e+00 -3.4030366731155895e-04 +0.0000000000000000e+00 +9.9999994209670506e-01
3.4000000000000017e+00 +9.1007039374697065e+00 +0.0000000000000000e+00 +3.3999999303361745e+00 -3.5061500840320037e-04 +0.0000000000000000e+00 +9.9999993853455582e-01
3.5000000000000018e+00 +9.1006683604040237e+00 +0.0000000000000000e+00 +3.4999999240070934e+00 -3.6092629638544426e-04 +0.0000000000000000e+00 +9.9999993486610195e-01
3.6000000000000019e+00 +9.1006317522121982e+00 +0.0000000000000000e+00 +3.5999999173058517e+00 -3.7123753126591295e-04 +0.0000000000000000e+00 +9.9999993109134511e-01
3.7000000000000020e+00 +9.1005941128995396e+00 +0.0000000000000000e+00 +3.6999999102218193e+00 -3.8154871306053786e-04 +0.0000000000000000e+00 +9.9999992721028697e-01
3.8000000000000020e+00 +9.1005554424713555e+00 +0.0000000000000000e+00 +3.7999999027443661e+00 -3.9185984179356139e-04 +0.0000000000000000e+00 +9.9999992322292908e-01
3.9000000000000021e+00 +9.1005157409329485e+00 +0.0000000000000000e+00 +3.8999998948628618e+00 -4.0217091749753924e-04 +0.0000000000000000e+00 +9.9999991912927311e-01
4.0000000000000018e+00 +9.1004750082896209e+00 +0.0000000000000000e+00 +3.9999998865666773e+00 -4.1248194021334281e-04 +0.0000000000000000e+00 +9.9999991492932072e-01
4.1000000000000014e+00 +9.1004332445466698e+00 +0.0000000000000000e+00 +4.0999998778451827e+00 -4.2279290998992528e-04 +0.0000000000000000e+00 +9.9999991062307347e-01
4.2000000000000011e+00 +9.1003904497093853e+00 +0.0000000000000000e+00 +4.1999998686877484e+00 -4.3310382688172585e-04 +0.0000000000000000e+00 +9.9999990621053303e-01
4.3000000000000007e+00 +9.1003466237830537e+00 +0.0000000000000000e+00 +4.2999998590837460e+00 -4.4341469094607167e-04 +0.0000000000000000e+00 +9.9999990169170094e-01
4.4000000000000004e+00 +9.1003017667729544e+00 +0.0000000000000000e+00 +4.3999998490225458e+00 -4.5372550224294080e-04 +0.0000000000000000e+00 +9.9999989706657888e-01
4.5000000000000000e+00 +9.1002558786843615e+00 +0.0000000000000000e+00 +4.4999998384935189e+00 -4.6403626083496108e-04 +0.0000000000000000e+00 +9.9999989233516839e-01
4.5999999999999996e+00 +9.1002089595225417e+00 +0.0000000000000000e+00 +4.5999998274860365e+00 -4.7434696678740897e-04 +0.0000000000000000e+00 +9.9999988749747115e-01
4.6999999999999993e+00 +9.1001610092927567e+00 +0.0000000000000000e+00 +4.6999998159894698e+00 -4.8465762016820807e-04 +0.0000000000000000e+00 +9.9999988255348859e-01
4.7999999999999989e+00 +9.1001120280002592e+00 +0.0000000000000000e+00 +4.7999998039931908e+00 -4.9496822104792783e-04 +0.0000000000000000e+00 +9.9999987750322250e-01
4.8999999999999986e+00 +9.1000620156502947e+00 +0.0000000000000000e+00 +4.8999997914865716e+00 -5.0527876949978210e-04 +0.0000000000000000e+00 +9.9999987234667431e-01
4.9999999999999982e+00 +9.1000109722481035e+00 +0.0000000000000000e+00 +4.9999997784589834e+00 -5.1558926559962714e-04 +0.0000000000000000e+00 +9.9999986708384569e-01
5.0999999999999979e+00 +9.0999588977989170e+00 +0.0000000000000000e+00 +5.0999997648997981e+00 -5.2589970942596017e-04 +0.0000000000000000e+00 +9.9999986171473820e-01
5.1999999999999975e+00 +9.0999057923079576e+00 +0.0000000000000000e+00 +5.1999997507983879e+00 -5.3621010105991745e-04 +0.0000000000000000e+00 +9.9999985623935339e-01
5.2999999999999972e+00 +9.0998516557804408e+00 +0.0000000000000000e+00 +5.2999997361441258e+00 -5.4652044058527214e-04 +0.0000000000000000e+00 +9.9999985065769281e-01
5.3999999999999968e+00 +9.0997964882215747e+00 +0.0000000000000000e+00 +5.3999997209263837e+00 -5.5683072808843245e-04 +0.0000000000000000e+00 +9.9999984496975802e-01
5.4999999999999964e+00 +9.0997402896365553e+00 +0.0000000000000000e+00 +5.4999997051345346e+00 -5.6714096365843934e-04 +0.0000000000000000e+00 +9.9999983917555069e-01
5.5999999999999961e+00 +9.0996830600305714e+00 +0.0000000000000000e+00 +5.5999996887579515e+00 -5.7745114738696427e-04 +0.0000000000000000e+00 +9.9999983327507225e-01
5.6999999999999957e+00 +9.0996247994088026e+00 +0.0000000000000000e+00 +5.6999996717860073e+00 -5.8776127936830671e-04 +0.0000000000000000e+00 +9.9999982726832426e-01
5.7999999999999954e+00 +9.0995655077764184e+00 +0.0000000000000000e+00 +5.7999996542080741e+00 -5.9807135969939162e-04 +0.0000000000000000e+00 +9.9999982115530828e-01
5.8999999999999950e+00 +9.0995051851385806e+00 +0.0000000000000000e+00 +5.8999996360135265e+00 -6.0838138847976709e-04 +0.0000000000000000e+00 +9.9999981493602585e-01
5.9999999999999947e+00 +9.0994438315004373e+00 +0.0000000000000000e+00 +5.9999996171917376e+00 -6.1869136581160127e-04 +0.0000000000000000e+00 +9.9999980861047855e-01
6.0999999999999943e+00 +9.0993814468671292e+00 +0.0000000000000000e+00 +6.0999995977320802e+00 -6.2900129180004454e-04 +0.0000000000000000e+00 +9.9999980217866780e-01
6.1999999999999940e+00 +9.0993180312437847e+00 +0.0000000000000000e+00 +6.1999995776239292e+00 -6.3931116655723929e-04 +0.0000000000000000e+00 +9.9999979564059516e-01
6.2999999999999936e+00 +9.0992535846355214e+00 +0.0000000000000000e+00 +6.2999995568566574e+00 -6.4962099020632975e-04 +0.0000000000000000e+00 +9.9999978899626218e-01
6.3999999999999932e+00 +9.0991881070474427e+00 +0.0000000000000000e+00 +6.3999995354196395e+00 -6.5993076288182399e-04 +0.0000000000000000e+00 +9.9999978224567032e-01
6.4999999999999929e+00 +9.0991215984846399e+00 +0.0000000000000000e+00 +6.4999995133022495e+00 -6.7024048472959089e-04 +0.0000000000000000e+00 +9.9999977538882101e-01
6.5999999999999925e+00 +9.0990540589521860e+00 +0.0000000000000000e+00 +6.5999994904938619e+00 -6.8055015590685712e-04 +0.0000000000000000e+00 +9.9999976842571581e-01
6.6999999999999922e+00 +9.0989854884551420e+00 +0.0000000000000000e+00 +6.6999994669838507e+00 -6.9085977658220376e-04 +0.0000000000000000e+00 +9.9999976135635604e-01
6.7999999999999918e+00 +9.0989158869985474e+00 +0.0000000000000000e+00 +6.7999994427615915e+00 -7.0116934693556325e-04 +0.0000000000000000e+00 +9.9999975418074316e-01
6.8999999999999915e+00 +9.0988452545874257e+00 +0.0000000000000000e+00 +6.8999994178164581e+00 -7.1147886715821598e-04 +0.0000000000000000e+00 +9.9999974689887872e-01
6.9999999999999911e+00 +9.0987735912267791e+00 +0.0000000000000000e+00 +6.9999993921378261e+00 -7.2178833745278686e-04 +0.0000000000000000e+00 +9.9999973951076393e-01
7.0999999999999908e+00 +9.0987008969215921e+00 +0.0000000000000000e+00 +7.0999993657150693e+00 -7.3209775803324145e-04 +0.0000000000000000e+00 +9.9999973201640036e-01
7.1999999999999904e+00 +9.0986271716768226e+00 +0.0000000000000000e+00 +7.1999993385375642e+00 -7.4240712912488260e-04 +0.0000000000000000e+00 +9.9999972441578922e-01
7.2999999999999901e+00 +9.0985524154974087e+00 +0.0000000000000000e+00 +7.2999993105946857e+00 -7.5271645096434677e-04 +0.0000000000000000e+00 +9.9999971670893195e-01
7.3999999999999897e+00 +9.0984766283882639e+00 +0.0000000000000000e+00 +7.3999992818758091e+00 -7.6302572379959976e-04 +0.0000000000000000e+00 +9.9999970889582990e-01
7.4999999999999893e+00 +9.0983998103542749e+00 +0.0000000000000000e+00 +7.4999992523703103e+00 -7.7333494788993319e-04 +0.0000000000000000e+00 +9.9999970097648438e-01
7.5999999999999890e+00 +9.0983219614003019e+00 +0.0000000000000000e+00 +7.5999992220675647e+00 -7.8364412350596024e-04 +0.0000000000000000e+00 +9.9999969295089663e-01
7.6999999999999886e+00 +9.0982430815311801e+00 +0.0000000000000000e+00 +7.6999991909569481e+00 -7.9395325092961153e-04 +0.0000000000000000e+00 +9.9999968481906798e-01
7.7999999999999883e+00 +9.0981631707517128e+00 +0.0000000000000000e+00 +7.7999991590278368e+00 -8.0426233045413089e-04 +0.0000000000000000e+00 +9.9999967658099964e-01
7.8999999999999879e+00 +9.0980822290666747e+00 +0.0000000000000000e+00 +7.8999991262696065e+00 -8.1457136238407093e-04 +0.0000000000000000e+00 +9.9999966823669284e-01
7.9999999999999876e+00 +9.0980002564808107e+00 +0.0000000000000000e+00 +7.9999990926716338e+00 -8.2488034703528880e-04 +0.0000000000000000e+00 +9.9999965978614880e-01
8.0999999999999872e+00 +9.0979172529988315e+00 +0.0000000000000000e+00 +8.0999990582232950e+00 -8.3518928473472534e-04 +0.0000000000000000e+00 +9.9999965122936862e-01
8.1999999999999869e+00 +9.0978332186254161e+00 +0.0000000000000000e+00 +8.1999990229139659e+00 -8.4549817581802548e-04 +0.0000000000000000e+00 +9.9999964256635354e-01
8.2999999999999865e+00 +9.0977481533652096e+00 +0.0000000000000000e+00 +8.2999989867330246e+00 -8.5580702062716359e-04 +0.0000000000000000e+00 +9.9999963379710477e-01
8.3999999999999861e+00 +9.0976620572228217e+00 +0.0000000000000000e+00 +8.3999989496698468e+00 -8.6611581951023320e-04 +0.0000000000000000e+00 +9.9999962492162331e-01
8.4999999999999858e+00 +9.0975749302028266e+00 +0.0000000000000000e+00 +8.4999989117138082e+00 -8.7642457282145238e-04 +0.0000000000000000e+00 +9.9999961593991038e-01
8.5999999999999854e+00 +9.0974867723097645e+00 +0.0000000000000000e+00 +8.5999988728542878e+00 -8.8673328092117034e-04 +0.0000000000000000e+00 +9.9999960685196698e-01
8.6999999999999851e+00 +9.0973975835481369e+00 +0.0000000000000000e+00 +8.6999988330806612e+00 -8.9704194417587345e-04 +0.0000000000000000e+00 +9.9999959765779423e-01
8.7999999999999847e+00 +9.0973073639224111e+00 +0.0000000000000000e+00 +8.7999987923823060e+00 -9.0735056295819180e-04 +0.0000000000000000e+00 +9.9999958835739322e-01
8.8999999999999844e+00 +9.0972161134370157e+00 +0.0000000000000000e+00 +8.8999987507485994e+00 -9.1765913764690595e-04 +0.0000000000000000e+00 +9.9999957895076486e-01
8.9999999999999840e+00 +9.0971238320963401e+00 +0.0000000000000000e+00 +8.9999987081689188e+00 -9.2796766862695374e-04 +0.0000000000000000e+00 +9.9999956943791024e-01
9.0999999999999837e+00 +9.0970305199047345e+00 +0.0000000000000000e+00 +9.0999986646326416e+00 -9.3827615628943770e-04 +0.0000000000000000e+00 +9.9999955981883037e-01
9.1999999999999833e+00 +9.0969361768665120e+00 +0.0000000000000000e+00 +9.1999986201291453e+00 -9.4858460103163216e-04 +0.0000000000000000e+00 +9.9999955009352615e-01
9.2999999999999829e+00 +9.0968408029859447e+00 +0.0000000000000000e+00 +9.2999985746478071e+00 -9.5889300325699086e-04 +0.0000000000000000e+00 +9.9999954026199844e-01
9.3999999999999826e+00 +9.0967443982672638e+00 +0.0000000000000000e+00 +9.3999985281780045e+00 -9.6920136337515510e-04 +0.0000000000000000e+00 +9.9999953032424826e-01
9.4999999999999822e+00 +9.0966469627146598e+00 +0.0000000000000000e+00 +9.4999984807091167e+00 -9.7950968180196118e-04 +0.0000000000000000e+00 +9.9999952028027650e-01
9.5999999999999819e+00 +9.0965484963322787e+00 +0.0000000000000000e+00 +9.5999984322305192e+00 -9.8981795895944943e-04 +0.0000000000000000e+00 +9.9999951013008403e-01
9.6999999999999815e+00 +9.0964489991242292e+00 +0.0000000000000000e+00 +9.6999983827315930e+00 -1.0001261952758717e-03 +0.0000000000000000e+00 +9.9999949987367165e-01
9.7999999999999812e+00 +9.0963484710945721e+00 +0.0000000000000000e+00 +9.7999983322017137e+00 -1.0104343911857005e-03 +0.0000000000000000e+00 +9.9999948951104023e-01
9.8999999999999808e+00 +9.0962469122473255e+00 +0.0000000000000000e+00 +9.8999982806302604e+00 -1.0207425471296383e-03 +0.0000000000000000e+00 +9.9999947904219055e-01
9.9999999999999805e+00 +9.0961443225864631e+00 +0.0000000000000000e+00 +9.9999982280066106e+00 -1.0310506635546257e-03 +0.0000000000000000e+00 +9.9999946846712329e-01
1.0099999999999980e+01 +9.0960407021159160e+00 +0.0000000000000000e+00 +1.0099998174320143e+01 -1.0413587409130066e-03 +0.0000000000000000e+00 +9.9999945778583932e-01
1.0199999999999980e+01 +9.0959360508395672e+00 +0.0000000000000000e+00 +1.0199998119560238e+01 -1.0516667796532397e-03 +0.0000000000000000e+00 +9.9999944699833931e-01
1.0299999999999979e+01 +9.0958303687612574e+00 +0.0000000000000000e+00 +1.0299998063716272e+01 -1.0619747802106047e-03 +0.0000000000000000e+00 +9.9999943610462405e-01
1.0399999999999979e+01 +9.0957236558847843e+00 +0.0000000000000000e+00 +1.0399998006777622e+01 -1.0722827430063549e-03 +0.0000000000000000e+00 +9.9999942510469420e-01
1.0499999999999979e+01 +9.0956159122139013e+00 +0.0000000000000000e+00 +1.0499997948733670e+01 -1.0825906684477154e-03 +0.0000000000000000e+00 +9.9999941399855052e-01
1.0599999999999978e+01 +9.0955071377523264e+00 +0.0000000000000000e+00 +1.0599997889573793e+01 -1.0928985569278811e-03 +0.0000000000000000e+00 +9.9999940278619370e-01
1.0699999999999978e+01 +9.0953973325037349e+00 +0.0000000000000000e+00 +1.0699997829287369e+01 -1.1032064088260149e-03 +0.0000000000000000e+00 +9.9999939146762451e-01
1.0799999999999978e+01 +9.0952864964717683e+00 +0.0000000000000000e+00 +1.0799997767863777e+01 -1.1135142245072450e-03 +0.0000000000000000e+00 +9.9999938004284361e-01
1.0899999999999977e+01 +9.0951746296600291e+00 +0.0000000000000000e+00 +1.0899997705292398e+01 -1.1238220043226625e-03 +0.0000000000000000e+00 +9.9999936851185178e-01
1.0999999999999977e+01 +9.0950617320720877e+00 +0.0000000000000000e+00 +1.0999997641562608e+01 -1.1341297486093201e-03 +0.0000000000000000e+00 +9.9999935687464969e-01
1.1099999999999977e+01 +9.0949478037114808e+00 +0.0000000000000000e+00 +1.1099997576663787e+01 -1.1444374576902287e-03 +0.0000000000000000e+00 +9.9999934513123812e-01
1.1199999999999976e+01 +9.0948328445817133e+00 +0.0000000000000000e+00 +1.1199997510585314e+01 -1.1547451318743554e-03 +0.0000000000000000e+00 +9.9999933328161772e-01
1.1299999999999976e+01 +9.0947168546862596e+00 +0.0000000000000000e+00 +1.1299997443316570e+01 -1.1650527714566208e-03 +0.0000000000000000e+00 +9.9999932132578928e-01
1.1399999999999975e+01 +9.0945998340285659e+00 +0.0000000000000000e+00 +1.1399997374846933e+01 -1.1753603767178965e-03 +0.0000000000000000e+00 +9.9999930926375358e-01
1.1499999999999975e+01 +9.0944817826120516e+00 +0.0000000000000000e+00 +1.1499997305165781e+01 -1.1856679479250024e-03 +0.0000000000000000e+00 +9.9999929709551127e-01
1.1599999999999975e+01 +9.0943627004401080e+00 +0.0000000000000000e+00 +1.1599997234262496e+01 -1.1959754853307037e-03 +0.0000000000000000e+00 +9.9999928482106315e-01
1.1699999999999974e+01 +9.0942425875161046e+00 +0.0000000000000000e+00 +1.1699997162126454e+01 -1.2062829891737088e-03 +0.0000000000000000e+00 +9.9999927244040998e-01
1.1799999999999974e+01 +9.0941214438433846e+00 +0.0000000000000000e+00 +1.1799997088747038e+01 -1.2165904596786656e-03 +0.0000000000000000e+00 +9.9999925995355254e-01
