# multipoles
# s[mm] polynom_b[n=0][T/m^n] polynom_b[n=1][T/m^n] polynom_b[n=2][T/m^n] polynom_b[n=3][T/m^n] polynom_b[n=4][T/m^n] polynom_b[n=5][T/m^n] polynom_b[n=6][T/m^n] 
+0.0000000000000000e+00 -1.0336680496579020e+00 +2.2983035770634905e+00 +1.8930395986226792e+01 -1.8863777311612895e+02 +4.2784144675338037e+04 +2.7381690031927777e+05 -1.4571259983232749e+08 
+1.0000000000000001e-01 -1.0336695015027115e+00 +2.2984096379057442e+00 +1.8899364368496922e+01 -1.9273716619532107e+02 +4.3299062442106355e+04 +2.9802025698722748e+05 -1.4749341944478244e+08 
+2.0000000000000001e-01 -1.0336709076253967e+00 +2.2985153058614674e+00 +1.8867844806840854e+01 -1.9681930497414643e+02 +4.3822132487425712e+04 +3.2238484880060767e+05 -1.4933693200049695e+08 
+3.0000000000000004e-01 -1.0336722669906322e+00 +2.2986201050693564e+00 +1.8835850376912529e+01 -2.0086621391571614e+02 +4.4352518030650681e+04 +3.4679637253877206e+05 -1.5123771379310969e+08 
+4.0000000000000002e-01 -1.0336735785631217e+00 +2.2987235596750852e+00 +1.8803394160649251e+01 -2.0485991763651111e+02 +4.4889382101506686e+04 +3.7114052661162976e+05 -1.5319033995413586e+08 
+5.0000000000000000e-01 -1.0336748413075776e+00 +2.2988251938302557e+00 +1.8770489244257181e+01 -2.0878244086933944e+02 +4.5431887576623187e+04 +3.9530301084091741e+05 -1.5518938461062756e+08 
+5.9999999999999998e-01 -1.0336760549676485e+00 +2.2989245438258488e+00 +1.8737202624083352e+01 -2.1261645960855256e+02 +4.5978261308410365e+04 +4.1917557993840077e+05 -1.5722521081820491e+08 
+6.9999999999999996e-01 -1.0336772223977941e+00 +2.2990211924452737e+00 +1.8703816163494743e+01 -2.1634716979693687e+02 +4.6523004352272037e+04 +4.4267377108347794e+05 -1.5927144611842644e+08 
+7.9999999999999993e-01 -1.0336783472290894e+00 +2.2991147335901330e+00 +1.8670665271462703e+01 -2.1996037638013766e+02 +4.7059690339923363e+04 +4.6571896102260327e+05 -1.6129755831739900e+08 
+8.9999999999999991e-01 -1.0336794330925849e+00 +2.2992047611442983e+00 +1.8638085356129260e+01 -2.2344188359579587e+02 +4.7581892849468604e+04 +4.8823252242011280e+05 -1.6327301470206854e+08 
+9.9999999999999989e-01 -1.0336804836193478e+00 +2.2992908689750076e+00 +1.8606411829536572e+01 -2.2677749498693450e+02 +4.8083185312552858e+04 +5.1013582381168229e+05 -1.6516728159056941e+08 
+1.0999999999999999e+00 -1.0336815024404069e+00 +2.2993726509310166e+00 +1.8575980101199029e+01 -2.2995301329444888e+02 +4.8557141137962521e+04 +5.3135022874259960e+05 -1.6694982492933574e+08 
+1.2000000000000000e+00 -1.0336824931867767e+00 +2.2994497008309769e+00 +1.8547125580447673e+01 -2.3295424010553197e+02 +4.8997333667856816e+04 +5.5179709361080383e+05 -1.6859011008576238e+08 
+1.3000000000000000e+00 -1.0336834594894031e+00 +2.2995216124654463e+00 +1.8520183668673742e+01 -2.3576697587003986e+02 +4.9397336331378901e+04 +5.7139776756280917e+05 -1.7005760259708744e+08 
+1.4000000000000001e+00 -1.0336844049792460e+00 +2.2995879795911884e+00 +1.8495489771565431e+01 -2.3837701969792056e+02 +4.9750722397412137e+04 +5.9007359112402250e+05 -1.7132176695725203e+08 
+1.5000000000000002e+00 -1.0336853332871694e+00 +2.2996483959273504e+00 +1.8473379283075321e+01 -2.4077016921982923e+02 +5.0051065297481662e+04 +6.0774589524830086e+05 -1.7235206820477456e+08 
+1.6000000000000003e+00 -1.0336862480439837e+00 +2.2997024551471932e+00 +1.8454187592232586e+01 -2.4293222030742896e+02 +5.0291938479284887e+04 +6.2433599947804166e+05 -1.7311797117742851e+08 
+1.7000000000000004e+00 -1.0336871528804394e+00 +2.2997497508785072e+00 +1.8438250080752105e+01 -2.4484896706199450e+02 +5.0466915469612293e+04 +6.3976521175358398e+05 -1.7358894086614913e+08 
+1.8000000000000005e+00 -1.0336880514272149e+00 +2.2997898766989806e+00 +1.8425902122277961e+01 -2.4650620163627772e+02 +5.0569569874376473e+04 +6.5395482716309954e+05 -1.7373444237213236e+08 
+1.9000000000000006e+00 -1.0336889473148814e+00 +2.2998224261261431e+00 +1.8417479077472233e+01 -2.4788971391063748e+02 +5.0593475482125803e+04 +6.6682612589617260e+05 -1.7352394143315279e+08 
+2.0000000000000004e+00 -1.0336898441739417e+00 +2.2998469926227925e+00 +1.8413316298948384e+01 -2.4898529162241502e+02 +5.0532206162946008e+04 +6.7830037383607053e+05 -1.7292690392014465e+08 
+2.1000000000000005e+00 -1.0336907456347524e+00 +2.2998631695838303e+00 +1.8413749120593298e+01 -2.4977871994154768e+02 +5.0379336083370239e+04 +6.8829881989347015e+05 -1.7191279689767122e+08 
+2.2000000000000006e+00 -1.0336916553276034e+00 +2.2998705503373764e+00 +1.8419112868577201e+01 -2.5025578147182034e+02 +5.0128439481910063e+04 +6.9674269585051015e+05 -1.7045108751309064e+08 
+2.3000000000000007e+00 -1.0336925768826424e+00 +2.2998687281354697e+00 +1.8429742851022148e+01 -2.5040225595566579e+02 +4.9773090875627255e+04 +7.0355321449010435e+05 -1.6851124400922334e+08 
+2.4000000000000008e+00 -1.0336935139298848e+00 +2.2998572961585180e+00 +1.8445974359077322e+01 -2.5020392036020607e+02 +4.9306865038213415e+04 +7.0865156990322133e+05 -1.6606273561801684e+08 
+2.5000000000000009e+00 -1.0336944700992046e+00 +2.2998358474998670e+00 +1.8468142665066392e+01 -2.4964654839721626e+02 +4.8723337039182559e+04 +7.1195893450591608e+05 -1.6307503276128119e+08 
+2.6000000000000010e+00 -1.0336954475323670e+00 +2.2998040309254355e+00 +1.8496450508610241e+01 -2.4872000107033935e+02 +4.8018589346589069e+04 +7.1342048092630110e+05 -1.5952934927586928e+08 
+2.7000000000000011e+00 -1.0336964424254576e+00 +2.2997617690142094e+00 +1.8530569520637098e+01 -2.4743228566371323e+02 +4.7198848877842931e+04 +7.1308697186134290e+05 -1.5545456174050120e+08 
+2.8000000000000012e+00 -1.0336974494890836e+00 +2.2997090659053945e+00 +1.8570038112300654e+01 -2.4579641314782029e+02 +4.6272912788056346e+04 +7.1103804852732748e+05 -1.5089166249767011e+08 
+2.9000000000000012e+00 -1.0336984634337598e+00 +2.2996459257397697e+00 +1.8614394689917990e+01 -2.4382539443386614e+02 +4.5249578279756170e+04 +7.0735335147871973e+05 -1.4588164399895313e+08 
+3.0000000000000013e+00 -1.0336994789700031e+00 +2.2995723526746370e+00 +1.8663177667070862e+01 -2.4153224080529824e+02 +4.4137642375359625e+04 +7.0211252324833849e+05 -1.4046549774602589e+08 
+3.1000000000000014e+00 -1.0337004908082541e+00 +2.2994883508758646e+00 +1.8715925455590426e+01 -2.3892996372688245e+02 +4.2945902083676840e+04 +6.9539520735107898e+05 -1.3468421507113543e+08 
+3.2000000000000015e+00 -1.0337014936588917e+00 +2.2993939245343493e+00 +1.8772176467526389e+01 -2.3603157533012836e+02 +4.1683154372375051e+04 +6.8728105114955711e+05 -1.2857878704522334e+08 
+3.3000000000000016e+00 -1.0337024822323002e+00 +2.2992890778600561e+00 +1.8831469125315923e+01 -2.3285008829236008e+02 +4.0358195964326056e+04 +6.7784970531058707e+05 -1.2219020348394935e+08 
+3.4000000000000017e+00 -1.0337034512387939e+00 +2.2991738150889809e+00 +1.8893341851201104e+01 -2.2939851605187923e+02 +3.8979823551952439e+04 +6.6718082509714819e+05 -1.1555945400966725e+08 
+3.5000000000000018e+00 -1.0337043953886225e+00 +2.2990481404948500e+00 +1.8957333068744973e+01 -2.2568987317105814e+02 +3.7556833768276672e+04 +6.5535407256532798e+05 -1.0872752792058185e+08 
+3.6000000000000019e+00 -1.0337053093920587e+00 +2.2989120583811120e+00 +1.9022981215466441e+01 -2.2173717513823289e+02 +3.6098022941277384e+04 +6.4244911551716342e+05 -1.0173541301349293e+08 
+3.7000000000000020e+00 -1.0337061879592839e+00 +2.2987655730950971e+00 +1.9089824727294857e+01 -2.1755343880580915e+02 +3.4612187401728981e+04 +6.2854563013974309e+05 -9.4624097087957144e+07 
+3.8000000000000020e+00 -1.0337070258004992e+00 +2.2986086890324295e+00 +1.9157402054806216e+01 -2.1315168255250515e+02 +3.3108123165196514e+04 +6.1372330205491418e+05 -8.7434566414659277e+07 
+3.9000000000000021e+00 -1.0337078176258152e+00 +2.2984414106309683e+00 +1.9225251648233904e+01 -2.0854492611171926e+02 +3.1594626228067402e+04 +5.9806182534739538e+05 -8.0207807179644465e+07 
+4.0000000000000018e+00 -1.0337085581453396e+00 +2.2982637423880097e+00 +1.9292911970256494e+01 -2.0374619112401908e+02 +3.0080492319725628e+04 +5.8164090593464009e+05 -7.2984804299133271e+07 
+4.1000000000000014e+00 -1.0337092420691805e+00 +2.2980756888575677e+00 +1.9359921495618664e+01 -1.9876850107159180e+02 +2.8574516919128346e+04 +5.6454026124329353e+05 -6.5806541531244159e+07 
+4.2000000000000011e+00 -1.0337098641073530e+00 +2.2978772546552468e+00 +1.9425818701380894e+01 -1.9362488144879768e+02 +2.7085495431617644e+04 +5.4683962128801760e+05 -5.8714002298743486e+07 
+4.3000000000000007e+00 -1.0337104189699051e+00 +2.2976684444646986e+00 +1.9490142082075206e+01 -1.8832835998479550e+02 +2.5622222911192370e+04 +5.2861873008078907e+05 -5.1748168403040692e+07 
+4.4000000000000004e+00 -1.0337109013668311e+00 +2.2974492630420844e+00 +1.9552430139751344e+01 -1.8289196678229865e+02 +2.4193494247530798e+04 +5.0995734647396952e+05 -4.4950020913999379e+07 
+4.5000000000000000e+00 -1.0337113060081149e+00 +2.2972197152190401e+00 +1.9612221390387138e+01 -1.7732873443461693e+02 +2.2808104048801764e+04 +4.9093524513563380e+05 -3.8360539618812777e+07 
+4.5999999999999996e+00 -1.0337116282353196e+00 +2.2969799924595016e+00 +1.9669145927213485e+01 -1.7165363577323060e+02 +2.1473064360286960e+04 +4.7164210390471935e+05 -3.2012483651415430e+07 
+4.6999999999999993e+00 -1.0337118659318592e+00 +2.2967309471281583e+00 +1.9723192509451962e+01 -1.6588710453224058e+02 +2.0188305188953982e+04 +4.5219704563020321e+05 -2.5905992792679451e+07 
+4.7999999999999989e+00 -1.0337120176201304e+00 +2.2964735756967749e+00 +1.9774437899887715e+01 -1.6005035258530938e+02 +1.8951991033307193e+04 +4.3272406696877378e+05 -2.0033088007600304e+07 
+4.8999999999999986e+00 -1.0337120818227474e+00 +2.2962088746156182e+00 +1.9822958887283125e+01 -1.5416459050110018e+02 +1.7762285885286514e+04 +4.1334715677675686e+05 -1.4385788015907748e+07 
+4.9999999999999982e+00 -1.0337120570625387e+00 +2.2959378403039334e+00 +1.9868832284968960e+01 -1.4825102724200369e+02 +1.6617353267290320e+04 +3.9419029347053397e+05 -8.9561094293824919e+06 
+5.0999999999999979e+00 -1.0337119418626453e+00 +2.2956614691665611e+00 +1.9912134944383080e+01 -1.4233087062841739e+02 +1.5515355966989882e+04 +3.7537744770875858e+05 -3.7360654770316784e+06 
+5.1999999999999975e+00 -1.0337117347464400e+00 +2.2953807575753347e+00 +1.9952943741970966e+01 -1.3642532676599387e+02 +1.4454456305652571e+04 +3.5703257901749876e+05 +1.2823326637332912e+06 
+5.2999999999999972e+00 -1.0337114342376421e+00 +2.2950967018791664e+00 +1.9991335595895109e+01 -1.3055560032107448e+02 +1.3432815802892603e+04 +3.3927963737808354e+05 +6.1070775005437890e+06 
+5.3999999999999968e+00 -1.0337110388601904e+00 +2.2948102983981391e+00 +2.0027387447509696e+01 -1.2474289430629602e+02 +1.2448595548791489e+04 +3.2224256188630668e+05 +1.0746163397719808e+07 
+5.4999999999999964e+00 -1.0337105471384427e+00 +2.2945225434218708e+00 +2.0061176287104129e+01 -1.1900841002296772e+02 +1.1499955702531615e+04 +3.0604528044216189e+05 +1.5207588989986964e+07 
+5.5999999999999961e+00 -1.0337099575970423e+00 +2.2942344332082931e+00 +2.0092779136394828e+01 -1.1337334697704580e+02 +1.0585055838310031e+04 +2.9081170915062027e+05 +1.9499355491032198e+07 
+5.6999999999999957e+00 -1.0337092687609417e+00 +2.2939469639827177e+00 +2.0122273051502074e+01 -1.0785890285320077e+02 +9.7020548788334017e+03 +2.7666575221879740e+05 +2.3629467035885856e+07 
+5.7999999999999954e+00 -1.0337084791555287e+00 +2.2936611319392628e+00 +2.0149735137657679e+01 -1.0248627350213009e+02 +8.8491108308741004e+03 +2.6373130175976950e+05 +2.7605931888173830e+07 
+5.8999999999999950e+00 -1.0337075873065100e+00 +2.2933779332328741e+00 +2.0175242534685808e+01 -9.7276652692451208e+01 +8.0243810527693549e+03 +2.5213223634965878e+05 +3.1436761189443540e+07 
+5.9999999999999947e+00 -1.0337065917400239e+00 +2.2930983639871907e+00 +2.0198872430468377e+01 -9.2251232319088700e+01 +7.2260220059847352e+03 +2.4199242221332400e+05 +3.5129970110304520e+07 
+6.0999999999999943e+00 -1.0337054909825760e+00 +2.2928234202804592e+00 +2.0220702052650026e+01 -8.7431201956911281e+01 +6.4521894141207349e+03 +2.3343571056083709e+05 +3.8693577087602839e+07 
+6.1999999999999940e+00 -1.0337042835611105e+00 +2.2925540981584853e+00 +2.0240808677463292e+01 -8.2837749211436019e+01 +5.7010380924024412e+03 +2.2658593960395618e+05 +4.2135604636840329e+07 
+6.2999999999999936e+00 -1.0337029680030219e+00 +2.2922913936235267e+00 +2.0259269630102125e+01 -7.8492059372389150e+01 +4.9707219498282730e+03 +2.2156693249588370e+05 +4.5464079310165115e+07 
+6.3999999999999932e+00 -1.0337015428360967e+00 +2.2920363026355748e+00 +2.0276162277144849e+01 -7.4415315414413669e+01 +4.2593941321202783e+03 +2.1850249727928056e+05 +4.8687031015171222e+07 
+6.4999999999999929e+00 -1.0337000065886459e+00 +2.2917898211062395e+00 +2.0291564042014446e+01 -7.0628697904426744e+01 +3.5652067216313480e+03 +2.1751642645496351e+05 +5.1812494450755201e+07 
+6.5999999999999925e+00 -1.0336983591654902e+00 +2.2915526624629479e+00 +2.0305552316838885e+01 -6.7146791882459510e+01 +2.8866620621423117e+03 +2.1869432699331152e+05 +5.4846769108775549e+07 
+6.6999999999999922e+00 -1.0336966058355939e+00 +2.2913245539279661e+00 +2.0318205547331299e+01 -6.3959899900331180e+01 +2.2235607192772750e+03 +2.2197289532274668e+05 +5.7790236951389737e+07 
+6.7999999999999918e+00 -1.0336947531749898e+00 +2.2911050100632848e+00 +2.0329602241881659e+01 -6.1052698818599644e+01 +1.5760079762632238e+03 +2.2725180502528083e+05 +6.0642061830474146e+07 
+6.8999999999999915e+00 -1.0336928077594683e+00 +2.2908935454552055e+00 +2.0339820869050499e+01 -5.8409867826561047e+01 +9.4410999443031699e+02 +2.3443074605000031e+05 +6.3401403041315876e+07 
+6.9999999999999911e+00 -1.0336907761644072e+00 +2.2906896747238896e+00 +2.0348939835667835e+01 -5.6016089172682953e+01 +3.2797427015926183e+02 +2.4340943207726500e+05 +6.6067412833826900e+07 
+7.0999999999999908e+00 -1.0336886649649688e+00 +2.2904929125229838e+00 +2.0357037511963171e+01 -5.3856048251814478e+01 -2.7229084063467445e+02 +2.5408760130517025e+05 +6.8639238657679871e+07 
+7.1999999999999904e+00 -1.0336864807359027e+00 +2.2903027735361934e+00 +2.0364192204697996e+01 -5.1914433571100169e+01 -8.5657559714211334e+02 +2.6636501641468657e+05 +7.1116020623383045e+07 
+7.2999999999999901e+00 -1.0336842300516551e+00 +2.2901187724949037e+00 +2.0370482173068293e+01 -5.0175937372003148e+01 -1.4247691821937433e+03 +2.8014146847582544e+05 +7.3496892975049347e+07 
+7.3999999999999897e+00 -1.0336819194863194e+00 +2.2899404241593744e+00 +2.0375985619922396e+01 -4.8625255151022984e+01 -1.9767595193601214e+03 +2.9531677434545668e+05 +7.5780983175010458e+07 
+7.4999999999999893e+00 -1.0336795556135412e+00 +2.2897672433335923e+00 +2.0380780680313002e+01 -4.7247086202572824e+01 -2.5124330483637755e+03 +3.1179078011165827e+05 +7.7967410806236625e+07 
+7.5999999999999890e+00 -1.0336771450066327e+00 +2.2895987448650157e+00 +2.0384945435582988e+01 -4.6026133674372879e+01 -3.0316749963771426e+03 +3.2946336159159907e+05 +8.0055288871773675e+07 
+7.6999999999999886e+00 -1.0336746942384611e+00 +2.2894344436395779e+00 +2.0388557898292650e+01 -4.4947104523568726e+01 -3.5343690709566167e+03 +3.4823442433455784e+05 +8.2043722265911117e+07 
+7.7999999999999883e+00 -1.0336722098815061e+00 +2.2892738545929809e+00 +2.0391696019856791e+01 -4.3994709931582797e+01 -4.0203976124692481e+03 +3.6800390627561649e+05 +8.3931808518043652e+07 
+7.8999999999999879e+00 -1.0336696985077938e+00 +2.2891164927008165e+00 +2.0394437681428759e+01 -4.3153665101010262e+01 -4.4896414055783562e+03 +3.8867177676424378e+05 +8.5718636844650552e+07 
+7.9999999999999876e+00 -1.0336671666888690e+00 +2.2889618729931165e+00 +2.0396860689875091e+01 -4.2408689770384491e+01 -4.9419795986717700e+03 +4.1013803981869551e+05 +8.7403287750063524e+07 
+8.0999999999999872e+00 -1.0336646209958535e+00 +2.2888095105408839e+00 +2.0399042785326561e+01 -4.1744507904701827e+01 -5.3772898456035728e+03 +4.3230273252436821e+05 +8.8984833691092610e+07 
+8.1999999999999869e+00 -1.0336620679993502e+00 +2.2886589204739440e+00 +2.0401061627502102e+01 -4.1145848307911315e+01 -5.7954480289589483e+03 +4.5506592885919585e+05 +9.0462337706459582e+07 
+8.2999999999999865e+00 -1.0336595142694878e+00 +2.2885096179681668e+00 +2.0402994802764557e+01 -4.0597444334904850e+01 -6.1963284010965708e+03 +4.7832773823631892e+05 +9.1834854101206839e+07 
+8.3999999999999861e+00 -1.0336569663758917e+00 +2.2883611182566721e+00 +2.0404919818109484e+01 -4.0084034300957740e+01 -6.5798034509444151e+03 +5.0198830810229335e+05 +9.3101427756005660e+07 
+8.4999999999999858e+00 -1.0336544308875755e+00 +2.2882129365930322e+00 +2.0406914086565404e+01 -3.9590359673221506e+01 -6.9457435295729101e+03 +5.2594780712910683e+05 +9.4261091614268288e+07 
+8.5999999999999854e+00 -1.0336519131529756e+00 +2.2880648154126662e+00 +2.0409026768581889e+01 -3.9105733813726054e+01 -7.2937303735293708e+03 +5.5012417299694137e+05 +9.5311008374724090e+07 
+8.6999999999999851e+00 -1.0336494140667110e+00 +2.2879173199626801e+00 +2.0411231995905563e+01 -3.8637534789254126e+01 -7.6229422585044076e+03 +5.7451978152702365e+05 +9.6244885029207990e+07 
+8.7999999999999847e+00 -1.0336469335210010e+00 +2.2877711959485851e+00 +2.0413495783576661e+01 -3.8197457642770608e+01 -7.9326587884933078e+03 +5.9916041342881054e+05 +9.7056556628605977e+07 
+8.8999999999999844e+00 -1.0336444714086797e+00 +2.2876271889783264e+00 +2.0415784219322905e+01 -3.7797194679560590e+01 -8.2221609919205021e+03 +6.2407184002416139e+05 +9.7739865582795769e+07 
+8.9999999999999840e+00 -1.0336420276230798e+00 +2.2874860445964749e+00 +2.0418063444182298e+01 -3.7448436086337367e+01 -8.4907309499196435e+03 +6.4927982313573209e+05 +9.8288660180249676e+07 
+9.0999999999999837e+00 -1.0336396020580945e+00 +2.2873485082614575e+00 +2.0420299660984806e+01 -3.7162869234812327e+01 -8.7376519653896139e+03 +6.7481011104544112e+05 +9.8696795435232460e+07 
+9.1999999999999833e+00 -1.0336371946081362e+00 +2.2872153253605796e+00 +2.0422459127632788e+01 -3.6952179108954674e+01 -8.9622084282837022e+03 +7.0068844102563290e+05 +9.8958132455763012e+07 
+9.2999999999999829e+00 -1.0336348051682047e+00 +2.2870872412048882e+00 +2.0424508166793490e+01 -3.6828048120921068e+01 -9.1636860134830640e+03 +7.2694053826256539e+05 +9.9066539446489766e+07 
+9.3999999999999826e+00 -1.0336324336338532e+00 +2.2869650010185776e+00 +2.0426413160472503e+01 -3.6802155791226554e+01 -9.3413715714680620e+03 +7.5359211405460443e+05 +9.9015891194976687e+07 
+9.4999999999999822e+00 -1.0336300799012665e+00 +2.2868493499464244e+00 +2.0428140560707313e+01 -3.6886178923755956e+01 -9.4945533417973911e+03 +7.8066886678290251e+05 +9.8800070143001825e+07 
+9.5999999999999819e+00 -1.0336277438671981e+00 +2.2867410330462286e+00 +2.0429656880531301e+01 -3.7091791378455376e+01 -9.6225207761900983e+03 +8.0819648067509383e+05 +9.8412965551094607e+07 
+9.6999999999999815e+00 -1.0336254254290416e+00 +2.2866407952878745e+00 +2.0430928703237097e+01 -3.7430664029023973e+01 -9.7245647219791008e+03 +8.3620062559274444e+05 +9.7848474420506150e+07 
+9.7999999999999812e+00 -1.0336231244848471e+00 +2.2865493815542970e+00 +2.0431922684337962e+01 -3.7914464726401114e+01 -9.7999774623629492e+03 +8.6470695671837660e+05 +9.7100501716394544e+07 
+9.8999999999999808e+00 -1.0336208409333043e+00 +2.2864675366316534e+00 +2.0432605549081611e+01 -3.8554858029054579e+01 -9.8480526679539071e+03 +8.9374111312854744e+05 +9.6162960156310290e+07 
+9.9999999999999805e+00 -1.0336185746737900e+00 +2.2863960052180197e+00 +2.0432944098182691e+01 -3.9363505433778954e+01 -9.8680855137516919e+03 +9.2332871915264043e+05 +9.5029770818948209e+07 
+1.0099999999999980e+01 -1.0336163256063393e+00 +2.2863355319101717e+00 +2.0432905204754157e+01 -4.0352064934353166e+01 -9.8593726192858721e+03 +9.5349538173411542e+05 +9.3694862873078808e+07 
