# trajectory
# s[mm] rx[mm] ry[mm] rz[mm] px[rad] py[rad] pz[rad]
0.0000000000000000e+00 +9.1013000000000002e+00 +0.0000000000000000e+00 +0.0000000000000000e+00 +0.0000000000000000e+00 +0.0000000000000000e+00 +1.0000000000000000e+00
1.0000000000000001e-01 +9.1012994834858034e+00 +0.0000000000000000e+00 +9.9999999998221428e-02 -1.0330285776638154e-05 +0.0000000000000000e+00 +9.9999999994664257e-01
2.0000000000000001e-01 +9.1012979339424849e+00 +0.0000000000000000e+00 +1.9999999998577134e-01 -2.0660582330262978e-05 +0.0000000000000000e+00 +9.9999999978657017e-01
3.0000000000000004e-01 +9.1012953513689947e+00 +0.0000000000000000e+00 +2.9999999995197824e-01 -3.0990889144324289e-05 +0.0000000000000000e+00 +9.9999999951978236e-01
4.0000000000000002e-01 +9.1012917357643310e+00 +0.0000000000000000e+00 +3.9999999988617063e-01 -4.1321205709670624e-05 +0.0000000000000000e+00 +9.9999999914627891e-01
5.0000000000000000e-01 +9.1012870871275435e+00 +0.0000000000000000e+00 +4.9999999977767684e-01 -5.1651531524546691e-05 +0.0000000000000000e+00 +9.9999999866605960e-01
5.9999999999999998e-01 +9.1012814054577333e+00 +0.0000000000000000e+00 +5.9999999961582529e-01 -6.1981866096025927e-05 +0.0000000000000000e+00 +9.9999999807912410e-01
6.9999999999999996e-01 +9.1012746907540478e+00 +0.0000000000000000e+00 +6.9999999938994439e-01 -7.2312208955799652e-05 +0.0000000000000000e+00 +9.9999999738547218e-01
7.9999999999999993e-01 +9.1012669430156805e+00 +0.0000000000000000e+00 +7.9999999908936248e-01 -8.2642559675967069e-05 +0.0000000000000000e+00 +9.9999999658510363e-01
8.9999999999999991e-01 +9.1012581622418640e+00 +0.0000000000000000e+00 +8.9999999870340786e-01 -9.2972917870469345e-05 +0.0000000000000000e+00 +9.9999999567801823e-01
9.9999999999999989e-01 +9.1012483484318683e+00 +0.0000000000000000e+00 +9.9999999822140884e-01 -1.0330328319508839e-04 +0.0000000000000000e+00 +9.9999999466421574e-01
1.0999999999999999e+00 +9.1012375015849969e+00 +0.0000000000000000e+00 +1.0999999976326937e+00 -1.1363365534744602e-04 +0.0000000000000000e+00 +9.9999999354369606e-01
1.2000000000000000e+00 +9.1012256217005802e+00 +0.0000000000000000e+00 +1.1999999969265909e+00 -1.2396403406700346e-04 +0.0000000000000000e+00 +9.9999999231645897e-01
1.3000000000000000e+00 +9.1012127087779717e+00 +0.0000000000000000e+00 +1.2999999960924284e+00 -1.3429441913506121e-04 +0.0000000000000000e+00 +9.9999999098250436e-01
1.4000000000000001e+00 +9.1011987628165478e+00 +0.0000000000000000e+00 +1.3999999951195345e+00 -1.4462481037475928e-04 +0.0000000000000000e+00 +9.9999998954183200e-01
1.5000000000000002e+00 +9.1011837838156957e+00 +0.0000000000000000e+00 +1.4999999939972375e+00 -1.5495520765107778e-04 +0.0000000000000000e+00 +9.9999998799444167e-01
1.6000000000000003e+00 +9.1011677717748185e+00 +0.0000000000000000e+00 +1.5999999927148656e+00 -1.6528561087083784e-04 +0.0000000000000000e+00 +9.9999998634033327e-01
1.7000000000000004e+00 +9.1011507266933247e+00 +0.0000000000000000e+00 +1.6999999912617469e+00 -1.7561601998270299e-04 +0.0000000000000000e+00 +9.9999998457950656e-01
1.8000000000000005e+00 +9.1011326485706263e+00 +0.0000000000000000e+00 +1.7999999896272096e+00 -1.8594643497718081e-04 +0.0000000000000000e+00 +9.9999998271196144e-01
1.9000000000000006e+00 +9.1011135374061318e+00 +0.0000000000000000e+00 +1.8999999878005820e+00 -1.9627685588662489e-04 +0.0000000000000000e+00 +9.9999998073769769e-01
2.0000000000000004e+00 +9.1010933931992479e+00 +0.0000000000000000e+00 +1.9999999857711919e+00 -2.0660728278523740e-04 +0.0000000000000000e+00 +9.9999997865671508e-01
2.1000000000000005e+00 +9.1010722159493707e+00 +0.0000000000000000e+00 +2.0999999835283676e+00 -2.1693771578907162e-04 +0.0000000000000000e+00 +9.9999997646901340e-01
2.2000000000000006e+00 +9.1010500056558818e+00 +0.0000000000000000e+00 +2.1999999810614370e+00 -2.2726815505603527e-04 +0.0000000000000000e+00 +9.9999997417459241e-01
2.3000000000000007e+00 +9.1010267623181438e+00 +0.0000000000000000e+00 +2.2999999783597285e+00 -2.3759860078589380e-04 +0.0000000000000000e+00 +9.9999997177345190e-01
2.4000000000000008e+00 +9.1010024859355010e+00 +0.0000000000000000e+00 +2.3999999754125700e+00 -2.4792905322027441e-04 +0.0000000000000000e+00 +9.9999996926559165e-01
2.5000000000000009e+00 +9.1009771765072678e+00 +0.0000000000000000e+00 +2.4999999722092894e+00 -2.5825951264267012e-04 +0.0000000000000000e+00 +9.9999996665101132e-01
2.6000000000000010e+00 +9.1009508340327301e+00 +0.0000000000000000e+00 +2.5999999687392150e+00 -2.6858997937298447e-04 +0.0000000000000000e+00 +9.9999996392971069e-01
2.7000000000000011e+00 +9.1009234585111400e+00 +0.0000000000000000e+00 +2.6999999649916742e+00 -2.7892045370747648e-04 +0.0000000000000000e+00 +9.9999996110168932e-01
2.8000000000000012e+00 +9.1008950499417267e+00 +0.0000000000000000e+00 +2.7999999609559953e+00 -2.8925093585870169e-04 +0.0000000000000000e+00 +9.9999995816694698e-01
2.9000000000000012e+00 +9.1008656083237032e+00 +0.0000000000000000e+00 +2.8999999566215062e+00 -2.9958142595004996e-04 +0.0000000000000000e+00 +9.9999995512548345e-01
3.0000000000000013e+00 +9.1008351336562718e+00 +0.0000000000000000e+00 +2.9999999519775349e+00 -3.0991192401574256e-04 +0.0000000000000000e+00 +9.9999995197729841e-01
3.1000000000000014e+00 +9.1008036259386369e+00 +0.0000000000000000e+00 +3.0999999470134085e+00 -3.2024243000082926e-04 +0.0000000000000000e+00 +9.9999994872239162e-01
3.2000000000000015e+00 +9.1007710851700132e+00 +0.0000000000000000e+00 +3.1999999417184557e+00 -3.3057294376118455e-04 +0.0000000000000000e+00 +9.9999994536076287e-01
3.3000000000000016e+00 +9.1007375113496334e+00 +0.0000000000000000e+00 +3.2999999360820036e+00 -3.4090346506350402e-04 +0.0000000000000000e+00 +9.9999994189241204e-01
3.4000000000000017e+00 +9.1007029044767602e+00 +0.0000000000000000e+00 +3.3999999300933803e+00 -3.5123399358530019e-04 +0.0000000000000000e+00 +9.9999993831733891e-01
3.5000000000000018e+00 +9.1006672645506903e+00 +0.0000000000000000e+00 +3.4999999237419139e+00 -3.6156452891489797e-04 +0.0000000000000000e+00 +9.9999993463554349e-01
3.6000000000000019e+00 +9.1006305915707664e+00 +0.0000000000000000e+00 +3.5999999170169317e+00 -3.7189507055142973e-04 +0.0000000000000000e+00 +9.9999993084702576e-01
3.7000000000000020e+00 +9.1005928855363880e+00 +0.0000000000000000e+00 +3.6999999099077616e+00 -3.8222561790483031e-04 +0.0000000000000000e+00 +9.9999992695178574e-01
3.8000000000000020e+00 +9.1005541464470170e+00 +0.0000000000000000e+00 +3.7999999024037314e+00 -3.9255617029583122e-04 +0.0000000000000000e+00 +9.9999992294982354e-01
3.9000000000000021e+00 +9.1005143743021861e+00 +0.0000000000000000e+00 +3.8999998944941687e+00 -4.0288672695595494e-04 +0.0000000000000000e+00 +9.9999991884113926e-01
4.0000000000000018e+00 +9.1004735691015117e+00 +0.0000000000000000e+00 +3.9999998861684016e+00 -4.1321728702750871e-04 +0.0000000000000000e+00 +9.9999991462573312e-01
4.1000000000000014e+00 +9.1004317308446989e+00 +0.0000000000000000e+00 +4.0999998774157582e+00 -4.2354784956357788e-04 +0.0000000000000000e+00 +9.9999991030360547e-01
4.2000000000000011e+00 +9.1003888595315523e+00 +0.0000000000000000e+00 +4.1999998682255653e+00 -4.3387841352801907e-04 +0.0000000000000000e+00 +9.9999990587475662e-01
4.3000000000000007e+00 +9.1003449551619831e+00 +0.0000000000000000e+00 +4.2999998585871522e+00 -4.4420897779545287e-04 +0.0000000000000000e+00 +9.9999990133918704e-01
4.4000000000000004e+00 +9.1003000177360232e+00 +0.0000000000000000e+00 +4.3999998484898457e+00 -4.5453954115125625e-04 +0.0000000000000000e+00 +9.9999989669689726e-01
4.5000000000000000e+00 +9.1002540472538271e+00 +0.0000000000000000e+00 +4.4999998379229744e+00 -4.6487010229155472e-04 +0.0000000000000000e+00 +9.9999989194788796e-01
4.5999999999999996e+00 +9.1002070437156846e+00 +0.0000000000000000e+00 +4.5999998268758659e+00 -4.7520065982803049e-04 +0.0000000000000000e+00 +9.9999988709215992e-01
4.6999999999999993e+00 +9.1001590071220289e+00 +0.0000000000000000e+00 +4.6999998153378488e+00 -4.8553121234089783e-04 +0.0000000000000000e+00 +9.9999988212971380e-01
4.7999999999999989e+00 +9.1001099374734302e+00 +0.0000000000000000e+00 +4.7999998032982516e+00 -4.9586175843188435e-04 +0.0000000000000000e+00 +9.9999987706055049e-01
4.8999999999999986e+00 +9.1000598347706010e+00 +0.0000000000000000e+00 +4.8999997907464019e+00 -5.0619229672904968e-04 +0.0000000000000000e+00 +9.9999987188467099e-01
4.9999999999999982e+00 +9.1000086990143885e+00 +0.0000000000000000e+00 +4.9999997776716283e+00 -5.1652282588678837e-04 +0.0000000000000000e+00 +9.9999986660207607e-01
5.0999999999999979e+00 +9.0999565302057714e+00 +0.0000000000000000e+00 +5.0999997640632593e+00 -5.2685334458583239e-04 +0.0000000000000000e+00 +9.9999986121276685e-01
5.1999999999999975e+00 +9.0999033283458619e+00 +0.0000000000000000e+00 +5.1999997499106243e+00 -5.3718385153325471e-04 +0.0000000000000000e+00 +9.9999985571674421e-01
5.2999999999999972e+00 +9.0998490934358980e+00 +0.0000000000000000e+00 +5.2999997352030510e+00 -5.4751434546247224e-04 +0.0000000000000000e+00 +9.9999985011400927e-01
5.3999999999999968e+00 +9.0997938254772439e+00 +0.0000000000000000e+00 +5.3999997199298688e+00 -5.5784482513324975e-04 +0.0000000000000000e+00 +9.9999984440456313e-01
5.4999999999999964e+00 +9.0997375244713865e+00 +0.0000000000000000e+00 +5.4999997040804063e+00 -5.6817528933170364e-04 +0.0000000000000000e+00 +9.9999983858840702e-01
5.5999999999999961e+00 +9.0996801904199334e+00 +0.0000000000000000e+00 +5.5999996876439928e+00 -5.7850573687030608e-04 +0.0000000000000000e+00 +9.9999983266554193e-01
5.6999999999999957e+00 +9.0996218233246076e+00 +0.0000000000000000e+00 +5.6999996706099578e+00 -5.8883616658788956e-04 +0.0000000000000000e+00 +9.9999982663596920e-01
5.7999999999999954e+00 +9.0995624231872476e+00 +0.0000000000000000e+00 +5.7999996529676299e+00 -5.9916657734965142e-04 +0.0000000000000000e+00 +9.9999982049968994e-01
5.8999999999999950e+00 +9.0995019900098058e+00 +0.0000000000000000e+00 +5.8999996347063393e+00 -6.0949696804715888e-04 +0.0000000000000000e+00 +9.9999981425670548e-01
5.9999999999999947e+00 +9.0994405237943425e+00 +0.0000000000000000e+00 +5.9999996158154145e+00 -6.1982733759835388e-04 +0.0000000000000000e+00 +9.9999980790701704e-01
6.0999999999999943e+00 +9.0993780245430251e+00 +0.0000000000000000e+00 +6.0999995962841860e+00 -6.3015768494755896e-04 +0.0000000000000000e+00 +9.9999980145062606e-01
6.1999999999999940e+00 +9.0993144922581273e+00 +0.0000000000000000e+00 +6.1999995761019830e+00 -6.4048800906548267e-04 +0.0000000000000000e+00 +9.9999979488753377e-01
6.2999999999999936e+00 +9.0992499269420204e+00 +0.0000000000000000e+00 +6.2999995552581360e+00 -6.5081830894922563e-04 +0.0000000000000000e+00 +9.9999978821774160e-01
6.3999999999999932e+00 +9.0991843285971772e+00 +0.0000000000000000e+00 +6.3999995337419744e+00 -6.6114858362228653e-04 +0.0000000000000000e+00 +9.9999978144125101e-01
6.4999999999999929e+00 +9.0991176972261680e+00 +0.0000000000000000e+00 +6.4999995115428293e+00 -6.7147883213456870e-04 +0.0000000000000000e+00 +9.9999977455806333e-01
6.5999999999999925e+00 +9.0990500328316539e+00 +0.0000000000000000e+00 +6.5999994886500302e+00 -6.8180905356380662e-04 +0.0000000000000000e+00 +9.9999976756817999e-01
6.6999999999999922e+00 +9.0989813354163882e+00 +0.0000000000000000e+00 +6.6999994650529082e+00 -6.9213924703119057e-04 +0.0000000000000000e+00 +9.9999976047160244e-01
6.7999999999999918e+00 +9.0989116049832077e+00 +0.0000000000000000e+00 +6.7999994407407938e+00 -7.0246941171698792e-04 +0.0000000000000000e+00 +9.9999975326833213e-01
6.8999999999999915e+00 +9.0988408415350293e+00 +0.0000000000000000e+00 +6.8999994157030180e+00 -7.1279954686196442e-04 +0.0000000000000000e+00 +9.9999974595837049e-01
6.9999999999999911e+00 +9.0987690450748424e+00 +0.0000000000000000e+00 +6.9999993899289112e+00 -7.2312965176738505e-04 +0.0000000000000000e+00 +9.9999973854171897e-01
7.0999999999999908e+00 +9.0986962156057043e+00 +0.0000000000000000e+00 +7.0999993634078056e+00 -7.3345972579501523e-04 +0.0000000000000000e+00 +9.9999973101837891e-01
7.1999999999999904e+00 +9.0986223531307324e+00 +0.0000000000000000e+00 +7.1999993361290313e+00 -7.4378976836712212e-04 +0.0000000000000000e+00 +9.9999972338835175e-01
7.2999999999999901e+00 +9.0985474576530976e+00 +0.0000000000000000e+00 +7.2999993080819197e+00 -7.5411977896647534e-04 +0.0000000000000000e+00 +9.9999971565163881e-01
7.3999999999999897e+00 +9.0984715291760203e+00 +0.0000000000000000e+00 +7.3999992792558027e+00 -7.6444975713634868e-04 +0.0000000000000000e+00 +9.9999970780824143e-01
7.4999999999999893e+00 +9.0983945677027638e+00 +0.0000000000000000e+00 +7.4999992496400116e+00 -7.7477970248052087e-04 +0.0000000000000000e+00 +9.9999969985816095e-01
7.5999999999999890e+00 +9.0983165732366285e+00 +0.0000000000000000e+00 +7.5999992192238786e+00 -7.8510961466327696e-04 +0.0000000000000000e+00 +9.9999969180139869e-01
7.6999999999999886e+00 +9.0982375457809450e+00 +0.0000000000000000e+00 +7.6999991879967356e+00 -7.9543949340940957e-04 +0.0000000000000000e+00 +9.9999968363795577e-01
7.7999999999999883e+00 +9.0981574853390690e+00 +0.0000000000000000e+00 +7.7999991559479138e+00 -8.0576933850422011e-04 +0.0000000000000000e+00 +9.9999967536783352e-01
7.8999999999999879e+00 +9.0980763919143719e+00 +0.0000000000000000e+00 +7.8999991230667463e+00 -8.1609914979352018e-04 +0.0000000000000000e+00 +9.9999966699103304e-01
7.9999999999999876e+00 +9.0979942655102395e+00 +0.0000000000000000e+00 +7.9999990893425643e+00 -8.2642892718363264e-04 +0.0000000000000000e+00 +9.9999965850755546e-01
8.0999999999999872e+00 +9.0979111061300664e+00 +0.0000000000000000e+00 +8.0999990547647016e+00 -8.3675867064139328e-04 +0.0000000000000000e+00 +9.9999964991740187e-01
8.1999999999999869e+00 +9.0978269137772418e+00 +0.0000000000000000e+00 +8.1999990193224885e+00 -8.4708838019415195e-04 +0.0000000000000000e+00 +9.9999964122057328e-01
8.2999999999999865e+00 +9.0977416884551552e+00 +0.0000000000000000e+00 +8.2999989830052598e+00 -8.5741805592977382e-04 +0.0000000000000000e+00 +9.9999963241707068e-01
8.3999999999999861e+00 +9.0976554301671797e+00 +0.0000000000000000e+00 +8.3999989458023467e+00 -8.6774769799664105e-04 +0.0000000000000000e+00 +9.9999962350689497e-01
8.4999999999999858e+00 +9.0975681389166727e+00 +0.0000000000000000e+00 +8.4999989077030822e+00 -8.7807730660365403e-04 +0.0000000000000000e+00 +9.9999961449004704e-01
8.5999999999999854e+00 +9.0974798147069666e+00 +0.0000000000000000e+00 +8.5999988686967992e+00 -8.8840688201824577e-04 +0.0000000000000000e+00 +9.9999960536652766e-01
8.6999999999999851e+00 +9.0973904575413655e+00 +0.0000000000000000e+00 +8.6999988287728307e+00 -8.9873642454452369e-04 +0.0000000000000000e+00 +9.9999959613633760e-01
8.7999999999999847e+00 +9.0973000674231432e+00 +0.0000000000000000e+00 +8.7999987879205097e+00 -9.0906593450141421e-04 +0.0000000000000000e+00 +9.9999958679947754e-01
8.8999999999999844e+00 +9.0972086443555398e+00 +0.0000000000000000e+00 +8.8999987461291692e+00 -9.1939541222068146e-04 +0.0000000000000000e+00 +9.9999957735594824e-01
8.9999999999999840e+00 +9.0971161883417615e+00 +0.0000000000000000e+00 +8.9999987033881439e+00 -9.2972485804693368e-04 +0.0000000000000000e+00 +9.9999956780575028e-01
9.0999999999999837e+00 +9.0970226993849810e+00 +0.0000000000000000e+00 +9.0999986596867650e+00 -9.4005427233763016e-04 +0.0000000000000000e+00 +9.9999955814888442e-01
9.1999999999999833e+00 +9.0969281774883335e+00 +0.0000000000000000e+00 +9.1999986150143656e+00 -9.5038365546308784e-04 +0.0000000000000000e+00 +9.9999954838535121e-01
9.2999999999999829e+00 +9.0968326226549152e+00 +0.0000000000000000e+00 +9.2999985693602802e+00 -9.6071300780648861e-04 +0.0000000000000000e+00 +9.9999953851515133e-01
9.3999999999999826e+00 +9.0967360348877850e+00 +0.0000000000000000e+00 +9.3999985227138403e+00 -9.7104232976388621e-04 +0.0000000000000000e+00 +9.9999952853828522e-01
9.4999999999999822e+00 +9.0966384141899610e+00 +0.0000000000000000e+00 +9.4999984750643804e+00 -9.8137162174421360e-04 +0.0000000000000000e+00 +9.9999951845475354e-01
9.5999999999999819e+00 +9.0965397605644203e+00 +0.0000000000000000e+00 +9.5999984264012355e+00 -9.9170088416929061e-04 +0.0000000000000000e+00 +9.9999950826455675e-01
9.6999999999999815e+00 +9.0964400740140974e+00 +0.0000000000000000e+00 +9.6999983767137365e+00 -1.0020301174738316e-03 +0.0000000000000000e+00 +9.9999949796769527e-01
9.7999999999999812e+00 +9.0963393545418807e+00 +0.0000000000000000e+00 +9.7999983259912185e+00 -1.0123593221054526e-03 +0.0000000000000000e+00 +9.9999948756416968e-01
9.8999999999999808e+00 +9.0962376021506159e+00 +0.0000000000000000e+00 +9.8999982742230141e+00 -1.0226884985246800e-03 +0.0000000000000000e+00 +9.9999947705398029e-01
9.9999999999999805e+00 +9.0961348168431009e+00 +0.0000000000000000e+00 +9.9999982213984584e+00 -1.0330176472049587e-03 +0.0000000000000000e+00 +9.9999946643712745e-01
1.0099999999999980e+01 +9.0960309986220835e+00 +0.0000000000000000e+00 +1.0099998167506884e+01 -1.0433467686326596e-03 +0.0000000000000000e+00 +9.9999945571361160e-01
1.0199999999999980e+01 +9.0959261474902657e+00 +0.0000000000000000e+00 +1.0199998112537624e+01 -1.0536758633070888e-03 +0.0000000000000000e+00 +9.9999944488343295e-01
1.0299999999999979e+01 +9.0958202634502960e+00 +0.0000000000000000e+00 +1.0299998056480014e+01 -1.0640049317404956e-03 +0.0000000000000000e+00 +9.9999943394659185e-01
1.0399999999999979e+01 +9.0957133465047733e+00 +0.0000000000000000e+00 +1.0399997999323388e+01 -1.0743339744580819e-03 +0.0000000000000000e+00 +9.9999942290308863e-01
1.0499999999999979e+01 +9.0956053966562429e+00 +0.0000000000000000e+00 +1.0499997941057076e+01 -1.0846629919980103e-03 +0.0000000000000000e+00 +9.9999941175292340e-01
1.0599999999999978e+01 +9.0954964139071954e+00 +0.0000000000000000e+00 +1.0599997881670417e+01 -1.0949919849089294e-03 +0.0000000000000000e+00 +9.9999940049609626e-01
1.0699999999999978e+01 +9.0953863982600645e+00 +0.0000000000000000e+00 +1.0699997821152740e+01 -1.1053209537226507e-03 +0.0000000000000000e+00 +9.9999938913260755e-01
1.0799999999999978e+01 +9.0952753497172374e+00 +0.0000000000000000e+00 +1.0799997759493383e+01 -1.1156498989268113e-03 +0.0000000000000000e+00 +9.9999937766245739e-01
1.0899999999999977e+01 +9.0951632682810519e+00 +0.0000000000000000e+00 +1.0899997696681677e+01 -1.1259788209623711e-03 +0.0000000000000000e+00 +9.9999936608564599e-01
1.0999999999999977e+01 +9.0950501539538049e+00 +0.0000000000000000e+00 +1.0999997632706956e+01 -1.1363077202235965e-03 +0.0000000000000000e+00 +9.9999935440217358e-01
1.1099999999999977e+01 +9.0949360067377558e+00 +0.0000000000000000e+00 +1.1099997567558555e+01 -1.1466365970580407e-03 +0.0000000000000000e+00 +9.9999934261204060e-01
1.1199999999999976e+01 +9.0948208266351305e+00 +0.0000000000000000e+00 +1.1199997501225807e+01 -1.1569654517665263e-03 +0.0000000000000000e+00 +9.9999933071524727e-01
1.1299999999999976e+01 +9.0947046136481315e+00 +0.0000000000000000e+00 +1.1299997433698048e+01 -1.1672942846031253e-03 +0.0000000000000000e+00 +9.9999931871179404e-01
1.1399999999999975e+01 +9.0945873677789333e+00 +0.0000000000000000e+00 +1.1399997364964610e+01 -1.1776230957751400e-03 +0.0000000000000000e+00 +9.9999930660168135e-01
1.1499999999999975e+01 +9.0944690890296940e+00 +0.0000000000000000e+00 +1.1499997295014829e+01 -1.1879518854430832e-03 +0.0000000000000000e+00 +9.9999929438490964e-01
1.1599999999999975e+01 +9.0943497774025577e+00 +0.0000000000000000e+00 +1.1599997223838038e+01 -1.1982806537206572e-03 +0.0000000000000000e+00 +9.9999928206147937e-01
1.1699999999999974e+01 +9.0942294328996596e+00 +0.0000000000000000e+00 +1.1699997151423570e+01 -1.2086094006747328e-03 +0.0000000000000000e+00 +9.9999926963139119e-01
1.1799999999999974e+01 +9.0941080555231313e+00 +0.0000000000000000e+00 +1.1799997077760761e+01 -1.2189381263253286e-03 +0.0000000000000000e+00 +9.9999925709464577e-01
