# multipoles
# s[mm] polynom_b[n=0][T/m^n] polynom_b[n=1][T/m^n] polynom_b[n=2][T/m^n] polynom_b[n=3][T/m^n] polynom_b[n=4][T/m^n] polynom_b[n=5][T/m^n] polynom_b[n=6][T/m^n] 
+0.0000000000000000e+00 -8.2404164561499793e-01 +1.8357885954312851e+00 +1.6429993854600461e+01 +6.2811689081017022e+01 -6.2963324042893664e+03 -1.3471616882275877e+05 +5.7475671493207932e+07 
+1.0000000000000001e-01 -8.2404117060311322e-01 +1.8358119621791678e+00 +1.6433590363464475e+01 +6.2173376014353785e+01 -6.3371238185871225e+03 -1.3178441111350927e+05 +5.7603684104223266e+07 
+2.0000000000000001e-01 -8.2404070620838998e-01 +1.8358362866471623e+00 +1.6436981240753664e+01 +6.1498275982502719e+01 -6.3759310948092652e+03 -1.2861789002974654e+05 +5.7729018661551952e+07 
+2.9999999999999999e-01 -8.2404025247932511e-01 +1.8358613931944703e+00 +1.6440153333617577e+01 +6.0791959916744176e+01 -6.4124947999328142e+03 -1.2524706178260555e+05 +5.7850239800088935e+07 
+4.0000000000000002e-01 -8.2403980946443844e-01 +1.8358871061719448e+00 +1.6443093491674681e+01 +6.0059999043804474e+01 -6.4465555492374733e+03 -1.2170238460133524e+05 +5.7965912379132867e+07 
+5.0000000000000000e-01 -8.2403937721220522e-01 +1.8359132499385638e+00 +1.6445788559901828e+01 +5.9307964383877533e+01 -6.4778538679800695e+03 -1.1801431571236759e+05 +5.8074600816287726e+07 
+5.9999999999999998e-01 -8.2403895577114550e-01 +1.8359396488512532e+00 +1.6448225388924897e+01 +5.8541427052332075e+01 -6.5061303949353087e+03 -1.1421331309218626e+05 +5.8174870083626226e+07 
+6.9999999999999996e-01 -8.2403854518979325e-01 +1.8359661272738272e+00 +1.6450390830717119e+01 +5.7765957969201807e+01 -6.5311257954806688e+03 -1.1032983367436071e+05 +5.8265285279915482e+07 
+8.0000000000000004e-01 -8.2403814551661825e-01 +1.8359925095696898e+00 +1.6452271730175436e+01 +5.6987128106701242e+01 -6.5525806088019426e+03 -1.0639433484330145e+05 +5.8344410928174652e+07 
+9.0000000000000002e-01 -8.2403775680013902e-01 +1.8360186201096791e+00 +1.6453854939513569e+01 +5.6210508235690320e+01 -6.5702355205276090e+03 -1.0243727286662796e+05 +5.8410812273316205e+07 
+1.0000000000000000e+00 -8.2403737908885444e-01 +1.8360442832635608e+00 +1.6455127307238577e+01 +5.5441669155361325e+01 -6.5838311542896954e+03 -9.8489104181399191e+04 +5.8463054293832712e+07 
+1.1000000000000001e+00 -8.2403701243125227e-01 +1.8360693234112748e+00 +1.6456075682477284e+01 +5.4686181381297295e+01 -6.5931081602386093e+03 -9.4580283559929478e+04 +5.8499702147222824e+07 
+1.2000000000000000e+00 -8.2403665687583449e-01 +1.8360935649332308e+00 +1.6456686915655919e+01 +5.3949615403549991e+01 -6.5978072226500881e+03 -9.0741265544759444e+04 +5.8519321189383231e+07 
+1.3000000000000000e+00 -8.2403631247103593e-01 +1.8361168322194230e+00 +1.6456947850056572e+01 +5.3237541438948071e+01 -6.5976689046819347e+03 -8.7002503012893358e+04 +5.8520476257523805e+07 
+1.3999999999999999e+00 -8.2403597926536121e-01 +1.8361389496624916e+00 +1.6456845338712306e+01 +5.2555529609785083e+01 -6.5924339761558949e+03 -8.3394448133039507e+04 +5.8501733248292483e+07 
+1.5000000000000000e+00 -8.2403565730723838e-01 +1.8361597416652371e+00 +1.6456366224699888e+01 +5.1909149719643281e+01 -6.5818430304369649e+03 -7.9947551028340269e+04 +5.8461657274742410e+07 
+1.6000000000000001e+00 -8.2403534664510014e-01 +1.8361790326335667e+00 +1.6455497353835344e+01 +5.1303971473172084e+01 -6.5656367371210490e+03 -7.6692261049078457e+04 +5.8398813903215200e+07 
+1.7000000000000000e+00 -8.2403504732736543e-01 +1.8361966469829518e+00 +1.6454225570019620e+01 +5.0745564257851683e+01 -6.5435557463057121e+03 -7.3659025413059135e+04 +5.8311768680808529e+07 
+1.8000000000000000e+00 -8.2403475940243043e-01 +1.8362124091388365e+00 +1.6452537715462189e+01 +5.0239497135930890e+01 -6.5153407044370297e+03 -7.0878289132445265e+04 +5.8199087244584136e+07 
+1.8999999999999999e+00 -8.2403448291866355e-01 +1.8362261435306526e+00 +1.6450420630169575e+01 +4.9791339032458509e+01 -6.4807322368884888e+03 -6.8380496123579011e+04 +5.8059335220967375e+07 
+2.0000000000000000e+00 -8.2403421792442655e-01 +1.8362376746024118e+00 +1.6447861154198382e+01 +4.9406658379376829e+01 -6.4394710018106744e+03 -6.6196086980427950e+04 +5.7891078514173254e+07 
+2.1000000000000001e+00 -8.2403396451968924e-01 +1.8362468812335753e+00 +1.6444851719003807e+01 +4.9089380763200928e+01 -6.3913964945064599e+03 -6.4346803416454350e+04 +5.7693386672165997e+07 
+2.2000000000000002e+00 -8.2403372300832312e-01 +1.8362538582238244e+00 +1.6441405411327079e+01 +4.8836915293701317e+01 -6.3366954806453641e+03 -6.2820090498120953e+04 +5.7467092136639424e+07 
+2.2999999999999998e+00 -8.2403349374464796e-01 +1.8362587539940070e+00 +1.6437540073278530e+01 +4.8645052142878107e+01 -6.2756299605422137e+03 -6.1594925390719094e+04 +5.7213407762376539e+07 
+2.3999999999999999e+00 -8.2403327708298746e-01 +1.8362617169703765e+00 +1.6433273547787952e+01 +4.8509581307273756e+01 -6.2084619484290943e+03 -6.0650284190940125e+04 +5.6933546471774191e+07 
+2.5000000000000000e+00 -8.2403307337764720e-01 +1.8362628955767875e+00 +1.6428623675699136e+01 +4.8426292856140087e+01 -6.1354534248938962e+03 -5.9965143448550349e+04 +5.6628721047954477e+07 
+2.6000000000000001e+00 -8.2403288298297794e-01 +1.8362624382450632e+00 +1.6423608302826270e+01 +4.8390976590092166e+01 -6.0568664617024306e+03 -5.9518478076674903e+04 +5.6300144700266182e+07 
+2.7000000000000002e+00 -8.2403270625332148e-01 +1.8362604934015685e+00 +1.6418245274633716e+01 +4.8399422484128060e+01 -5.9729631249781714e+03 -5.9289264075279585e+04 +5.5949030616180100e+07 
+2.7999999999999998e+00 -8.2403254354299771e-01 +1.8362572094802114e+00 +1.6412552433443000e+01 +4.8447420259919731e+01 -5.8840054145312470e+03 -5.9256475921800491e+04 +5.5576591649211869e+07 
+2.8999999999999999e+00 -8.2403239520640914e-01 +1.8362527349135689e+00 +1.6406547630572309e+01 +4.8530759668307375e+01 -5.7902555014061154e+03 -5.9399088316122950e+04 +5.5184041465877004e+07 
+3.0000000000000000e+00 -8.2403226159791820e-01 +1.8362472181302227e+00 +1.6400248713693220e+01 +4.8645230576819721e+01 -5.6919754793924294e+03 -5.9696076689515437e+04 +5.4772593341832928e+07 
+3.1000000000000001e+00 -8.2403214307188277e-01 +1.8362408075648033e+00 +1.6393673528848222e+01 +4.8786622642570165e+01 -5.5894274042004527e+03 -6.0126415238298388e+04 +5.4343460347871229e+07 
+3.2000000000000002e+00 -8.2403203998274221e-01 +1.8362336516481217e+00 +1.6386839931681788e+01 +4.8950725636623282e+01 -5.4828735075373734e+03 -6.0669078933151504e+04 +5.3897856368242085e+07 
+3.2999999999999998e+00 -8.2403195268489993e-01 +1.8362258988131721e+00 +1.6379765773216569e+01 +4.9133329244810163e+01 -5.3725759203242742e+03 -6.1303042278965637e+04 +5.3436994766054869e+07 
+3.3999999999999999e+00 -8.2403188153279416e-01 +1.8362176974881903e+00 +1.6372468908486763e+01 +4.9330223288390386e+01 -5.2587968422904123e+03 -6.2007280685473859e+04 +5.2962089203301385e+07 
+3.5000000000000000e+00 -8.2403182688090315e-01 +1.8362091961019020e+00 +1.6364967196126880e+01 +4.9537197543875500e+01 -5.1417985257272230e+03 -6.2760769345249188e+04 +5.2474353538186066e+07 
+3.6000000000000001e+00 -8.2403178908369468e-01 +1.8362005430838140e+00 +1.6357278493737500e+01 +4.9750041767335688e+01 -5.0218431921143119e+03 -6.3542483467698352e+04 +5.1975001443251207e+07 
+3.7000000000000002e+00 -8.2403176849567172e-01 +1.8361918868552365e+00 +1.6349420662509210e+01 +4.9964545931408210e+01 -4.8991931149007469e+03 -6.4331399619395357e+04 +5.1465246778996564e+07 
+3.7999999999999998e+00 -8.2403176547137380e-01 +1.8361833758417649e+00 +1.6341411566467102e+01 +5.0176499876051331e+01 -4.7741106040917557e+03 -6.5106493733141993e+04 +5.0946303522011034e+07 
+3.8999999999999999e+00 -8.2403178036536939e-01 +1.8361751584621817e+00 +1.6333269074299281e+01 +5.0381693614102218e+01 -4.6468580418986894e+03 -6.5846742837858867e+04 +5.0419385930348784e+07 
+4.0000000000000000e+00 -8.2403181353223032e-01 +1.8361673831303007e+00 +1.6325011051534815e+01 +5.0575917315397412e+01 -4.5176977263536637e+03 -6.6531125099928002e+04 +4.9885707780495040e+07 
+4.0999999999999996e+00 -8.2403186522988159e-01 +1.8361601528585261e+00 +1.6316657206077910e+01 +5.0756226604370681e+01 -4.3869255023169035e+03 -6.7145485884721696e+04 +4.9346590255763553e+07 
+4.2000000000000002e+00 -8.2403193533082397e-01 +1.8361533822408451e+00 +1.6308237065988532e+01 +5.0924754901963951e+01 -4.2550374761745215e+03 -6.7702874679445973e+04 +4.8804139177541532e+07 
+4.2999999999999998e+00 -8.2403202361108763e-01 +1.8361469367774366e+00 +1.6299783197159787e+01 +5.1084918881546969e+01 -4.1225953650067149e+03 -6.8223132145906551e+04 +4.8260739383385837e+07 
+4.4000000000000004e+00 -8.2403212984669283e-01 +1.8361406819650743e+00 +1.6291328162940019e+01 +5.1240135357541661e+01 -3.9901608270412594e+03 -6.8726099930833501e+04 +4.7718775385348938e+07 
+4.5000000000000000e+00 -8.2403225381356460e-01 +1.8361344832876179e+00 +1.6282904515937201e+01 +5.1393821560927947e+01 -3.8582953055797593e+03 -6.9231622235626608e+04 +4.7180630624554671e+07 
+4.5999999999999996e+00 -8.2403239528759886e-01 +1.8361282062169395e+00 +1.6274544802436495e+01 +5.1549395120889052e+01 -3.7275601045070234e+03 -6.9759545786131115e+04 +4.6648687806700550e+07 
+4.7000000000000002e+00 -8.2403255404463183e-01 +1.8361217162177721e+00 +1.6266281562006093e+01 +5.1710273921895016e+01 -3.5985163921918388e+03 -7.0329718945779212e+04 +4.6125328951968245e+07 
+4.7999999999999998e+00 -8.2403272986043019e-01 +1.8361148787404129e+00 +1.6258147325477491e+01 +5.1879876316301349e+01 -3.4717251514810719e+03 -7.0961992965378158e+04 +4.5612935122204758e+07 
+4.9000000000000004e+00 -8.2403292251072713e-01 +1.8361075592232599e+00 +1.6250174617552549e+01 +5.2061621073891544e+01 -3.3477472349311661e+03 -7.1676221790093608e+04 +4.5113886699307300e+07 
+5.0000000000000000e+00 -8.2403313177115189e-01 +1.8360996230922020e+00 +1.6242395950523012e+01 +5.2258927367444230e+01 -3.2271432439959963e+03 -7.2492261840225430e+04 +4.4630562806276567e+07 
+5.0999999999999996e+00 -8.2403335741730932e-01 +1.8360909357587714e+00 +1.6234843832492579e+01 +5.2475214861909841e+01 -3.1104736813866402e+03 -7.3429972652287775e+04 +4.4165342017877750e+07 
+5.2000000000000002e+00 -8.2403359922467811e-01 +1.8360813626217638e+00 +1.6227550755087560e+01 +5.2713903649618118e+01 -2.9982987218108683e+03 -7.4509216460475684e+04 +4.3720601282677107e+07 
+5.2999999999999998e+00 -8.2403385696872899e-01 +1.8360707690642484e+00 +1.6220549208516278e+01 +5.2978414354176522e+01 -2.8911784918798057e+03 -7.5749858826851225e+04 +4.3298717236693174e+07 
+5.4000000000000004e+00 -8.2403413042480844e-01 +1.8360590204543186e+00 +1.6213871666678678e+01 +5.3272168100681682e+01 -2.7896727914109442e+03 -7.7171768466111753e+04 +4.2902064884663850e+07 
+5.5000000000000000e+00 -8.2403441936819721e-01 +1.8360459821439086e+00 +1.6207550595153499e+01 +5.3598586563821883e+01 -2.6943412417973386e+03 -7.8794817545082682e+04 +4.2533018301599316e+07 
+5.5999999999999996e+00 -8.2403472357408181e-01 +1.8360315194672445e+00 +1.6201618445901651e+01 +5.3961091996641620e+01 -2.6057431856750550e+03 -8.0638881832400672e+04 +4.2193950148263425e+07 
+5.7000000000000002e+00 -8.2403504281759599e-01 +1.8360154977433005e+00 +1.6196107664496729e+01 +5.4363107190100749e+01 -2.5244378229931676e+03 -8.2723840523517778e+04 +4.1887232318975866e+07 
+5.7999999999999998e+00 -8.2403537687375494e-01 +1.8359977822712261e+00 +1.6191050680039645e+01 +5.4808055582752971e+01 -2.4509840190235273e+03 -8.5069576831943865e+04 +4.1615235024532989e+07 
+5.9000000000000004e+00 -8.2403572551747961e-01 +1.8359782383350718e+00 +1.6186479910230467e+01 +5.5299361143466037e+01 -2.3859404013088138e+03 -8.7695977344851475e+04 +4.1380327253458746e+07 
+6.0000000000000000e+00 -8.2403608852362120e-01 +1.8359567311972604e+00 +1.6182427763003691e+01 +5.5840448533649109e+01 -2.3298653902691112e+03 -9.0622932731570341e+04 +4.1184876933576457e+07 
+6.0999999999999996e+00 -8.2403646555422128e-01 +1.8359331862177346e+00 +1.6178919578021969e+01 +5.6433174121290179e+01 -2.2832045795011113e+03 -9.3860835423299926e+04 +4.1030791599803455e+07 
+6.2000000000000002e+00 -8.2403685583089548e-01 +1.8359077713626557e+00 +1.6175949470279424e+01 +5.7073037086085655e+01 -2.2458660576565117e+03 -9.7381830698614358e+04 +4.0917583618524231e+07 
+6.2999999999999998e+00 -8.2403725846813891e-01 +1.8358807165157438e+00 +1.6173503028949451e+01 +5.7753899454203058e+01 -2.2176020618302496e+03 -1.0114823168680204e+05 +4.0844028540563509e+07 
+6.4000000000000004e+00 -8.2403767258048877e-01 +1.8358522515665414e+00 +1.6171565849419064e+01 +5.8469623037574152e+01 -2.1981649604002623e+03 -1.0512234980917818e+05 +4.0808902562336989e+07 
+6.5000000000000000e+00 -8.2403809728261201e-01 +1.8358226064045826e+00 +1.6170123544000830e+01 +5.9214069653881062e+01 -2.1873074548837249e+03 -1.0926649628094956e+05 +4.0810983495454989e+07 
+6.5999999999999996e+00 -8.2403853168927954e-01 +1.8357920109169805e+00 +1.6169161737977888e+01 +5.9981101174080145e+01 -2.1847825110503268e+03 -1.1354298232774272e+05 +4.0849050455373853e+07 
+6.7000000000000002e+00 -8.2403897491534872e-01 +1.8357606950003189e+00 +1.6168666069330008e+01 +6.0764579190763712e+01 -2.1903433563298804e+03 -1.1791411727067582e+05 +4.0921883856765054e+07 
+6.7999999999999998e+00 -8.2403942607582481e-01 +1.8357288885450733e+00 +1.6168622194881141e+01 +6.1558365460533658e+01 -2.2037435916296104e+03 -1.2234221106913580e+05 +4.1028265931834742e+07 
+6.9000000000000004e+00 -8.2403988428582675e-01 +1.8356968214527232e+00 +1.6169015784860253e+01 +6.2356321410888988e+01 -2.2247370898856466e+03 -1.2678957146674496e+05 +4.1166980253860712e+07 
+7.0000000000000000e+00 -8.2404034866056597e-01 +1.8356647236193255e+00 +1.6169832523608292e+01 +6.3152308612946719e+01 -2.2530780175459440e+03 -1.3121850669104379e+05 +4.1336811861899965e+07 
+7.0999999999999996e+00 -8.2404081831542586e-01 +1.8356328249502027e+00 +1.6171058117046357e+01 +6.3940188357963493e+01 -2.2885209686111407e+03 -1.3559132300539757e+05 +4.1536547875324965e+07 
+7.2000000000000002e+00 -8.2404129236590040e-01 +1.8356013553493900e+00 +1.6172678284833491e+01 +6.4713821958190763e+01 -2.3308208193194982e+03 -1.3987032644318612e+05 +4.1764976815340124e+07 
+7.2999999999999998e+00 -8.2404176992761691e-01 +1.8355705447266162e+00 +1.6174678766426105e+01 +6.5467070549123946e+01 -2.3797328451182493e+03 -1.4401782161674628e+05 +4.2020889166482620e+07 
+7.4000000000000004e+00 -8.2404225011636556e-01 +1.8355406229961462e+00 +1.6177045320133487e+01 +6.6193795115026219e+01 -2.4350127051750528e+03 -1.4799611190022313e+05 +4.2303077307502136e+07 
+7.5000000000000000e+00 -8.2404273204807199e-01 +1.8355118200721774e+00 +1.6179763723593030e+01 +6.6887856623868188e+01 -2.4964164495585173e+03 -1.5176750015055580e+05 +4.2610335543553911e+07 
+7.5999999999999996e+00 -8.2404321483882292e-01 +1.8354843658775279e+00 +1.6182819774480897e+01 +6.7543115782205192e+01 -2.5637005337522332e+03 -1.5529428732544664e+05 +4.2941460177543432e+07 
+7.7000000000000002e+00 -8.2404369760483986e-01 +1.8354584903383233e+00 +1.6186199288907215e+01 +6.8153433172746887e+01 -2.6366217876660089e+03 -1.5853877320123962e+05 +4.3295249361728996e+07 
+7.7999999999999998e+00 -8.2404417946255026e-01 +1.8354344233821145e+00 +1.6189888110518840e+01 +6.8712669324365962e+01 -2.7149375974667955e+03 -1.6146325683158819e+05 +4.3670503985796161e+07 
+7.9000000000000004e+00 -8.2404465952850359e-01 +1.8354123949476793e+00 +1.6193872097213870e+01 +6.9214684407361673e+01 -2.7984056416190483e+03 -1.6403003471263795e+05 +4.4066026391944587e+07 
+8.0000000000000000e+00 -8.2404513691946846e-01 +1.8353926349671879e+00 +1.6198137136566057e+01 +6.9653338801473851e+01 -2.8867841927685208e+03 -1.6620140479865746e+05 +4.4480621780286938e+07 
+8.0999999999999996e+00 -8.2404561091079742e-01 +1.8353753005889397e+00 +1.6202664996981884e+01 +7.0024327897353672e+01 -2.9797371751829692e+03 -1.6795092047799093e+05 +4.4912644930326946e+07 
+8.1999999999999993e+00 -8.2404608138867796e-01 +1.8353602824088000e+00 +1.6207424543402936e+01 +7.0330491778619617e+01 -3.0766629573784899e+03 -1.6929678681407863e+05 +4.5359424023714937e+07 
+8.3000000000000007e+00 -8.2404654838656555e-01 +1.8353474091567670e+00 +1.6212382231826769e+01 +7.0576462683373165e+01 -3.1769220553246969e+03 -1.7026872779403746e+05 +4.5818232934968032e+07 
+8.4000000000000004e+00 -8.2404701193780172e-01 +1.8353365095593412e+00 +1.6217504505821466e+01 +7.0766873093748600e+01 -3.2798747651282242e+03 -1.7089647006979695e+05 +4.6286344626818910e+07 
+8.5000000000000000e+00 -8.2404747207567075e-01 +1.8353274123522167e+00 +1.6222757801815359e+01 +7.0906355202559283e+01 -3.3848812430104463e+03 -1.7120973904464193e+05 +4.6761031423492990e+07 
+8.5999999999999996e+00 -8.2404792883337386e-01 +1.8353199462763672e+00 +1.6228108544509890e+01 +7.0999540991014300e+01 -3.4913014179472952e+03 -1.7123825926133399e+05 +4.7239564596188702e+07 
+8.6999999999999993e+00 -8.2404838224400612e-01 +1.8353139400804162e+00 +1.6233523147956511e+01 +7.1051062211338504e+01 -3.5984950118044126e+03 -1.7101175440839288e+05 +4.7719214458769739e+07 
+8.8000000000000007e+00 -8.2404883234059756e-01 +1.8353092225208858e+00 +1.6238968016356949e+01 +7.1065550316061092e+01 -3.7058215532227928e+03 -1.7055994680088595e+05 +4.8197250432660468e+07 
+8.9000000000000004e+00 -8.2404927915605775e-01 +1.8353056223596242e+00 +1.6244409539180523e+01 +7.1047636588361556e+01 -3.8126402850454028e+03 -1.6991255828938255e+05 +4.8670940605918907e+07 
+9.0000000000000000e+00 -8.2404972272323251e-01 +1.8353029683686970e+00 +1.6249814099457684e+01 +7.1001951951532547e+01 -3.9183103250882900e+03 -1.6909930901905612e+05 +4.9137552511082351e+07 
+9.0999999999999996e+00 -8.2405016307484547e-01 +1.8353010893243327e+00 +1.6255148063459174e+01 +7.0933127185613515e+01 -4.0221904629704686e+03 -1.6814991884922850e+05 +4.9594352138254739e+07 
+9.1999999999999993e+00 -8.2405060024353982e-01 +1.8352998140149244e+00 +1.6260377787881605e+01 +7.0845792658584401e+01 -4.1236393030913841e+03 -1.6709410569345302e+05 +5.0038604635364428e+07 
+9.3000000000000007e+00 -8.2405103426183957e-01 +1.8352989712350354e+00 +1.6265469615330957e+01 +7.0744578520387790e+01 -4.2220151745640796e+03 -1.6596158670369972e+05 +5.0467573868989184e+07 
+9.4000000000000004e+00 -8.2405146516216243e-01 +1.8352983897907447e+00 +1.6270389874791697e+01 +7.0634114534018622e+01 -4.3166761403278106e+03 -1.6478207728572181e+05 +5.0878522469751142e+07 
+9.5000000000000000e+00 -8.2405189297680159e-01 +1.8352978984939552e+00 +1.6275104880255672e+01 +7.0519030253543391e+01 -4.4069799755738895e+03 -1.6358529218267274e+05 +5.1268711743266426e+07 
+9.5999999999999996e+00 -8.2405231773796517e-01 +1.8352973261667525e+00 +1.6279580934660245e+01 +7.0403954882715510e+01 -4.4922842338451492e+03 -1.6240094462694257e+05 +5.1635401961532734e+07 
+9.6999999999999993e+00 -8.2405273947773894e-01 +1.8352965016404161e+00 +1.6283784325541220e+01 +7.0293517306641903e+01 -4.5719461706102702e+03 -1.6125874655472877e+05 +5.1975852017915383e+07 
+9.8000000000000007e+00 -8.2405315822806668e-01 +1.8352952537570972e+00 +1.6287681325154704e+01 +7.0192346048513073e+01 -4.6453227476127431e+03 -1.6018840835547206e+05 +5.2287319455011569e+07 
+9.9000000000000004e+00 -8.2405357402078794e-01 +1.8352934113696844e+00 +1.6291238188882247e+01 +7.0105069253998593e+01 -4.7117705913454101e+03 -1.5921963880866489e+05 +5.2567060237096041e+07 
+1.0000000000000000e+01 -8.2405398688758025e-01 +1.8352908033408366e+00 +1.6294421156301915e+01 +7.0036314782649569e+01 -4.7706460213063256e+03 -1.5838214514611597e+05 +5.2812328953472741e+07 
+1.0100000000000000e+01 -8.2405439680560777e-01 +1.8352872956771473e+00 +1.6297207348747893e+01 +6.9989838431181624e+01 -4.8215131639435576e+03 -1.5770020443118003e+05 +5.3021306319610290e+07 
