# multipoles
# s[mm] polynom_b[n=0][T/m^n] polynom_b[n=1][T/m^n] polynom_b[n=2][T/m^n] polynom_b[n=3][T/m^n] polynom_b[n=4][T/m^n] polynom_b[n=5][T/m^n] polynom_b[n=6][T/m^n] 
+0.0000000000000000e+00 -3.4167769201975634e-01 +7.6340383542859036e-01 +7.1188469029315566e+00 +1.7372181146513800e+01 -6.5049262283149210e+03 +9.1119836173936972e+04 +3.5602731599365868e+07 
-1.0000000000000001e-01 -3.4167770492306326e-01 +7.6339811864420626e-01 +7.1225544822577795e+00 +1.7665678599817554e+01 -6.5222796631610472e+03 +8.8781267337894315e+04 +3.5556955720954619e+07 
-2.0000000000000001e-01 -3.4167771924210921e-01 +7.6339389394025436e-01 +7.1261200106583305e+00 +1.7935419541585212e+01 -6.5355385608113238e+03 +8.6514559372869291e+04 +3.5489756935482256e+07 
-3.0000000000000004e-01 -3.4167773523972039e-01 +7.6339105296691057e-01 +7.1295766986658897e+00 +1.8182091114094998e+01 -6.5455513594150052e+03 +8.4324946869757230e+04 +3.5405410991407245e+07 
-4.0000000000000002e-01 -3.4167775317873100e-01 +7.6338948737843171e-01 +7.1329577572604661e+00 +1.8406380295474044e+01 -6.5531664997123444e+03 +8.2217665575193154e+04 +3.5308193632945821e+07 
-5.0000000000000000e-01 -3.4167777332198118e-01 +7.6338908883033829e-01 +7.1362963977157117e+00 +1.8608974002844040e+01 -6.5592324234981998e+03 +8.0197951723658902e+04 +3.5202380595792957e+07 
-5.9999999999999998e-01 -3.4167779593232078e-01 +7.6338974897865153e-01 +7.1396258323703066e+00 +1.8790559116550060e+01 -6.5645975906801186e+03 +7.8271041880997829e+04 +3.5092247694211744e+07 
-6.9999999999999996e-01 -3.4167782127260837e-01 +7.6339135947987380e-01 +7.1429792745584564e+00 +1.8951822497361643e+01 -6.5701104793947852e+03 +7.6442172791451667e+04 +3.4982070824338332e+07 
-7.9999999999999993e-01 -3.4167784960570208e-01 +7.6339381199140666e-01 +7.1463899374722768e+00 +1.9093450988767465e+01 -6.5766195647188206e+03 +7.4716581313479386e+04 +3.4876125863666572e+07 
-8.9999999999999991e-01 -3.4167788119447012e-01 +7.6339699817012729e-01 +7.1498910361723897e+00 +1.9216131461023874e+01 -6.5849733618829541e+03 +7.3099504151754532e+04 +3.4778688888312198e+07 
-9.9999999999999989e-01 -3.4167791630178895e-01 +7.6340080967359969e-01 +7.1535157870761310e+00 +1.9320550792833320e+01 -6.5960204163110011e+03 +7.1596177905296907e+04 +3.4694036125959285e+07 
-1.0999999999999999e+00 -3.4167795519054173e-01 +7.6340513815736066e-01 +7.1572974080464800e+00 +1.9407395962129378e+01 -6.6106093066462281e+03 +7.0211838498997909e+04 +3.4626443971110895e+07 
-1.2000000000000000e+00 -3.4167799812361449e-01 +7.6340987527685622e-01 +7.1612691182981436e+00 +1.9477354000243050e+01 -6.6295886467571681e+03 +6.8951721412038023e+04 +3.4580189005556308e+07 
-1.3000000000000000e+00 -3.4167804536390156e-01 +7.6341491268463957e-01 +7.1654641389849587e+00 +1.9531112084776851e+01 -6.6538070967728099e+03 +6.7821061098918057e+04 +3.4559548049305595e+07 
-1.4000000000000001e+00 -3.4167809717430636e-01 +7.6342014203380049e-01 +7.1699156937145263e+00 +1.9569357446883075e+01 -6.6841133764998658e+03 +6.6825091499934846e+04 +3.4568798233256549e+07 
-1.5000000000000002e+00 -3.4167815381774036e-01 +7.6342545497269676e-01 +7.1746570082548438e+00 +1.9592777546766147e+01 -6.7213562591373311e+03 +6.5969044950095864e+04 +3.4612216967007153e+07 
-1.6000000000000003e+00 -3.4167821555711220e-01 +7.6343074314875992e-01 +7.1797213099873556e+00 +1.9602059960851147e+01 -6.7663845669423827e+03 +6.5258152835415240e+04 +3.4694081933816627e+07 
-1.7000000000000004e+00 -3.4167828265534544e-01 +7.6343589820533209e-01 +7.1851418295645777e+00 +1.9597892496809038e+01 -6.8200471998572966e+03 +6.4697644846664021e+04 +3.4818671217946500e+07 
-1.8000000000000005e+00 -3.4167835537537250e-01 +7.6344081178395751e-01 +7.1909518008457942e+00 +1.9580963132392831e+01 -6.8831931392069482e+03 +6.4292749315131317e+04 +3.4990263335087858e+07 
-1.9000000000000006e+00 -3.4167843398012349e-01 +7.6344537552096448e-01 +7.1971844594983265e+00 +1.9551960123856073e+01 -6.9566714219053474e+03 +6.4048692549774532e+04 +3.5213137110933378e+07 
-2.0000000000000004e+00 -3.4167851873254484e-01 +7.6344948104983124e-01 +7.2038730454696962e+00 +1.9511571960052294e+01 -7.0413311887041800e+03 +6.3970699029824980e+04 +3.5491571913384467e+07 
-2.1000000000000005e+00 -3.4167860973009490e-01 +7.6345305360656512e-01 +7.2110342507730945e+00 +1.9460342773106291e+01 -7.1376706749987889e+03 +6.4061766895070417e+04 +3.5828197554062434e+07 
-2.2000000000000006e+00 -3.4167870640419284e-01 +7.6345615954271107e-01 +7.2186171348503887e+00 +1.9397995573740431e+01 -7.2447681295262046e+03 +6.4317026989407525e+04 +3.6219037652437761e+07 
-2.3000000000000007e+00 -3.4167880801864281e-01 +7.6345890216359968e-01 +7.2265534681841697e+00 +1.9323989240219923e+01 -7.3613421496605406e+03 +6.4729879705327847e+04 +3.6658459813603230e+07 
-2.4000000000000008e+00 -3.4167891383724608e-01 +7.6346138478226033e-01 +7.2347750202297334e+00 +1.9237782427220058e+01 -7.4861113049734013e+03 +6.5293726643101210e+04 +3.7140831486220233e+07 
-2.5000000000000009e+00 -3.4167902312380521e-01 +7.6346371072043273e-01 +7.2432135596998597e+00 +1.9138833536847574e+01 -7.6177941395083972e+03 +6.6001970789169354e+04 +3.7660519963238232e+07 
-2.6000000000000010e+00 -3.4167913514213399e-01 +7.6346598331080873e-01 +7.2518008553501687e+00 +1.9026600639405338e+01 -7.7551091841474554e+03 +6.6848017011642994e+04 +3.8211892435340084e+07 
-2.7000000000000011e+00 -3.4167924915604164e-01 +7.6346830589551451e-01 +7.2604686741847528e+00 +1.8900541511014556e+01 -7.8967749217036744e+03 +6.7825271852290447e+04 +3.8789315822251610e+07 
-2.8000000000000012e+00 -3.4167936442934038e-01 +7.6347078182984973e-01 +7.2691487819296929e+00 +1.8760113524333587e+01 -8.0415097925589516e+03 +6.8927144155393689e+04 +3.9387156791479461e+07 
-2.9000000000000012e+00 -3.4167948022584688e-01 +7.6347351448100165e-01 +7.2777729433145684e+00 +1.8604773668291568e+01 -8.1880321997753981e+03 +7.0147044998499419e+04 +3.9999781782080598e+07 
-3.0000000000000013e+00 -3.4167959580937257e-01 +7.6347660723114708e-01 +7.2862729203259278e+00 +1.8433978460767079e+01 -8.3350604712303539e+03 +7.1478388184717900e+04 +4.0621556812467128e+07 
-3.1000000000000014e+00 -3.4167971044373935e-01 +7.6348016347607517e-01 +7.2945804742356311e+00 +1.8247183975105749e+01 -8.4813128981713453e+03 +7.2914590120118024e+04 +4.1246847664158128e+07 
-3.2000000000000015e+00 -3.4167982339276387e-01 +7.6348428662737933e-01 +7.3026273631901466e+00 +1.8043845773330649e+01 -8.6255076853859100e+03 +7.4449070203296928e+04 +4.1870019635034122e+07 
-3.3000000000000016e+00 -3.4167993392026524e-01 +7.6348908011463723e-01 +7.3103453432620213e+00 +1.7823418833786501e+01 -8.7663629712135080e+03 +7.6075251265616520e+04 +4.2485437634132199e+07 
-3.4000000000000017e+00 -3.4168004129006480e-01 +7.6349464738433659e-01 +7.3176661680977846e+00 +1.7585357573838980e+01 -8.9025968172353914e+03 +7.7786559458530159e+04 +4.3087466123668268e+07 
-3.5000000000000018e+00 -3.4168014476597353e-01 +7.6350109190175164e-01 +7.3245215870471965e+00 +1.7329115790422666e+01 -9.0329271707983098e+03 +7.9576424602227664e+04 +4.3670468936370842e+07 
-3.6000000000000019e+00 -3.4168024361181182e-01 +7.6350851715283863e-01 +7.3308433475200454e+00 +1.7054146599011961e+01 -9.1560719079247574e+03 +8.1438280554180994e+04 +4.4228809474441037e+07 
-3.7000000000000020e+00 -3.4168033709139772e-01 +7.6351702664220544e-01 +7.3365631933752935e+00 +1.6759902481545250e+01 -9.2707487999127734e+03 +8.3365564952545727e+04 +4.4756850543437757e+07 
-3.8000000000000020e+00 -3.4168042446854535e-01 +7.6352672389746601e-01 +7.3416128646286856e+00 +1.6445835159058330e+01 -9.3756755083709868e+03 +8.5351719956833680e+04 +4.5248954332011096e+07 
-3.9000000000000021e+00 -3.4168050500707148e-01 +7.6353771247022417e-01 +7.3459240977027447e+00 +1.6111395545876793e+01 -9.4695695835330807e+03 +8.7390192551023560e+04 +4.5699482385181375e+07 
-4.0000000000000018e+00 -3.4168057797078166e-01 +7.6355009593296874e-01 +7.3494286237883930e+00 +1.5756033839985470e+01 -9.5511484343634565e+03 +8.9474434013892504e+04 +4.6102795467904203e+07 
-4.1000000000000014e+00 -3.4168064279329768e-01 +7.6356393569368597e-01 +7.3520753968015535e+00 +1.5379785664507025e+01 -9.6194167486108909e+03 +9.1596878472928831e+04 +4.6454435129145369e+07 
-4.2000000000000011e+00 -3.4168069958711589e-01 +7.6357911728589978e-01 +7.3538843506217120e+00 +1.4985110610180033e+01 -9.6745571322926025e+03 +9.3746227680090466e+04 +4.6754711439346358e+07 
-4.3000000000000007e+00 -3.4168074863474523e-01 +7.6359548044795966e-01 +7.3548937624161947e+00 +1.4575089984208292e+01 -9.7170551685237115e+03 +9.5910394629418282e+04 +4.7005141870904118e+07 
-4.4000000000000004e+00 -3.4168079021869036e-01 +7.6361286490626223e-01 +7.3551419100129580e+00 +1.4152805425875489e+01 -9.7473964684001403e+03 +9.8077290507818179e+04 +4.7207244073619999e+07 
-4.5000000000000000e+00 -3.4168082462141869e-01 +7.6363111037856723e-01 +7.3546670682058322e+00 +1.3721338822397318e+01 -9.7660666042216544e+03 +1.0023482506063889e+05 +4.7362535575566538e+07 
-4.5999999999999996e+00 -3.4168085212540428e-01 +7.6365005656815799e-01 +7.3535075142743684e+00 +1.3283772484039314e+01 -9.7735512169735266e+03 +1.0237090556102073e+05 +4.7472534303657502e+07 
-4.6999999999999993e+00 -3.4168087301306560e-01 +7.6366954316747604e-01 +7.3517015202528810e+00 +1.2843189037036597e+01 -9.7703358700102071e+03 +1.0447343744363436e+05 +4.7538757889555112e+07 
-4.7999999999999989e+00 -3.4168088756683201e-01 +7.6368940985299116e-01 +7.3492873615604930e+00 +1.2402671574170817e+01 -9.7569062156673135e+03 +1.0653032342562235e+05 +4.7562724469570577e+07 
-4.8999999999999986e+00 -3.4168089606908991e-01 +7.6370949628700258e-01 +7.3463033102853847e+00 +1.1965303603792169e+01 -9.7337478686075738e+03 +1.0852946380659395e+05 +4.7545952086143874e+07 
-4.9999999999999982e+00 -3.4168089880219954e-01 +7.6372964211471617e-01 +7.3427876374309742e+00 +1.1534169133145895e+01 -9.7013464506534801e+03 +1.1045875598928293e+05 +4.7489958907875054e+07 
-5.0999999999999979e+00 -3.4168089604850349e-01 +7.6374968696417089e-01 +7.3387786141262366e+00 +1.1112352673448672e+01 -9.6601876150185981e+03 +1.1230609444777765e+05 +4.7396263348131813e+07 
-5.1999999999999975e+00 -3.4168088809031238e-01 +7.6376947044537380e-01 +7.3343145100406577e+00 +1.0702939261766492e+01 -9.6107570191415925e+03 +1.1405937061490063e+05 +4.7266383945777647e+07 
-5.2999999999999972e+00 -3.4168087520990942e-01 +7.6378883214725812e-01 +7.3294335939726567e+00 +1.0309014556584362e+01 -9.5535403355738054e+03 +1.1570647230806699e+05 +4.7101839415822014e+07 
-5.3999999999999968e+00 -3.4168085768955014e-01 +7.6380761163958455e-01 +7.3241741342206783e+00 +9.9336647773591071e+00 -9.4890232632264560e+03 +1.1723528409946291e+05 +4.6904148715504050e+07 
-5.4999999999999964e+00 -3.4168083581145026e-01 +7.6382564846865819e-01 +7.3185743967809511e+00 +9.5799768332288195e+00 -9.4176914926281770e+03 +1.1863368656099893e+05 +4.6674830879167967e+07 
-5.5999999999999961e+00 -3.4168080985780841e-01 +7.6384278215872736e-01 +7.3126726486073652e+00 +9.2510382812561112e+00 -9.3400307701536331e+03 +1.1988955651376853e+05 +4.6415405329858497e+07 
-5.6999999999999957e+00 -3.4168078011077585e-01 +7.6385885221095573e-01 +7.3065071540027269e+00 +8.9499373542131586e+00 -9.2565268317013306e+03 +1.2099076687692723e+05 +4.6127391570596047e+07 
-5.7999999999999954e+00 -3.4168074685247724e-01 +7.6387369809862604e-01 +7.3001161771799437e+00 +8.6797631090412892e+00 -9.1676654532895664e+03 +1.2192518578095915e+05 +4.5812309432511151e+07 
-5.8999999999999950e+00 -3.4168071036500486e-01 +7.6388715927101059e-01 +7.2935379818062316e+00 +8.4436053047667645e+00 -9.0739324428988348e+03 +1.2268067731184521e+05 +4.5471679036326751e+07 
-5.9999999999999947e+00 -3.4168067093039833e-01 +7.6389907515106148e-01 +7.2868108287637074e+00 +8.2445544545594824e+00 -8.9758136055315699e+03 +1.2324510115918746e+05 +4.5107020643690288e+07 
-6.0999999999999943e+00 -3.4168062888018835e-01 +7.6390931969631604e-01 +7.2799724497452338e+00 +8.0848385026986058e+00 -8.8738187525597878e+03 +1.2361078787714677e+05 +4.4720059570107676e+07 
-6.1999999999999940e+00 -3.4168058475550961e-01 +7.6391790527236525e-01 +7.2730575358315104e+00 +7.9635000505377027e+00 -8.7685253872196663e+03 +1.2378619661970010e+05 +4.4313189960259713e+07 
-6.2999999999999936e+00 -3.4168053915260732e-01 +7.6392487910287710e-01 +7.2660997595486538e+00 +7.8788466783984781e+00 -8.6605215506213190e+03 +1.2378340519883561e+05 +4.3888940924969926e+07 
-6.3999999999999932e+00 -3.4168049266776424e-01 +7.6393028840633570e-01 +7.2591327995451707e+00 +7.8291860573263525e+00 -8.5503954241594074e+03 +1.2361449153015064e+05 +4.3449842307183228e+07 
-6.4999999999999929e+00 -3.4168044589729224e-01 +7.6393418039541483e-01 +7.2521903400392800e+00 +7.8128259469829100e+00 -8.4387353182464540e+03 +1.2329153363965091e+05 +4.2998424630090795e+07 
-6.5999999999999925e+00 -3.4168039943752510e-01 +7.6393660227806470e-01 +7.2453060693198283e+00 +7.8280741577815407e+00 -8.3261296415979159e+03 +1.2282660992010843e+05 +4.2537218944872141e+07 
-6.6999999999999922e+00 -3.4168035388481999e-01 +7.6393760125531318e-01 +7.2385136807418897e+00 +7.8732386120979045e+00 -8.2131669242851622e+03 +1.2223179880011575e+05 +4.2068756951261669e+07 
-6.7999999999999918e+00 -3.4168030983557107e-01 +7.6393722452348722e-01 +7.2318468736823283e+00 +7.9466272745089084e+00 -8.1004358317282731e+03 +1.2151917917734677e+05 +4.1595571052458569e+07 
-6.8999999999999915e+00 -3.4168026788620354e-01 +7.6393551927251058e-01 +7.2253393535736858e+00 +8.0465482037217964e+00 -7.9885251716664234e+03 +1.2070083012937529e+05 +4.1120194406002156e+07 
-6.9999999999999911e+00 -3.4168022863317316e-01 +7.6393253268724415e-01 +7.2190248312854406e+00 +8.1713095090245460e+00 -7.8780238773146921e+03 +1.1978883119225579e+05 +4.0645160829036884e+07 
-7.0999999999999908e+00 -3.4168019267297239e-01 +7.6392831194694821e-01 +7.2129370241224127e+00 +8.3192193548517004e+00 -7.7695210297317235e+03 +1.1879526238548348e+05 +4.0173004914131463e+07 
-7.1999999999999904e+00 -3.4168016060212636e-01 +7.6392290422286169e-01 +7.2071096557164571e+00 +8.4885860422961485e+00 -7.6636058574582985e+03 +1.1773220372052498e+05 +3.9706262031835660e+07 
-7.2999999999999901e+00 -3.4168013301719441e-01 +7.6391635668270641e-01 +7.2015764556657347e+00 +8.6777178663285852e+00 -7.5608677271067863e+03 +1.1661173607854250e+05 +3.9247468279012844e+07 
-7.3999999999999897e+00 -3.4168011051477515e-01 +7.6390871648531078e-01 +7.1963711606625385e+00 +8.8849232686872703e+00 -7.4618961679825343e+03 +1.1544594035262184e+05 +3.8799160604442127e+07 
-7.4999999999999893e+00 -3.4168009369150920e-01 +7.6390003078529722e-01 +7.1915275146602893e+00 +9.1085107026350194e+00 -7.3672808738465392e+03 +1.1424689824306850e+05 +3.8363876812781304e+07 
-7.5999999999999890e+00 -3.4168008314407916e-01 +7.6389034672958422e-01 +7.1870792690694687e+00 +9.3467887310347315e+00 -7.2776117092949016e+03 +1.1302669171407459e+05 +3.7944155602845944e+07 
-7.6999999999999886e+00 -3.4168007946920603e-01 +7.6387971146107703e-01 +7.1830601821685347e+00 +9.5980659121208660e+00 -7.1934786973890641e+03 +1.1179740369623418e+05 +3.7542536504685245e+07 
-7.7999999999999883e+00 -3.4168008326365540e-01 +7.6386817211292479e-01 +7.1795040198892739e+00 +9.8606509693395274e+00 -7.1154720348127767e+03 +1.1057111710391370e+05 +3.7161559952678330e+07 
-7.8999999999999879e+00 -3.4168009512423964e-01 +7.6385577581431263e-01 +7.1764445565354933e+00 +1.0132852614095935e+01 -7.0441821084715466e+03 +1.0935991590875361e+05 +3.6803767371615112e+07 
-7.9999999999999876e+00 -3.4168011564781842e-01 +7.6384256968730246e-01 +7.1739155744341367e+00 +1.0412979675435617e+01 -6.9801994834095021e+03 +1.0817588431774364e+05 +3.6471701103628948e+07 
-8.0999999999999872e+00 -3.4168014517769613e-01 +7.6382860431732180e-01 +7.1719382711053470e+00 +1.0699474801131649e+01 -6.9239301857705259e+03 +1.0702905629566946e+05 +3.6167185735546492e+07 
-8.1999999999999869e+00 -3.4168018301608338e-01 +7.6381393810097731e-01 +7.1704794226768600e+00 +1.0991436320989669e+01 -6.8749793601673564e+03 +1.0591969067483772e+05 +3.5889013162940912e+07 
-8.2999999999999865e+00 -3.4168022819747651e-01 +7.6379862996526315e-01 +7.1694911124293759e+00 +1.1288166088862287e+01 -6.8327349842281819e+03 +1.0484505198093186e+05 +3.5635177307285838e+07 
-8.3999999999999861e+00 -3.4168027975631082e-01 +7.6378273886157499e-01 +7.1689254114031744e+00 +1.1588965446198245e+01 -6.7965847369653229e+03 +1.0380240601435723e+05 +3.5403670515397348e+07 
-8.4999999999999858e+00 -3.4168033672700981e-01 +7.6376632377228759e-01 +7.1687343845240514e+00 +1.1893134951269829e+01 -6.7659161077284898e+03 +1.0278902241130748e+05 +3.5192483978721447e+07 
-8.5999999999999854e+00 -3.4168039814394485e-01 +7.6374944370388942e-01 +7.1688700855226539e+00 +1.2199974581100655e+01 -6.7401162972126031e+03 +1.0180217345043077e+05 +3.4999607253940590e+07 
-8.6999999999999851e+00 -3.4168046304144156e-01 +7.6373215769431091e-01 +7.1692845574627233e+00 +1.2508783523517975e+01 -6.7185722248745296e+03 +1.0083913523108821e+05 +3.4823028290131494e+07 
-8.7999999999999847e+00 -3.4168053045379404e-01 +7.6371452481135893e-01 +7.1699298346276423e+00 +1.2818860231854707e+01 -6.7006705639403999e+03 +9.9897187312519847e+04 +3.4660733590561785e+07 
-8.8999999999999844e+00 -3.4168059941524231e-01 +7.6369660415247764e-01 +7.1707579389962026e+00 +1.3129502427113927e+01 -6.6857976680651491e+03 +9.8973612702495651e+04 +3.4510707845279917e+07 
-8.9999999999999840e+00 -3.4168066895998966e-01 +7.6367845484829411e-01 +7.1717208828283647e+00 +1.3440007006168571e+01 -6.6733396221823696e+03 +9.8065698341342126e+04 +3.4370934175841130e+07 
-9.0999999999999837e+00 -3.4168073812219074e-01 +7.6366013606205541e-01 +7.1727706667891677e+00 +1.3749670058569617e+01 -6.6626822022727547e+03 +9.7170734990196652e+04 +3.4239393929608263e+07 
-9.1999999999999833e+00 -3.4168080593595901e-01 +7.6364170698919942e-01 +7.1738592804903458e+00 +1.4057786887068362e+01 -6.6532108823467788e+03 +9.6286017070864618e+04 +3.4114066702873200e+07 
-9.2999999999999829e+00 -3.4168087143534348e-01 +7.6362322686070871e-01 +7.1749386998167948e+00 +1.4363651912257035e+01 -6.6443107837750940e+03 +9.5408843203062832e+04 +3.3992930098080568e+07 
-9.3999999999999826e+00 -3.4168093365435881e-01 +7.6360475494281332e-01 +7.1759608903481711e+00 +1.4666558684861830e+01 -6.6353667354881791e+03 +9.4536516103921793e+04 +3.3873959995034993e+07 
-9.4999999999999822e+00 -3.4168099162696774e-01 +7.6358635053860913e-01 +7.1768778049166260e+00 +1.4965799845065771e+01 -6.6257632257888581e+03 +9.3666342793383126e+04 +3.3755130316094227e+07 
-9.5999999999999819e+00 -3.4168104438707486e-01 +7.6356807298648255e-01 +7.1776413828259633e+00 +1.5260667171275822e+01 -6.6148843853688859e+03 +9.2795634286766523e+04 +3.3634412936819263e+07 
-9.6999999999999815e+00 -3.4168109096853261e-01 +7.6354998166540411e-01 +7.1782035502817623e+00 +1.5550451429179704e+01 -6.6021139924295940e+03 +9.1921706449003759e+04 +3.3509777701557208e+07 
-9.7999999999999812e+00 -3.4168113040514264e-01 +7.6353213599176883e-01 +7.1785162205482376e+00 +1.5834442473257070e+01 -6.5868354732734488e+03 +9.1041879362090942e+04 +3.3379192416732855e+07 
-9.8999999999999808e+00 -3.4168116173064883e-01 +7.6351459542228572e-01 +7.1785312928690868e+00 +1.6111929157351636e+01 -6.5684318797882233e+03 +9.0153477846361100e+04 +3.3240622737559065e+07 
-9.9999999999999805e+00 -3.4168118397871922e-01 +7.6349741944762362e-01 +7.1782006490481534e+00 +1.6382199518610239e+01 -6.5462858152037488e+03 +8.9253830714799027e+04 +3.3092031818823472e+07 
-1.0099999999999980e+01 -3.4168119647319151e-01 +7.6348064570414009e-01 +7.1774884381376562e+00 +1.6644996557722557e+01 -6.5199276660583510e+03 +8.8339181671744605e+04 +3.2931879367274415e+07 
