# field on trajectory
# s[mm] rx[mm] ry[mm] rz[mm] bx[T] by[T] bz[T]
0.0000000000000000e+00 +9.0449999999999999e+00 +0.0000000000000000e+00 +0.0000000000000000e+00 +5.2282982132065781e-02 -9.6754197220779681e-01 -1.1642565872925727e-02
-1.0000000000000001e-01 +9.0449994838976693e+00 +0.0000000000000000e+00 -9.9999999998224259e-02 +5.2283724167949283e-02 -9.6754222106597743e-01 -1.1642492076591357e-02
-2.0000000000000001e-01 +9.0449979355904979e+00 +0.0000000000000000e+00 -1.9999999998579404e-01 +5.2284481442670401e-02 -9.6754248334896198e-01 -1.1642418104160265e-02
-3.0000000000000004e-01 +9.0449953550782070e+00 +0.0000000000000000e+00 -2.9999999995205490e-01 +5.2285253428681393e-02 -9.6754275980610549e-01 -1.1642343808027387e-02
-4.0000000000000002e-01 +9.0449917423605015e+00 +0.0000000000000000e+00 -3.9999999988635232e-01 +5.2286039598433830e-02 -9.6754305118691819e-01 -1.1642269040595765e-02
-5.0000000000000000e-01 +9.0449870974370707e+00 +0.0000000000000000e+00 -4.9999999977803183e-01 +5.2286839424378860e-02 -9.6754335824103821e-01 -1.1642193654276526e-02
-5.9999999999999998e-01 +9.0449814203075878e+00 +0.0000000000000000e+00 -5.9999999961643891e-01 +5.2287652378967694e-02 -9.6754368171819916e-01 -1.1642117501488834e-02
-6.9999999999999996e-01 +9.0449747109717080e+00 +0.0000000000000000e+00 -6.9999999939091906e-01 +5.2288477934651995e-02 -9.6754402236820181e-01 -1.1642040434659892e-02
-7.9999999999999993e-01 +9.0449669694290691e+00 +0.0000000000000000e+00 -7.9999999909081776e-01 +5.2289315563884137e-02 -9.6754438094088369e-01 -1.1641962306224917e-02
-8.9999999999999991e-01 +9.0449581956792873e+00 +0.0000000000000000e+00 -8.9999999870548042e-01 +5.2290164739117816e-02 -9.6754475818608987e-01 -1.1641882968627105e-02
-9.9999999999999989e-01 +9.0449483897219629e+00 +0.0000000000000000e+00 -9.9999999822425245e-01 +5.2291024932808176e-02 -9.6754515485364190e-01 -1.1641802274317619e-02
-1.0999999999999999e+00 +9.0449375515566732e+00 +0.0000000000000000e+00 -1.0999999976364794e+00 +5.2291895617412487e-02 -9.6754557169330979e-01 -1.1641720075755570e-02
-1.2000000000000000e+00 +9.0449256811829741e+00 +0.0000000000000000e+00 -1.1999999969315065e+00 +5.2292776265390278e-02 -9.6754600945478020e-01 -1.1641636225407983e-02
-1.3000000000000000e+00 +9.0449127786004002e+00 +0.0000000000000000e+00 -1.2999999960986794e+00 +5.2293666349203918e-02 -9.6754646888762807e-01 -1.1641550575749778e-02
-1.4000000000000001e+00 +9.0448988438084630e+00 +0.0000000000000000e+00 -1.3999999951273434e+00 +5.2294565341318856e-02 -9.6754695074128605e-01 -1.1641462979263762e-02
-1.5000000000000002e+00 +9.0448838768066508e+00 +0.0000000000000000e+00 -1.4999999940068438e+00 +5.2295472714204122e-02 -9.6754745576501511e-01 -1.1641373288440572e-02
-1.6000000000000003e+00 +9.0448678775944238e+00 +0.0000000000000000e+00 -1.5999999927265258e+00 +5.2296387940332659e-02 -9.6754798470787340e-01 -1.1641281355778684e-02
-1.7000000000000004e+00 +9.0448508461712223e+00 +0.0000000000000000e+00 -1.6999999912757351e+00 +5.2297310492181739e-02 -9.6754853831868903e-01 -1.1641187033784391e-02
-1.8000000000000005e+00 +9.0448327825364547e+00 +0.0000000000000000e+00 -1.7999999896438166e+00 +5.2298239842233335e-02 -9.6754911734602767e-01 -1.1641090174971738e-02
-1.9000000000000006e+00 +9.0448136866895066e+00 +0.0000000000000000e+00 -1.8999999878201157e+00 +5.2299175462974502e-02 -9.6754972253816407e-01 -1.1640990631862557e-02
-2.0000000000000004e+00 +9.0447935586297348e+00 +0.0000000000000000e+00 -1.9999999857939779e+00 +5.2300116826897829e-02 -9.6755035464305117e-01 -1.1640888256986393e-02
-2.1000000000000005e+00 +9.0447723983564661e+00 +0.0000000000000000e+00 -2.0999999835547483e+00 +5.2301063424977173e-02 -9.6755101402272148e-01 -1.1640782970650429e-02
-2.2000000000000006e+00 +9.0447502058689988e+00 +0.0000000000000000e+00 -2.1999999810917719e+00 +5.2302014822092457e-02 -9.6755169949666364e-01 -1.1640674964241312e-02
-2.3000000000000007e+00 +9.0447269811666047e+00 +0.0000000000000000e+00 -2.2999999783943941e+00 +5.2302970601599837e-02 -9.6755240949872690e-01 -1.1640564496899899e-02
-2.4000000000000008e+00 +9.0447027242485287e+00 +0.0000000000000000e+00 -2.3999999754519599e+00 +5.2303930346855397e-02 -9.6755314246272939e-01 -1.1640451827746557e-02
-2.5000000000000009e+00 +9.0446774351139929e+00 +0.0000000000000000e+00 -2.4999999722538142e+00 +5.2304893641214857e-02 -9.6755389682246840e-01 -1.1640337215878316e-02
-2.6000000000000010e+00 +9.0446511137621943e+00 +0.0000000000000000e+00 -2.5999999687893025e+00 +5.2305860068033311e-02 -9.6755467101173331e-01 -1.1640220920366066e-02
-2.7000000000000011e+00 +9.0446237601923105e+00 +0.0000000000000000e+00 -2.6999999650477697e+00 +5.2306829210664769e-02 -9.6755546346431553e-01 -1.1640103200251694e-02
-2.8000000000000012e+00 +9.0445953744034995e+00 +0.0000000000000000e+00 -2.7999999610185609e+00 +5.2307800652461982e-02 -9.6755627261402000e-01 -1.1639984314545247e-02
-2.9000000000000012e+00 +9.0445659563948997e+00 +0.0000000000000000e+00 -2.8999999566910208e+00 +5.2308773976776066e-02 -9.6755709689467595e-01 -1.1639864522222126e-02
-3.0000000000000013e+00 +9.0445355061656354e+00 +0.0000000000000000e+00 -2.9999999520544947e+00 +5.2309748766956161e-02 -9.6755793474014828e-01 -1.1639744082220219e-02
-3.1000000000000014e+00 +9.0445040237148167e+00 +0.0000000000000000e+00 -3.0999999470983273e+00 +5.2310724606349120e-02 -9.6755878458434796e-01 -1.1639623253437091e-02
-3.2000000000000015e+00 +9.0444715090415411e+00 +0.0000000000000000e+00 -3.1999999418118632e+00 +5.2311701078299258e-02 -9.6755964486124524e-01 -1.1639502294727121e-02
-3.3000000000000016e+00 +9.0444379621448938e+00 +0.0000000000000000e+00 -3.2999999361844479e+00 +5.2312677766147925e-02 -9.6756051400487719e-01 -1.1639381464898698e-02
-3.4000000000000017e+00 +9.0444033830239512e+00 +0.0000000000000000e+00 -3.3999999302054258e+00 +5.2313654253233241e-02 -9.6756139044936251e-01 -1.1639261022711378e-02
-3.5000000000000018e+00 +9.0443677716777806e+00 +0.0000000000000000e+00 -3.4999999238641419e+00 +5.2314630122889824e-02 -9.6756227262891070e-01 -1.1639141226873043e-02
-3.6000000000000019e+00 +9.0443311281054477e+00 +0.0000000000000000e+00 -3.5999999171499408e+00 +5.2315604958448385e-02 -9.6756315897783196e-01 -1.1639022336037065e-02
-3.7000000000000020e+00 +9.0442934523060092e+00 +0.0000000000000000e+00 -3.6999999100521674e+00 +5.2316578343235449e-02 -9.6756404793055217e-01 -1.1638904608799495e-02
-3.8000000000000020e+00 +9.0442547442785202e+00 +0.0000000000000000e+00 -3.7999999025601663e+00 +5.2317549860573069e-02 -9.6756493792161924e-01 -1.1638788303696202e-02
-3.9000000000000021e+00 +9.0442150040220373e+00 +0.0000000000000000e+00 -3.8999998946632819e+00 +5.2318519093778458e-02 -9.6756582738571828e-01 -1.1638673679200065e-02
-4.0000000000000018e+00 +9.0441742315356155e+00 +0.0000000000000000e+00 -3.9999998863508592e+00 +5.2319485626163696e-02 -9.6756671475767997e-01 -1.1638560993718133e-02
-4.1000000000000014e+00 +9.0441324268183116e+00 +0.0000000000000000e+00 -4.0999998776122428e+00 +5.2320448986052995e-02 -9.6756759842830742e-01 -1.1638450432457861e-02
-4.2000000000000011e+00 +9.0440895898691878e+00 +0.0000000000000000e+00 -4.1999998684367776e+00 +5.2321408481833302e-02 -9.6756847661178302e-01 -1.1638341888067897e-02
-4.3000000000000007e+00 +9.0440457206873131e+00 +0.0000000000000000e+00 -4.2999998588138073e+00 +5.2322363366899313e-02 -9.6756934747814760e-01 -1.1638235180096870e-02
-4.4000000000000004e+00 +9.0440008192717620e+00 +0.0000000000000000e+00 -4.3999998487326772e+00 +5.2323312894635238e-02 -9.6757020919747649e-01 -1.1638130128137728e-02
-4.5000000000000000e+00 +9.0439548856216199e+00 +0.0000000000000000e+00 -4.4999998381827320e+00 +5.2324256318414412e-02 -9.6757105993988302e-01 -1.1638026551831642e-02
-4.5999999999999996e+00 +9.0439079197359860e+00 +0.0000000000000000e+00 -4.5999998271533151e+00 +5.2325192891598711e-02 -9.6757189787552100e-01 -1.1637924270871932e-02
-4.6999999999999993e+00 +9.0438599216139703e+00 +0.0000000000000000e+00 -4.6999998156337721e+00 +5.2326121867537934e-02 -9.6757272117458437e-01 -1.1637823105007964e-02
-4.7999999999999989e+00 +9.0438108912546991e+00 +0.0000000000000000e+00 -4.7999998036134466e+00 +5.2327042499569362e-02 -9.6757352800731389e-01 -1.1637722874049078e-02
-4.8999999999999986e+00 +9.0437608286573177e+00 +0.0000000000000000e+00 -4.8999997910816839e+00 +5.2327954041017220e-02 -9.6757431654399795e-01 -1.1637623397868510e-02
-4.9999999999999982e+00 +9.0437097338209913e+00 +0.0000000000000000e+00 -4.9999997780278278e+00 +5.2328855745192020e-02 -9.6757508495497246e-01 -1.1637524496407268e-02
-5.0999999999999979e+00 +9.0436576067449046e+00 +0.0000000000000000e+00 -5.0999997644412227e+00 +5.2329746865390193e-02 -9.6757583141062742e-01 -1.1637425989678074e-02
-5.1999999999999975e+00 +9.0436044474282671e+00 +0.0000000000000000e+00 -5.1999997503112132e+00 +5.2330626654893381e-02 -9.6757655408140675e-01 -1.1637327697769278e-02
-5.2999999999999972e+00 +9.0435502558703149e+00 +0.0000000000000000e+00 -5.2999997356271438e+00 +5.2331494366967983e-02 -9.6757725113781157e-01 -1.1637229440848757e-02
-5.3999999999999968e+00 +9.0434950320703091e+00 +0.0000000000000000e+00 -5.3999997203783581e+00 +5.2332349254864630e-02 -9.6757792075040305e-01 -1.1637131039167832e-02
-5.4999999999999964e+00 +9.0434387760275410e+00 +0.0000000000000000e+00 -5.4999997045542015e+00 +5.2333190571817581e-02 -9.6757856108980356e-01 -1.1637032313065183e-02
-5.5999999999999961e+00 +9.0433814877413337e+00 +0.0000000000000000e+00 -5.5999996881440177e+00 +5.2334017571044264e-02 -9.6757917032670049e-01 -1.1636933082970743e-02
-5.6999999999999957e+00 +9.0433231672110441e+00 +0.0000000000000000e+00 -5.6999996711371512e+00 +5.2334829505744605e-02 -9.6757974663184820e-01 -1.1636833169409642e-02
-5.7999999999999954e+00 +9.0432638144360649e+00 +0.0000000000000000e+00 -5.7999996535229466e+00 +5.2335625629100650e-02 -9.6758028817607100e-01 -1.1636732393006086e-02
-5.8999999999999950e+00 +9.0432034294158221e+00 +0.0000000000000000e+00 -5.8999996352907473e+00 +5.2336405194275910e-02 -9.6758079313026435e-01 -1.1636630574487284e-02
-5.9999999999999947e+00 +9.0431420121497865e+00 +0.0000000000000000e+00 -5.9999996164298990e+00 +5.2337167454414822e-02 -9.6758125966539843e-01 -1.1636527534687358e-02
-6.0999999999999943e+00 +9.0430795626374643e+00 +0.0000000000000000e+00 -6.0999995969297451e+00 +5.2337911740476174e-02 -9.6758168675724077e-01 -1.1636423118734073e-02
-6.1999999999999940e+00 +9.0430160808784077e+00 +0.0000000000000000e+00 -6.1999995767796303e+00 +5.2338637694747440e-02 -9.6758207660049778e-01 -1.1636317268556660e-02
-6.2999999999999936e+00 +9.0429515668722082e+00 +0.0000000000000000e+00 -6.2999995559688990e+00 +5.2339345037358424e-02 -9.6758243219453743e-01 -1.1636209950258226e-02
-6.3999999999999932e+00 +9.0428860206184911e+00 +0.0000000000000000e+00 -6.3999995344868958e+00 +5.2340033488448554e-02 -9.6758275653863035e-01 -1.1636101129919578e-02
-6.4999999999999929e+00 +9.0428194421169188e+00 +0.0000000000000000e+00 -6.4999995123229652e+00 +5.2340702768167685e-02 -9.6758305263194899e-01 -1.1635990773597548e-02
-6.5999999999999925e+00 +9.0427518313671822e+00 +0.0000000000000000e+00 -6.5999994894664509e+00 +5.2341352596676521e-02 -9.6758332347355880e-01 -1.1635878847323354e-02
-6.6999999999999922e+00 +9.0426831883689989e+00 +0.0000000000000000e+00 -6.6999994659066981e+00 +5.2341982694147492e-02 -9.6758357206241707e-01 -1.1635765317100949e-02
-6.7999999999999918e+00 +9.0426135131221095e+00 +0.0000000000000000e+00 -6.7999994416330507e+00 +5.2342592780765244e-02 -9.6758380139736677e-01 -1.1635650148905346e-02
-6.8999999999999915e+00 +9.0425428056262778e+00 +0.0000000000000000e+00 -6.8999994166348539e+00 +5.2343182576727418e-02 -9.6758401447713316e-01 -1.1635533308680990e-02
-6.9999999999999911e+00 +9.0424710658812835e+00 +0.0000000000000000e+00 -6.9999993909014515e+00 +5.2343751802245111e-02 -9.6758421430031849e-01 -1.1635414762340080e-02
-7.0999999999999908e+00 +9.0423982938869205e+00 +0.0000000000000000e+00 -7.0999993644221879e+00 +5.2344300177543768e-02 -9.6758440386539757e-01 -1.1635294475760954e-02
-7.1999999999999904e+00 +9.0423244896429935e+00 +0.0000000000000000e+00 -7.1999993371864077e+00 +5.2344827422863636e-02 -9.6758458617071330e-01 -1.1635172414786369e-02
-7.2999999999999901e+00 +9.0422496531493177e+00 +0.0000000000000000e+00 -7.2999993091834563e+00 +5.2345333258460504e-02 -9.6758476421447337e-01 -1.1635048545221930e-02
-7.3999999999999897e+00 +9.0421737844057084e+00 +0.0000000000000000e+00 -7.3999992804026773e+00 +5.2345817404606351e-02 -9.6758494099474346e-01 -1.1634922832834375e-02
-7.4999999999999893e+00 +9.0420968834119861e+00 +0.0000000000000000e+00 -7.4999992508334143e+00 +5.2346279581590001e-02 -9.6758511950944470e-01 -1.1634795243349962e-02
-7.5999999999999890e+00 +9.0420189501679680e+00 +0.0000000000000000e+00 -7.5999992204650129e+00 +5.2346719509717705e-02 -9.6758530275634858e-01 -1.1634665742452786e-02
-7.6999999999999886e+00 +9.0419399846734674e+00 +0.0000000000000000e+00 -7.6999991892868174e+00 +5.2347136909313911e-02 -9.6758549373307279e-01 -1.1634534295783171e-02
-7.7999999999999883e+00 +9.0418599869282890e+00 +0.0000000000000000e+00 -7.7999991572881724e+00 +5.2347531500721800e-02 -9.6758569543707462e-01 -1.1634400868935958e-02
-7.8999999999999879e+00 +9.0417789569322249e+00 +0.0000000000000000e+00 -7.8999991244584216e+00 +5.2347903004304031e-02 -9.6758591086565093e-01 -1.1634265427458936e-02
-7.9999999999999876e+00 +9.0416968946850531e+00 +0.0000000000000000e+00 -7.9999990907869103e+00 +5.2348251140443315e-02 -9.6758614301592893e-01 -1.1634127936851122e-02
-8.0999999999999872e+00 +9.0416138001865356e+00 +0.0000000000000000e+00 -8.0999990562629822e+00 +5.2348575690983098e-02 -9.6758639416776293e-01 -1.1633988419678059e-02
-8.1999999999999869e+00 +9.0415296734364130e+00 +0.0000000000000000e+00 -8.1999990208759819e+00 +5.2348876683530436e-02 -9.6758666373247315e-01 -1.1633847126925686e-02
-8.2999999999999865e+00 +9.0414445144344064e+00 +0.0000000000000000e+00 -8.2999989846152538e+00 +5.2349154207090041e-02 -9.6758695040440390e-01 -1.1633704366642190e-02
-8.3999999999999861e+00 +9.0413583231802193e+00 +0.0000000000000000e+00 -8.3999989474701415e+00 +5.2349408350613330e-02 -9.6758725287810110e-01 -1.1633560446815809e-02
-8.4999999999999858e+00 +9.0412710996735388e+00 +0.0000000000000000e+00 -8.4999989094299906e+00 +5.2349639202996928e-02 -9.6758756984832028e-01 -1.1633415675373040e-02
-8.5999999999999854e+00 +9.0411828439140347e+00 +0.0000000000000000e+00 -8.5999988704841428e+00 +5.2349846853080993e-02 -9.6758790001003125e-01 -1.1633270360176841e-02
-8.6999999999999851e+00 +9.0410935559013659e+00 +0.0000000000000000e+00 -8.6999988306219453e+00 +5.2350031389647729e-02 -9.6758824205842731e-01 -1.1633124809024837e-02
-8.7999999999999847e+00 +9.0410032356351770e+00 +0.0000000000000000e+00 -8.7999987898327401e+00 +5.2350192901419713e-02 -9.6758859468893121e-01 -1.1632979329647526e-02
-8.8999999999999844e+00 +9.0409118831151005e+00 +0.0000000000000000e+00 -8.8999987481058724e+00 +5.2350331477058351e-02 -9.6758895659720145e-01 -1.1632834229706471e-02
-8.9999999999999840e+00 +9.0408194983407615e+00 +0.0000000000000000e+00 -8.9999987054306860e+00 +5.2350447205162277e-02 -9.6758932647914064e-01 -1.1632689816792500e-02
-9.0999999999999837e+00 +9.0407260813117745e+00 +0.0000000000000000e+00 -9.0999986617965263e+00 +5.2350540174265763e-02 -9.6758970303090019e-01 -1.1632546398423923e-02
-9.1999999999999833e+00 +9.0406316320277469e+00 +0.0000000000000000e+00 -9.1999986171927368e+00 +5.2350610472837122e-02 -9.6759008494888954e-01 -1.1632404282044715e-02
-9.2999999999999829e+00 +9.0405361504882826e+00 +0.0000000000000000e+00 -9.2999985716086613e+00 +5.2350658189277179e-02 -9.6759047092978201e-01 -1.1632263775022727e-02
-9.3999999999999826e+00 +9.0404396366929802e+00 +0.0000000000000000e+00 -9.3999985250336433e+00 +5.2350683411917599e-02 -9.6759085967052150e-01 -1.1632125184647873e-02
-9.4999999999999822e+00 +9.0403420906414365e+00 +0.0000000000000000e+00 -9.4999984774570265e+00 +5.2350686229019346e-02 -9.6759124986832945e-01 -1.1631988818130344e-02
-9.5999999999999819e+00 +9.0402435123332445e+00 +0.0000000000000000e+00 -9.5999984288681564e+00 +5.2350666728771075e-02 -9.6759164022071231e-01 -1.1631854982598796e-02
-9.6999999999999815e+00 +9.0401439017679976e+00 +0.0000000000000000e+00 -9.6999983792563764e+00 +5.2350624999287561e-02 -9.6759202942546774e-01 -1.1631723985098551e-02
-9.7999999999999812e+00 +9.0400432589452926e+00 +0.0000000000000000e+00 -9.7999983286110304e+00 +5.2350561128608100e-02 -9.6759241618069158e-01 -1.1631596132589784e-02
-9.8999999999999808e+00 +9.0399415838647261e+00 +0.0000000000000000e+00 -9.8999982769214636e+00 +5.2350475204694900e-02 -9.6759279918478536e-01 -1.1631471731945732e-02
-9.9999999999999805e+00 +9.0398388765259021e+00 +0.0000000000000000e+00 -9.9999982241770180e+00 +5.2350367315431537e-02 -9.6759317713646276e-01 -1.1631351089950892e-02
-1.0099999999999980e+01 +9.0397351369284280e+00 +0.0000000000000000e+00 -1.0099998170367039e+01 +5.2350237525429041e-02 -9.6759354896525585e-01 -1.1631234402382232e-02
-1.0199999999999980e+01 +9.0396303650719183e+00 +0.0000000000000000e+00 -1.0199998115480870e+01 +5.2350085806518593e-02 -9.6759391452304599e-01 -1.1631121421303098e-02
-1.0299999999999979e+01 +9.0395245609559947e+00 +0.0000000000000000e+00 -1.0299998059507855e+01 +5.2349912107465049e-02 -9.6759427389250263e-01 -1.1631011787949444e-02
-1.0399999999999979e+01 +9.0394177245802840e+00 +0.0000000000000000e+00 -1.0399998002437339e+01 +5.2349716377184587e-02 -9.6759462715656097e-01 -1.1630905143679326e-02
-1.0499999999999979e+01 +9.0393098559444205e+00 +0.0000000000000000e+00 -1.0499997944258665e+01 +5.2349498564748555e-02 -9.6759497439842368e-01 -1.1630801129976311e-02
-1.0599999999999978e+01 +9.0392009550480452e+00 +0.0000000000000000e+00 -1.0599997884961176e+01 +5.2349258619387662e-02 -9.6759531570156820e-01 -1.1630699388452861e-02
-1.0699999999999978e+01 +9.0390910218908065e+00 +0.0000000000000000e+00 -1.0699997824534218e+01 +5.2348996490496021e-02 -9.6759565114975166e-01 -1.1630599560853751e-02
-1.0799999999999978e+01 +9.0389800564723579e+00 +0.0000000000000000e+00 -1.0799997762967134e+01 +5.2348712127635144e-02 -9.6759598082701548e-01 -1.1630501289059455e-02
-1.0899999999999977e+01 +9.0388680587923602e+00 +0.0000000000000000e+00 -1.0899997700249269e+01 +5.2348405480537964e-02 -9.6759630481768988e-01 -1.1630404215089563e-02
-1.0999999999999977e+01 +9.0387550288504794e+00 +0.0000000000000000e+00 -1.0999997636369965e+01 +5.2348076499112932e-02 -9.6759662320640150e-01 -1.1630307981106165e-02
-1.1099999999999977e+01 +9.0386409666463869e+00 +0.0000000000000000e+00 -1.1099997571318568e+01 +5.2347725133448077e-02 -9.6759693607807651e-01 -1.1630212229417276e-02
-1.1199999999999976e+01 +9.0385258721797612e+00 +0.0000000000000000e+00 -1.1199997505084420e+01 +5.2347351333814962e-02 -9.6759724351794496e-01 -1.1630116602480213e-02
-1.1299999999999976e+01 +9.0384097454502879e+00 +0.0000000000000000e+00 -1.1299997437656867e+01 +5.2346955050672807e-02 -9.6759754561154820e-01 -1.1630020742905004e-02
-1.1399999999999975e+01 +9.0382925864576560e+00 +0.0000000000000000e+00 -1.1399997369025252e+01 +5.2346536234672524e-02 -9.6759784244474323e-01 -1.1629924293457810e-02
-1.1499999999999975e+01 +9.0381743952015619e+00 +0.0000000000000000e+00 -1.1499997299178919e+01 +5.2346094836660688e-02 -9.6759813410370754e-01 -1.1629826897064308e-02
-1.1599999999999975e+01 +9.0380551716817052e+00 +0.0000000000000000e+00 -1.1599997228107211e+01 +5.2345630807683716e-02 -9.6759842067494395e-01 -1.1629728196813096e-02
-1.1699999999999974e+01 +9.0379349158977949e+00 +0.0000000000000000e+00 -1.1699997155799473e+01 +5.2345144098991783e-02 -9.6759870224528588e-01 -1.1629627835959090e-02
