# trajectory
# s[mm] rx[mm] ry[mm] rz[mm] px[rad] py[rad] pz[rad]
0.0000000000000000e+00 +9.0449999999999999e+00 +0.0000000000000000e+00 +0.0000000000000000e+00 +0.0000000000000000e+00 +0.0000000000000000e+00 +1.0000000000000000e+00
-1.0000000000000001e-01 +9.0449994838976693e+00 +0.0000000000000000e+00 -9.9999999998224259e-02 +1.0322047052104585e-05 +0.0000000000000000e+00 +9.9999999994672772e-01
-2.0000000000000001e-01 +9.0449979355904979e+00 +0.0000000000000000e+00 -1.9999999998579404e-01 +2.0644096828951620e-05 +0.0000000000000000e+00 +9.9999999978691068e-01
-3.0000000000000004e-01 +9.0449953550782070e+00 +0.0000000000000000e+00 -2.9999999995205490e-01 +3.0966149476658449e-05 +0.0000000000000000e+00 +9.9999999952054885e-01
-4.0000000000000002e-01 +9.0449917423605015e+00 +0.0000000000000000e+00 -3.9999999988635232e-01 +4.1288205149337637e-05 +0.0000000000000000e+00 +9.9999999914764215e-01
-5.0000000000000000e-01 +9.0449870974370707e+00 +0.0000000000000000e+00 -4.9999999977803183e-01 +5.1610264009098453e-05 +0.0000000000000000e+00 +9.9999999866819045e-01
-5.9999999999999998e-01 +9.0449814203075878e+00 +0.0000000000000000e+00 -5.9999999961643891e-01 +6.1932326226048090e-05 +0.0000000000000000e+00 +9.9999999808219364e-01
-6.9999999999999996e-01 +9.0449747109717080e+00 +0.0000000000000000e+00 -6.9999999939091906e-01 +7.2254391978292506e-05 +0.0000000000000000e+00 +9.9999999738965162e-01
-7.9999999999999993e-01 +9.0449669694290691e+00 +0.0000000000000000e+00 -7.9999999909081776e-01 +8.2576461451937022e-05 +0.0000000000000000e+00 +9.9999999659056416e-01
-8.9999999999999991e-01 +9.0449581956792873e+00 +0.0000000000000000e+00 -8.9999999870548042e-01 +9.2898534841086489e-05 +0.0000000000000000e+00 +9.9999999568493125e-01
-9.9999999999999989e-01 +9.0449483897219629e+00 +0.0000000000000000e+00 -9.9999999822425245e-01 +1.0322061234784527e-04 +0.0000000000000000e+00 +9.9999999467275269e-01
-1.0999999999999999e+00 +9.0449375515566732e+00 +0.0000000000000000e+00 -1.0999999976364794e+00 +1.1354269418231682e-04 +0.0000000000000000e+00 +9.9999999355402835e-01
-1.2000000000000000e+00 +9.0449256811829741e+00 +0.0000000000000000e+00 -1.1999999969315065e+00 +1.2386478056260292e-04 +0.0000000000000000e+00 +9.9999999232875814e-01
-1.3000000000000000e+00 +9.0449127786004002e+00 +0.0000000000000000e+00 -1.2999999960986794e+00 +1.3418687171480270e-04 +0.0000000000000000e+00 +9.9999999099694181e-01
-1.4000000000000001e+00 +9.0448988438084630e+00 +0.0000000000000000e+00 -1.3999999951273434e+00 +1.4450896787301124e-04 +0.0000000000000000e+00 +9.9999998955857916e-01
-1.5000000000000002e+00 +9.0448838768066508e+00 +0.0000000000000000e+00 -1.4999999940068438e+00 +1.5483106927931793e-04 +0.0000000000000000e+00 +9.9999998801367007e-01
-1.6000000000000003e+00 +9.0448678775944238e+00 +0.0000000000000000e+00 -1.5999999927265258e+00 +1.6515317618380444e-04 +0.0000000000000000e+00 +9.9999998636221421e-01
-1.7000000000000004e+00 +9.0448508461712223e+00 +0.0000000000000000e+00 -1.6999999912757351e+00 +1.7547528884454246e-04 +0.0000000000000000e+00 +9.9999998460421147e-01
-1.8000000000000005e+00 +9.0448327825364547e+00 +0.0000000000000000e+00 -1.7999999896438166e+00 +1.8579740752759099e-04 +0.0000000000000000e+00 +9.9999998273966162e-01
-1.9000000000000006e+00 +9.0448136866895066e+00 +0.0000000000000000e+00 -1.8999999878201157e+00 +1.9611953250699344e-04 +0.0000000000000000e+00 +9.9999998076856444e-01
-2.0000000000000004e+00 +9.0447935586297348e+00 +0.0000000000000000e+00 -1.9999999857939779e+00 +2.0644166406477441e-04 +0.0000000000000000e+00 +9.9999997869091961e-01
-2.1000000000000005e+00 +9.0447723983564661e+00 +0.0000000000000000e+00 -2.0999999835547483e+00 +2.1676380248990764e-04 +0.0000000000000000e+00 +9.9999997650672690e-01
-2.2000000000000006e+00 +9.0447502058689988e+00 +0.0000000000000000e+00 -2.1999999810917719e+00 +2.2708594806700080e-04 +0.0000000000000000e+00 +9.9999997421598597e-01
-2.3000000000000007e+00 +9.0447269811666047e+00 +0.0000000000000000e+00 -2.2999999783943941e+00 +2.3740810106498195e-04 +0.0000000000000000e+00 +9.9999997181869660e-01
-2.4000000000000008e+00 +9.0447027242485287e+00 +0.0000000000000000e+00 -2.3999999754519599e+00 +2.4773026173607079e-04 +0.0000000000000000e+00 +9.9999996931485846e-01
-2.5000000000000009e+00 +9.0446774351139929e+00 +0.0000000000000000e+00 -2.4999999722538142e+00 +2.5805243031577844e-04 +0.0000000000000000e+00 +9.9999996670447122e-01
-2.6000000000000010e+00 +9.0446511137621943e+00 +0.0000000000000000e+00 -2.5999999687893025e+00 +2.6837460702290708e-04 +0.0000000000000000e+00 +9.9999996398753466e-01
-2.7000000000000011e+00 +9.0446237601923105e+00 +0.0000000000000000e+00 -2.6999999650477697e+00 +2.7869679205955015e-04 +0.0000000000000000e+00 +9.9999996116404843e-01
-2.8000000000000012e+00 +9.0445953744034995e+00 +0.0000000000000000e+00 -2.7999999610185609e+00 +2.8901898561109230e-04 +0.0000000000000000e+00 +9.9999995823401222e-01
-2.9000000000000012e+00 +9.0445659563948997e+00 +0.0000000000000000e+00 -2.8999999566910208e+00 +2.9934118784620962e-04 +0.0000000000000000e+00 +9.9999995519742579e-01
-3.0000000000000013e+00 +9.0445355061656354e+00 +0.0000000000000000e+00 -2.9999999520544947e+00 +3.0966339891686998e-04 +0.0000000000000000e+00 +9.9999995205428871e-01
-3.1000000000000014e+00 +9.0445040237148167e+00 +0.0000000000000000e+00 -3.0999999470983273e+00 +3.1998561895833343e-04 +0.0000000000000000e+00 +9.9999994880460075e-01
-3.2000000000000015e+00 +9.0444715090415411e+00 +0.0000000000000000e+00 -3.1999999418118632e+00 +3.3030784808915279e-04 +0.0000000000000000e+00 +9.9999994544836146e-01
-3.3000000000000016e+00 +9.0444379621448938e+00 +0.0000000000000000e+00 -3.2999999361844479e+00 +3.4063008641117430e-04 +0.0000000000000000e+00 +9.9999994198557063e-01
-3.4000000000000017e+00 +9.0444033830239512e+00 +0.0000000000000000e+00 -3.3999999302054258e+00 +3.5095233400953853e-04 +0.0000000000000000e+00 +9.9999993841622792e-01
-3.5000000000000018e+00 +9.0443677716777806e+00 +0.0000000000000000e+00 -3.4999999238641419e+00 +3.6127459095268102e-04 +0.0000000000000000e+00 +9.9999993474033300e-01
-3.6000000000000019e+00 +9.0443311281054477e+00 +0.0000000000000000e+00 -3.5999999171499408e+00 +3.7159685729233366e-04 +0.0000000000000000e+00 +9.9999993095788564e-01
-3.7000000000000020e+00 +9.0442934523060092e+00 +0.0000000000000000e+00 -3.6999999100521674e+00 +3.8191913306352557e-04 +0.0000000000000000e+00 +9.9999992706888541e-01
-3.8000000000000020e+00 +9.0442547442785202e+00 +0.0000000000000000e+00 -3.7999999025601663e+00 +3.9224141828458442e-04 +0.0000000000000000e+00 +9.9999992307333208e-01
-3.9000000000000021e+00 +9.0442150040220373e+00 +0.0000000000000000e+00 -3.8999998946632819e+00 +4.0256371295713798e-04 +0.0000000000000000e+00 +9.9999991897122531e-01
-4.0000000000000018e+00 +9.0441742315356155e+00 +0.0000000000000000e+00 -3.9999998863508592e+00 +4.1288601706611534e-04 +0.0000000000000000e+00 +9.9999991476256489e-01
-4.1000000000000014e+00 +9.0441324268183116e+00 +0.0000000000000000e+00 -4.0999998776122428e+00 +4.2320833057963106e-04 +0.0000000000000000e+00 +9.9999991044735048e-01
-4.2000000000000011e+00 +9.0440895898691878e+00 +0.0000000000000000e+00 -4.1999998684367776e+00 +4.3353065344769006e-04 +0.0000000000000000e+00 +9.9999990602558186e-01
-4.3000000000000007e+00 +9.0440457206873131e+00 +0.0000000000000000e+00 -4.2999998588138073e+00 +4.4385298560089236e-04 +0.0000000000000000e+00 +9.9999990149725870e-01
-4.4000000000000004e+00 +9.0440008192717620e+00 +0.0000000000000000e+00 -4.3999998487326772e+00 +4.5417532695031558e-04 +0.0000000000000000e+00 +9.9999989686238089e-01
-4.5000000000000000e+00 +9.0439548856216199e+00 +0.0000000000000000e+00 -4.4999998381827320e+00 +4.6449767738751535e-04 +0.0000000000000000e+00 +9.9999989212094809e-01
-4.5999999999999996e+00 +9.0439079197359860e+00 +0.0000000000000000e+00 -4.5999998271533151e+00 +4.7482003678452566e-04 +0.0000000000000000e+00 +9.9999988727296008e-01
-4.6999999999999993e+00 +9.0438599216139703e+00 +0.0000000000000000e+00 -4.6999998156337721e+00 +4.8514240499385934e-04 +0.0000000000000000e+00 +9.9999988231841663e-01
-4.7999999999999989e+00 +9.0438108912546991e+00 +0.0000000000000000e+00 -4.7999998036134466e+00 +4.9546478184850850e-04 +0.0000000000000000e+00 +9.9999987725731754e-01
-4.8999999999999986e+00 +9.0437608286573177e+00 +0.0000000000000000e+00 -4.8999997910816839e+00 +5.0578716716194504e-04 +0.0000000000000000e+00 +9.9999987208966268e-01
-4.9999999999999982e+00 +9.0437097338209913e+00 +0.0000000000000000e+00 -4.9999997780278278e+00 +5.1610956072812122e-04 +0.0000000000000000e+00 +9.9999986681545183e-01
-5.0999999999999979e+00 +9.0436576067449046e+00 +0.0000000000000000e+00 -5.0999997644412227e+00 +5.2643196232147007e-04 +0.0000000000000000e+00 +9.9999986143468500e-01
-5.1999999999999975e+00 +9.0436044474282671e+00 +0.0000000000000000e+00 -5.1999997503112132e+00 +5.3675437169690618e-04 +0.0000000000000000e+00 +9.9999985594736196e-01
-5.2999999999999972e+00 +9.0435502558703149e+00 +0.0000000000000000e+00 -5.2999997356271438e+00 +5.4707678858982600e-04 +0.0000000000000000e+00 +9.9999985035348260e-01
-5.3999999999999968e+00 +9.0434950320703091e+00 +0.0000000000000000e+00 -5.3999997203783581e+00 +5.5739921271610871e-04 +0.0000000000000000e+00 +9.9999984465304692e-01
-5.4999999999999964e+00 +9.0434387760275410e+00 +0.0000000000000000e+00 -5.4999997045542015e+00 +5.6772164377211676e-04 +0.0000000000000000e+00 +9.9999983884605481e-01
-5.5999999999999961e+00 +9.0433814877413337e+00 +0.0000000000000000e+00 -5.5999996881440177e+00 +5.7804408143469666e-04 +0.0000000000000000e+00 +9.9999983293250616e-01
-5.6999999999999957e+00 +9.0433231672110441e+00 +0.0000000000000000e+00 -5.6999996711371512e+00 +5.8836652536117936e-04 +0.0000000000000000e+00 +9.9999982691240108e-01
-5.7999999999999954e+00 +9.0432638144360649e+00 +0.0000000000000000e+00 -5.7999996535229466e+00 +5.9868897518938150e-04 +0.0000000000000000e+00 +9.9999982078573957e-01
-5.8999999999999950e+00 +9.0432034294158221e+00 +0.0000000000000000e+00 -5.8999996352907473e+00 +6.0901143053760569e-04 +0.0000000000000000e+00 +9.9999981455252163e-01
-5.9999999999999947e+00 +9.0431420121497865e+00 +0.0000000000000000e+00 -5.9999996164298990e+00 +6.1933389100464150e-04 +0.0000000000000000e+00 +9.9999980821274737e-01
-6.0999999999999943e+00 +9.0430795626374643e+00 +0.0000000000000000e+00 -6.0999995969297451e+00 +6.2965635617191252e-04 +0.0000000000000000e+00 +9.9999980176641690e-01
-6.1999999999999940e+00 +9.0430160808784077e+00 +0.0000000000000000e+00 -6.1999995767796303e+00 +6.3997882562708604e-04 +0.0000000000000000e+00 +9.9999979521353033e-01
-6.2999999999999936e+00 +9.0429515668722082e+00 +0.0000000000000000e+00 -6.2999995559688990e+00 +6.5030129898768145e-04 +0.0000000000000000e+00 +9.9999978855408789e-01
-6.3999999999999932e+00 +9.0428860206184911e+00 +0.0000000000000000e+00 -6.3999995344868958e+00 +6.6062377590321597e-04 +0.0000000000000000e+00 +9.9999978178808957e-01
-6.4999999999999929e+00 +9.0428194421169188e+00 +0.0000000000000000e+00 -6.4999995123229652e+00 +6.7094625605520358e-04 +0.0000000000000000e+00 +9.9999977491553549e-01
-6.5999999999999925e+00 +9.0427518313671822e+00 +0.0000000000000000e+00 -6.5999994894664509e+00 +6.8126873915715363e-04 +0.0000000000000000e+00 +9.9999976793642564e-01
-6.6999999999999922e+00 +9.0426831883689989e+00 +0.0000000000000000e+00 -6.6999994659066981e+00 +6.9159122495457003e-04 +0.0000000000000000e+00 +9.9999976085076026e-01
-6.7999999999999918e+00 +9.0426135131221095e+00 +0.0000000000000000e+00 -6.7999994416330507e+00 +7.0191371322494978e-04 +0.0000000000000000e+00 +9.9999975365853933e-01
-6.8999999999999915e+00 +9.0425428056262778e+00 +0.0000000000000000e+00 -6.8999994166348539e+00 +7.1223620377778196e-04 +0.0000000000000000e+00 +9.9999974635976296e-01
-6.9999999999999911e+00 +9.0424710658812835e+00 +0.0000000000000000e+00 -6.9999993909014515e+00 +7.2255869645454637e-04 +0.0000000000000000e+00 +9.9999973895443117e-01
-7.0999999999999908e+00 +9.0423982938869205e+00 +0.0000000000000000e+00 -7.0999993644221879e+00 +7.3288119112871204e-04 +0.0000000000000000e+00 +9.9999973144254395e-01
-7.1999999999999904e+00 +9.0423244896429935e+00 +0.0000000000000000e+00 -7.1999993371864077e+00 +7.4320368770573611e-04 +0.0000000000000000e+00 +9.9999972382410129e-01
-7.2999999999999901e+00 +9.0422496531493177e+00 +0.0000000000000000e+00 -7.2999993091834563e+00 +7.5352618612306219e-04 +0.0000000000000000e+00 +9.9999971609910321e-01
-7.3999999999999897e+00 +9.0421737844057084e+00 +0.0000000000000000e+00 -7.3999992804026773e+00 +7.6384868635011901e-04 +0.0000000000000000e+00 +9.9999970826754969e-01
-7.4999999999999893e+00 +9.0420968834119861e+00 +0.0000000000000000e+00 -7.4999992508334143e+00 +7.7417118838831887e-04 +0.0000000000000000e+00 +9.9999970032944074e-01
-7.5999999999999890e+00 +9.0420189501679680e+00 +0.0000000000000000e+00 -7.5999992204650129e+00 +7.8449369227105595e-04 +0.0000000000000000e+00 +9.9999969228477614e-01
-7.6999999999999886e+00 +9.0419399846734674e+00 +0.0000000000000000e+00 -7.6999991892868174e+00 +7.9481619806370482e-04 +0.0000000000000000e+00 +9.9999968413355589e-01
-7.7999999999999883e+00 +9.0418599869282890e+00 +0.0000000000000000e+00 -7.7999991572881724e+00 +8.0513870586361880e-04 +0.0000000000000000e+00 +9.9999967587577976e-01
-7.8999999999999879e+00 +9.0417789569322249e+00 +0.0000000000000000e+00 -7.8999991244584216e+00 +8.1546121580012806e-04 +0.0000000000000000e+00 +9.9999966751144764e-01
-7.9999999999999876e+00 +9.0416968946850531e+00 +0.0000000000000000e+00 -7.9999990907869103e+00 +8.2578372803453800e-04 +0.0000000000000000e+00 +9.9999965904055932e-01
-8.0999999999999872e+00 +9.0416138001865356e+00 +0.0000000000000000e+00 -8.0999990562629822e+00 +8.3610624275821488e-04 +0.0000000000000000e+00 +9.9999965046311456e-01
-8.1999999999999869e+00 +9.0415296734364130e+00 +0.0000000000000000e+00 -8.1999990208759819e+00 +8.4642876017154570e-04 +0.0000000000000000e+00 +9.9999964177911305e-01
-8.2999999999999865e+00 +9.0414445144344064e+00 +0.0000000000000000e+00 -8.2999989846152538e+00 +8.5675128046290019e-04 +0.0000000000000000e+00 +9.9999963298855454e-01
-8.3999999999999861e+00 +9.0413583231802193e+00 +0.0000000000000000e+00 -8.3999989474701415e+00 +8.6707380380671975e-04 +0.0000000000000000e+00 +9.9999962409143894e-01
-8.4999999999999858e+00 +9.0412710996735388e+00 +0.0000000000000000e+00 -8.4999989094299906e+00 +8.7739633036352019e-04 +0.0000000000000000e+00 +9.9999961508776591e-01
-8.5999999999999854e+00 +9.0411828439140347e+00 +0.0000000000000000e+00 -8.5999988704841428e+00 +8.8771886027989345e-04 +0.0000000000000000e+00 +9.9999960597753523e-01
-8.6999999999999851e+00 +9.0410935559013659e+00 +0.0000000000000000e+00 -8.6999988306219453e+00 +8.9804139368851021e-04 +0.0000000000000000e+00 +9.9999959676074657e-01
-8.7999999999999847e+00 +9.0410032356351770e+00 +0.0000000000000000e+00 -8.7999987898327401e+00 +9.0836393070812236e-04 +0.0000000000000000e+00 +9.9999958743739981e-01
-8.8999999999999844e+00 +9.0409118831151005e+00 +0.0000000000000000e+00 -8.8999987481058724e+00 +9.1868647144356533e-04 +0.0000000000000000e+00 +9.9999957800749473e-01
-8.9999999999999840e+00 +9.0408194983407615e+00 +0.0000000000000000e+00 -8.9999987054306860e+00 +9.2900901598576074e-04 +0.0000000000000000e+00 +9.9999956847103122e-01
-9.0999999999999837e+00 +9.0407260813117745e+00 +0.0000000000000000e+00 -9.0999986617965263e+00 +9.3933156441171903e-04 +0.0000000000000000e+00 +9.9999955882800895e-01
-9.1999999999999833e+00 +9.0406316320277469e+00 +0.0000000000000000e+00 -9.1999986171927368e+00 +9.4965411678454208e-04 +0.0000000000000000e+00 +9.9999954907842781e-01
-9.2999999999999829e+00 +9.0405361504882826e+00 +0.0000000000000000e+00 -9.2999985716086613e+00 +9.5997667315342609e-04 +0.0000000000000000e+00 +9.9999953922228757e-01
-9.3999999999999826e+00 +9.0404396366929802e+00 +0.0000000000000000e+00 -9.3999985250336433e+00 +9.7029923355366435e-04 +0.0000000000000000e+00 +9.9999952925958813e-01
-9.4999999999999822e+00 +9.0403420906414365e+00 +0.0000000000000000e+00 -9.4999984774570265e+00 +9.8062179800665044e-04 +0.0000000000000000e+00 +9.9999951919032926e-01
-9.5999999999999819e+00 +9.0402435123332445e+00 +0.0000000000000000e+00 -9.5999984288681564e+00 +9.9094436651988053e-04 +0.0000000000000000e+00 +9.9999950901451096e-01
-9.6999999999999815e+00 +9.0401439017679976e+00 +0.0000000000000000e+00 -9.6999983792563764e+00 +1.0012669390869573e-03 +0.0000000000000000e+00 +9.9999949873213301e-01
-9.7999999999999812e+00 +9.0400432589452926e+00 +0.0000000000000000e+00 -9.7999983286110304e+00 +1.0115895156875927e-03 +0.0000000000000000e+00 +9.9999948834319530e-01
-9.8999999999999808e+00 +9.0399415838647261e+00 +0.0000000000000000e+00 -9.8999982769214636e+00 +1.0219120962876112e-03 +0.0000000000000000e+00 +9.9999947784769772e-01
-9.9999999999999805e+00 +9.0398388765259021e+00 +0.0000000000000000e+00 -9.9999982241770180e+00 +1.0322346808389526e-03 +0.0000000000000000e+00 +9.9999946724564026e-01
-1.0099999999999980e+01 +9.0397351369284280e+00 +0.0000000000000000e+00 -1.0099998170367039e+01 +1.0425572692802914e-03 +0.0000000000000000e+00 +9.9999945653702282e-01
-1.0199999999999980e+01 +9.0396303650719183e+00 +0.0000000000000000e+00 -1.0199998115480870e+01 +1.0528798615438012e-03 +0.0000000000000000e+00 +9.9999944572184529e-01
-1.0299999999999979e+01 +9.0395245609559947e+00 +0.0000000000000000e+00 -1.0299998059507855e+01 +1.0632024575619220e-03 +0.0000000000000000e+00 +9.9999943480010767e-01
-1.0399999999999979e+01 +9.0394177245802840e+00 +0.0000000000000000e+00 -1.0399998002437339e+01 +1.0735250572679765e-03 +0.0000000000000000e+00 +9.9999942377180995e-01
-1.0499999999999979e+01 +9.0393098559444205e+00 +0.0000000000000000e+00 -1.0499997944258665e+01 +1.0838476605961741e-03 +0.0000000000000000e+00 +9.9999941263695202e-01
-1.0599999999999978e+01 +9.0392009550480452e+00 +0.0000000000000000e+00 -1.0599997884961176e+01 +1.0941702674816130e-03 +0.0000000000000000e+00 +9.9999940139553389e-01
-1.0699999999999978e+01 +9.0390910218908065e+00 +0.0000000000000000e+00 -1.0699997824534218e+01 +1.1044928778602837e-03 +0.0000000000000000e+00 +9.9999939004755556e-01
-1.0799999999999978e+01 +9.0389800564723579e+00 +0.0000000000000000e+00 -1.0799997762967134e+01 +1.1148154916690715e-03 +0.0000000000000000e+00 +9.9999937859301691e-01
-1.0899999999999977e+01 +9.0388680587923602e+00 +0.0000000000000000e+00 -1.0899997700249269e+01 +1.1251381088457600e-03 +0.0000000000000000e+00 +9.9999936703191794e-01
-1.0999999999999977e+01 +9.0387550288504794e+00 +0.0000000000000000e+00 -1.0999997636369965e+01 +1.1354607293290340e-03 +0.0000000000000000e+00 +9.9999935536425855e-01
-1.1099999999999977e+01 +9.0386409666463869e+00 +0.0000000000000000e+00 -1.1099997571318568e+01 +1.1457833530584827e-03 +0.0000000000000000e+00 +9.9999934359003873e-01
-1.1199999999999976e+01 +9.0385258721797612e+00 +0.0000000000000000e+00 -1.1199997505084420e+01 +1.1561059799746027e-03 +0.0000000000000000e+00 +9.9999933170925848e-01
-1.1299999999999976e+01 +9.0384097454502879e+00 +0.0000000000000000e+00 -1.1299997437656867e+01 +1.1664286100188021e-03 +0.0000000000000000e+00 +9.9999931972191769e-01
-1.1399999999999975e+01 +9.0382925864576560e+00 +0.0000000000000000e+00 -1.1399997369025252e+01 +1.1767512431334027e-03 +0.0000000000000000e+00 +9.9999930762801637e-01
-1.1499999999999975e+01 +9.0381743952015619e+00 +0.0000000000000000e+00 -1.1499997299178919e+01 +1.1870738792616443e-03 +0.0000000000000000e+00 +9.9999929542755450e-01
-1.1599999999999975e+01 +9.0380551716817052e+00 +0.0000000000000000e+00 -1.1599997228107211e+01 +1.1973965183476873e-03 +0.0000000000000000e+00 +9.9999928312053210e-01
-1.1699999999999974e+01 +9.0379349158977949e+00 +0.0000000000000000e+00 -1.1699997155799473e+01 +1.2077191603366176e-03 +0.0000000000000000e+00 +9.9999927070694905e-01
