# trajectory
# s[mm] rx[mm] ry[mm] rz[mm] px[rad] py[rad] pz[rad]
0.0000000000000000e+00 +9.1449999999999996e+00 +0.0000000000000000e+00 +0.0000000000000000e+00 +0.0000000000000000e+00 +0.0000000000000000e+00 +1.0000000000000000e+00
1.0000000000000001e-01 +9.1449994845828080e+00 +0.0000000000000000e+00 +9.9999999998228978e-02 -1.0308345798144015e-05 +0.0000000000000000e+00 +9.9999999994686906e-01
2.0000000000000001e-01 +9.1449979383304516e+00 +0.0000000000000000e+00 +1.9999999998583173e-01 -2.0616703204134785e-05 +0.0000000000000000e+00 +9.9999999978747578e-01
3.0000000000000004e-01 +9.1449953612417971e+00 +0.0000000000000000e+00 +2.9999999995218207e-01 -3.0925071710059297e-05 +0.0000000000000000e+00 +9.9999999952181995e-01
4.0000000000000002e-01 +9.1449917533157574e+00 +0.0000000000000000e+00 +3.9999999988665369e-01 -4.1233450822121499e-05 +0.0000000000000000e+00 +9.9999999914990123e-01
5.0000000000000000e-01 +9.1449871145512951e+00 +0.0000000000000000e+00 +4.9999999977862025e-01 -5.1541840060637406e-05 +0.0000000000000000e+00 +9.9999999867171929e-01
5.9999999999999998e-01 +9.1449814449474225e+00 +0.0000000000000000e+00 +5.9999999961745543e-01 -6.1850238961844926e-05 +0.0000000000000000e+00 +9.9999999808727391e-01
6.9999999999999996e-01 +9.1449747445031946e+00 +0.0000000000000000e+00 +6.9999999939253288e-01 -7.2158647097861090e-05 +0.0000000000000000e+00 +9.9999999739656475e-01
7.9999999999999993e-01 +9.1449670132177072e+00 +0.0000000000000000e+00 +7.9999999909322628e-01 -8.2467064096641116e-05 +0.0000000000000000e+00 +9.9999999659959160e-01
8.9999999999999991e-01 +9.1449582510900900e+00 +0.0000000000000000e+00 +8.9999999870890912e-01 -9.2775489643792395e-05 +0.0000000000000000e+00 +9.9999999569635423e-01
9.9999999999999989e-01 +9.1449484581195026e+00 +0.0000000000000000e+00 +9.9999999822895502e-01 -1.0308392348257488e-04 +0.0000000000000000e+00 +9.9999999468685230e-01
1.0999999999999999e+00 +9.1449376343051245e+00 +0.0000000000000000e+00 +1.0999999976427375e+00 -1.1339236541390278e-04 +0.0000000000000000e+00 +9.9999999357108571e-01
1.2000000000000000e+00 +9.1449257796461545e+00 +0.0000000000000000e+00 +1.1999999969396300e+00 -1.2370081529634736e-04 +0.0000000000000000e+00 +9.9999999234905412e-01
1.3000000000000000e+00 +9.1449128941418021e+00 +0.0000000000000000e+00 +1.2999999961090061e+00 -1.3400927304614097e-04 +0.0000000000000000e+00 +9.9999999102075732e-01
1.4000000000000001e+00 +9.1448989777912839e+00 +0.0000000000000000e+00 +1.3999999951402393e+00 -1.4431773863718221e-04 +0.0000000000000000e+00 +9.9999998958619507e-01
1.5000000000000002e+00 +9.1448840305938131e+00 +0.0000000000000000e+00 +1.4999999940227029e+00 -1.5462621210104242e-04 +0.0000000000000000e+00 +9.9999998804536716e-01
1.6000000000000003e+00 +9.1448680525485990e+00 +0.0000000000000000e+00 +1.5999999927457704e+00 -1.6493469352697312e-04 +0.0000000000000000e+00 +9.9999998639827326e-01
1.7000000000000004e+00 +9.1448510436548371e+00 +0.0000000000000000e+00 +1.6999999912988153e+00 -1.7524318306191486e-04 +0.0000000000000000e+00 +9.9999998464491324e-01
1.8000000000000005e+00 +9.1448330039117085e+00 +0.0000000000000000e+00 +1.7999999896712109e+00 -1.8555168091050715e-04 +0.0000000000000000e+00 +9.9999998278528668e-01
1.9000000000000006e+00 +9.1448139333183693e+00 +0.0000000000000000e+00 +1.8999999878523304e+00 -1.9586018733509957e-04 +0.0000000000000000e+00 +9.9999998081939334e-01
2.0000000000000004e+00 +9.1447938318739457e+00 +0.0000000000000000e+00 +1.9999999858315471e+00 -2.0616870265576412e-04 +0.0000000000000000e+00 +9.9999997874723279e-01
2.1000000000000005e+00 +9.1447726995775298e+00 +0.0000000000000000e+00 +2.0999999835982344e+00 -2.1647722725030871e-04 +0.0000000000000000e+00 +9.9999997656880479e-01
2.2000000000000006e+00 +9.1447505364281731e+00 +0.0000000000000000e+00 +2.1999999811417656e+00 -2.2678576155429187e-04 +0.0000000000000000e+00 +9.9999997428410892e-01
2.3000000000000007e+00 +9.1447273424248792e+00 +0.0000000000000000e+00 +2.2999999784515137e+00 -2.3709430606103866e-04 +0.0000000000000000e+00 +9.9999997189314471e-01
2.4000000000000008e+00 +9.1447031175666016e+00 +0.0000000000000000e+00 +2.3999999755168520e+00 -2.4740286132165763e-04 +0.0000000000000000e+00 +9.9999996939591174e-01
2.5000000000000009e+00 +9.1446778618522355e+00 +0.0000000000000000e+00 +2.4999999723271538e+00 -2.5771142794505920e-04 +0.0000000000000000e+00 +9.9999996679240954e-01
2.6000000000000010e+00 +9.1446515752806121e+00 +0.0000000000000000e+00 +2.5999999688717916e+00 -2.6802000659271124e-04 +0.0000000000000000e+00 +9.9999996408263758e-01
2.7000000000000011e+00 +9.1446242578504950e+00 +0.0000000000000000e+00 +2.6999999651401390e+00 -2.7832859792075538e-04 +0.0000000000000000e+00 +9.9999996126659518e-01
2.8000000000000012e+00 +9.1445959095605858e+00 +0.0000000000000000e+00 +2.7999999611215682e+00 -2.8863720252211031e-04 +0.0000000000000000e+00 +9.9999995834428190e-01
2.9000000000000012e+00 +9.1445665304095307e+00 +0.0000000000000000e+00 +2.8999999568054529e+00 -2.9894582092120483e-04 +0.0000000000000000e+00 +9.9999995531569719e-01
3.0000000000000013e+00 +9.1445361203959266e+00 +0.0000000000000000e+00 +2.9999999521811653e+00 -3.0925445357397283e-04 +0.0000000000000000e+00 +9.9999995218084048e-01
3.1000000000000014e+00 +9.1445046795183274e+00 +0.0000000000000000e+00 +3.0999999472380786e+00 -3.1956310086784769e-04 +0.0000000000000000e+00 +9.9999994893971111e-01
3.2000000000000015e+00 +9.1444722077752534e+00 +0.0000000000000000e+00 +3.1999999419655651e+00 -3.2987176312175494e-04 +0.0000000000000000e+00 +9.9999994559230865e-01
3.3000000000000016e+00 +9.1444387051651947e+00 +0.0000000000000000e+00 +3.2999999363529979e+00 -3.4018044058610415e-04 +0.0000000000000000e+00 +9.9999994213863241e-01
3.4000000000000017e+00 +9.1444041716866220e+00 +0.0000000000000000e+00 +3.3999999303897495e+00 -3.5048913344277956e-04 +0.0000000000000000e+00 +9.9999993857868197e-01
3.5000000000000018e+00 +9.1443686073379897e+00 +0.0000000000000000e+00 +3.4999999240651922e+00 -3.6079784180512972e-04 +0.0000000000000000e+00 +9.9999993491245676e-01
3.6000000000000019e+00 +9.1443320121177436e+00 +0.0000000000000000e+00 +3.5999999173686983e+00 -3.7110656571795572e-04 +0.0000000000000000e+00 +9.9999993113995622e-01
3.7000000000000020e+00 +9.1442943860243293e+00 +0.0000000000000000e+00 +3.6999999102896406e+00 -3.8141530515749863e-04 +0.0000000000000000e+00 +9.9999992726118003e-01
3.8000000000000020e+00 +9.1442557290561979e+00 +0.0000000000000000e+00 +3.7999999028173916e+00 -3.9172406003142550e-04 +0.0000000000000000e+00 +9.9999992327612763e-01
3.9000000000000021e+00 +9.1442160412118145e+00 +0.0000000000000000e+00 +3.8999998949413235e+00 -4.0203283017881439e-04 +0.0000000000000000e+00 +9.9999991918479869e-01
4.0000000000000018e+00 +9.1441753224896605e+00 +0.0000000000000000e+00 +3.9999998866508086e+00 -4.1234161537013835e-04 +0.0000000000000000e+00 +9.9999991498719276e-01
4.1000000000000014e+00 +9.1441335728882489e+00 +0.0000000000000000e+00 +4.0999998779352191e+00 -4.2265041530724801e-04 +0.0000000000000000e+00 +9.9999991068330951e-01
4.2000000000000011e+00 +9.1440907924061197e+00 +0.0000000000000000e+00 +4.1999998687839275e+00 -4.3295922962335322e-04 +0.0000000000000000e+00 +9.9999990627314861e-01
4.3000000000000007e+00 +9.1440469810418588e+00 +0.0000000000000000e+00 +4.2999998591863058e+00 -4.4326805788300365e-04 +0.0000000000000000e+00 +9.9999990175670983e-01
4.4000000000000004e+00 +9.1440021387940948e+00 +0.0000000000000000e+00 +4.3999998491317269e+00 -4.5357689958206798e-04 +0.0000000000000000e+00 +9.9999989713399307e-01
4.5000000000000000e+00 +9.1439562656615134e+00 +0.0000000000000000e+00 +4.4999998386095621e+00 -4.6388575414771225e-04 +0.0000000000000000e+00 +9.9999989240499798e-01
4.5999999999999996e+00 +9.1439093616428586e+00 +0.0000000000000000e+00 +4.5999998276091842e+00 -4.7419462094356837e-04 +0.0000000000000000e+00 +9.9999988756972469e-01
4.6999999999999993e+00 +9.1438614267369385e+00 +0.0000000000000000e+00 +4.6999998161199645e+00 -4.8450349932682295e-04 +0.0000000000000000e+00 +9.9999988262817296e-01
4.7999999999999989e+00 +9.1438124609426268e+00 +0.0000000000000000e+00 +4.7999998041312759e+00 -4.9481238870532592e-04 +0.0000000000000000e+00 +9.9999987758034281e-01
4.8999999999999986e+00 +9.1437624642588489e+00 +0.0000000000000000e+00 +4.8999997916324904e+00 -5.0512128854279445e-04 +0.0000000000000000e+00 +9.9999987242623412e-01
4.9999999999999982e+00 +9.1437114366845851e+00 +0.0000000000000000e+00 +4.9999997786129802e+00 -5.1543019835882642e-04 +0.0000000000000000e+00 +9.9999986716584677e-01
5.0999999999999979e+00 +9.1436593782188584e+00 +0.0000000000000000e+00 +5.0999997650621172e+00 -5.2573911772891538e-04 +0.0000000000000000e+00 +9.9999986179918077e-01
5.1999999999999975e+00 +9.1436062888607328e+00 +0.0000000000000000e+00 +5.1999997509692735e+00 -5.3604804628446553e-04 +0.0000000000000000e+00 +9.9999985632623600e-01
5.2999999999999972e+00 +9.1435521686093058e+00 +0.0000000000000000e+00 +5.2999997363238212e+00 -5.4635698371280838e-04 +0.0000000000000000e+00 +9.9999985074701236e-01
5.3999999999999968e+00 +9.1434970174637034e+00 +0.0000000000000000e+00 +5.3999997211151332e+00 -5.5666592975721981e-04 +0.0000000000000000e+00 +9.9999984506150963e-01
5.4999999999999964e+00 +9.1434408354230747e+00 +0.0000000000000000e+00 +5.4999997053325806e+00 -5.6697488421693799e-04 +0.0000000000000000e+00 +9.9999983926972769e-01
5.5999999999999961e+00 +9.1433836224865850e+00 +0.0000000000000000e+00 +5.5999996889655357e+00 -5.7728384694718247e-04 +0.0000000000000000e+00 +9.9999983337166642e-01
5.6999999999999957e+00 +9.1433253786534134e+00 +0.0000000000000000e+00 +5.6999996720033712e+00 -5.8759281785917400e-04 +0.0000000000000000e+00 +9.9999982736732562e-01
5.7999999999999954e+00 +9.1432661039227430e+00 +0.0000000000000000e+00 +5.7999996544354584e+00 -5.9790179692015516e-04 +0.0000000000000000e+00 +9.9999982125670495e-01
5.8999999999999950e+00 +9.1432057982937582e+00 +0.0000000000000000e+00 +5.8999996362511693e+00 -6.0821078415341178e-04 +0.0000000000000000e+00 +9.9999981503980417e-01
5.9999999999999947e+00 +9.1431444617656386e+00 +0.0000000000000000e+00 +5.9999996174398760e+00 -6.1851977963829543e-04 +0.0000000000000000e+00 +9.9999980871662308e-01
6.0999999999999943e+00 +9.1430820943375526e+00 +0.0000000000000000e+00 +6.0999995979909505e+00 -6.2882878351024681e-04 +0.0000000000000000e+00 +9.9999980228716123e-01
6.1999999999999940e+00 +9.1430186960086512e+00 +0.0000000000000000e+00 +6.1999995778937649e+00 -6.3913779596081984e-04 +0.0000000000000000e+00 +9.9999979575141829e-01
6.2999999999999936e+00 +9.1429542667780659e+00 +0.0000000000000000e+00 +6.2999995571376912e+00 -6.4944681723770657e-04 +0.0000000000000000e+00 +9.9999978910939380e-01
6.3999999999999932e+00 +9.1428888066448994e+00 +0.0000000000000000e+00 +6.3999995357121007e+00 -6.5975584764476334e-04 +0.0000000000000000e+00 +9.9999978236108733e-01
6.4999999999999929e+00 +9.1428223156082211e+00 +0.0000000000000000e+00 +6.4999995136063653e+00 -6.7006488754203721e-04 +0.0000000000000000e+00 +9.9999977550649832e-01
6.5999999999999925e+00 +9.1427547936670610e+00 +0.0000000000000000e+00 +6.5999994908098571e+00 -6.8037393734212716e-04 +0.0000000000000000e+00 +9.9999976854562622e-01
6.6999999999999922e+00 +9.1426862408204084e+00 +0.0000000000000000e+00 +6.6999994673119474e+00 -6.9068299746987392e-04 +0.0000000000000000e+00 +9.9999976147847036e-01
6.7999999999999918e+00 +9.1426166570672098e+00 +0.0000000000000000e+00 +6.7999994431020081e+00 -7.0099206832202696e-04 +0.0000000000000000e+00 +9.9999975430503019e-01
6.8999999999999915e+00 +9.1425460424063747e+00 +0.0000000000000000e+00 +6.8999994181694104e+00 -7.1130115026356636e-04 +0.0000000000000000e+00 +9.9999974702530514e-01
6.9999999999999911e+00 +9.1424743968367768e+00 +0.0000000000000000e+00 +6.9999993925035264e+00 -7.2161024362769010e-04 +0.0000000000000000e+00 +9.9999973963929456e-01
7.0999999999999908e+00 +9.1424017203572578e+00 +0.0000000000000000e+00 +7.0999993660937264e+00 -7.3191934871580063e-04 +0.0000000000000000e+00 +9.9999973214699789e-01
7.1999999999999904e+00 +9.1423280129666331e+00 +0.0000000000000000e+00 +7.1999993389293824e+00 -7.4222846579749047e-04 +0.0000000000000000e+00 +9.9999972454841457e-01
7.2999999999999901e+00 +9.1422532746636911e+00 +0.0000000000000000e+00 +7.2999993109998664e+00 -7.5253759511052765e-04 +0.0000000000000000e+00 +9.9999971684354416e-01
7.3999999999999897e+00 +9.1421775054471972e+00 +0.0000000000000000e+00 +7.3999992822945488e+00 -7.6284673686084022e-04 +0.0000000000000000e+00 +9.9999970903238600e-01
7.4999999999999893e+00 +9.1421007053158991e+00 +0.0000000000000000e+00 +7.4999992528028008e+00 -7.7315589122250008e-04 +0.0000000000000000e+00 +9.9999970111493952e-01
7.5999999999999890e+00 +9.1420228742685286e+00 +0.0000000000000000e+00 +7.5999992225139934e+00 -7.8346505833770620e-04 +0.0000000000000000e+00 +9.9999969309120429e-01
7.6999999999999886e+00 +9.1419440123038029e+00 +0.0000000000000000e+00 +7.6999991914174988e+00 -7.9377423831676695e-04 +0.0000000000000000e+00 +9.9999968496117986e-01
7.7999999999999883e+00 +9.1418641194204326e+00 +0.0000000000000000e+00 +7.7999991595026872e+00 -8.0408343123808239e-04 +0.0000000000000000e+00 +9.9999967672486578e-01
7.8999999999999879e+00 +9.1417831956171209e+00 +0.0000000000000000e+00 +7.8999991267589289e+00 -8.1439263714812500e-04 +0.0000000000000000e+00 +9.9999966838226151e-01
7.9999999999999876e+00 +9.1417012408925693e+00 +0.0000000000000000e+00 +7.9999990931755960e+00 -8.2470185606142038e-04 +0.0000000000000000e+00 +9.9999965993336670e-01
8.0999999999999872e+00 +9.1416182552454757e+00 +0.0000000000000000e+00 +8.0999990587420587e+00 -8.3501108796052729e-04 +0.0000000000000000e+00 +9.9999965137818092e-01
8.1999999999999869e+00 +9.1415342386745451e+00 +0.0000000000000000e+00 +8.1999990234476883e+00 -8.4532033279601654e-04 +0.0000000000000000e+00 +9.9999964271670383e-01
8.2999999999999865e+00 +9.1414491911784879e+00 +0.0000000000000000e+00 +8.2999989872818567e+00 -8.5562959048644967e-04 +0.0000000000000000e+00 +9.9999963394893510e-01
8.3999999999999861e+00 +9.1413631127560233e+00 +0.0000000000000000e+00 +8.3999989502339325e+00 -8.6593886091835680e-04 +0.0000000000000000e+00 +9.9999962507487439e-01
8.4999999999999858e+00 +9.1412760034058849e+00 +0.0000000000000000e+00 +8.4999989122932877e+00 -8.7624814394621383e-04 +0.0000000000000000e+00 +9.9999961609452148e-01
8.5999999999999854e+00 +9.1411878631268202e+00 +0.0000000000000000e+00 +8.5999988734492927e+00 -8.8655743939456202e-04 +0.0000000000000000e+00 +9.9999960700787616e-01
8.6999999999999851e+00 +9.1410986919175983e+00 +0.0000000000000000e+00 +8.6999988336913194e+00 -8.9686674708156053e-04 +0.0000000000000000e+00 +9.9999959781493819e-01
8.7999999999999847e+00 +9.1410084897770023e+00 +0.0000000000000000e+00 +8.7999987930087382e+00 -9.0717606684254798e-04 +0.0000000000000000e+00 +9.9999958851570725e-01
8.8999999999999844e+00 +9.1409172567038333e+00 +0.0000000000000000e+00 +8.8999987513909193e+00 -9.1748539853217569e-04 +0.0000000000000000e+00 +9.9999957911018322e-01
8.9999999999999840e+00 +9.1408249926969027e+00 +0.0000000000000000e+00 +8.9999987088272331e+00 -9.2779474202439832e-04 +0.0000000000000000e+00 +9.9999956959836578e-01
9.0999999999999837e+00 +9.1407316977550384e+00 +0.0000000000000000e+00 +9.0999986653070497e+00 -9.3810409721246360e-04 +0.0000000000000000e+00 +9.9999955998025469e-01
9.1999999999999833e+00 +9.1406373718770730e+00 +0.0000000000000000e+00 +9.1999986208197413e+00 -9.4841346400890254e-04 +0.0000000000000000e+00 +9.9999955025584963e-01
9.2999999999999829e+00 +9.1405420150618504e+00 +0.0000000000000000e+00 +9.2999985753546763e+00 -9.5872284234551882e-04 +0.0000000000000000e+00 +9.9999954042515027e-01
9.3999999999999826e+00 +9.1404456273082193e+00 +0.0000000000000000e+00 +9.3999985289012269e+00 -9.6903223217337838e-04 +0.0000000000000000e+00 +9.9999953048815637e-01
9.4999999999999822e+00 +9.1403482086150323e+00 +0.0000000000000000e+00 +9.4999984814487632e+00 -9.7934163346279860e-04 +0.0000000000000000e+00 +9.9999952044486762e-01
9.5999999999999819e+00 +9.1402497589811436e+00 +0.0000000000000000e+00 +9.5999984329866574e+00 -9.8965104620333741e-04 +0.0000000000000000e+00 +9.9999951029528356e-01
9.6999999999999815e+00 +9.1401502784054092e+00 +0.0000000000000000e+00 +9.6999983835042780e+00 -9.9996047040378194e-04 +0.0000000000000000e+00 +9.9999950003940397e-01
9.7999999999999812e+00 +9.1400497668866798e+00 +0.0000000000000000e+00 +9.7999983329909952e+00 -1.0102699060921371e-03 +0.0000000000000000e+00 +9.9999948967722829e-01
9.8999999999999808e+00 +9.1399482244238062e+00 +0.0000000000000000e+00 +9.8999982814361811e+00 -1.0205793533156142e-03 +0.0000000000000000e+00 +9.9999947920875631e-01
9.9999999999999805e+00 +9.1398456510156301e+00 +0.0000000000000000e+00 +9.9999982288292042e+00 -1.0308888121406184e-03 +0.0000000000000000e+00 +9.9999946863398748e-01
1.0099999999999980e+01 +9.1397420466609880e+00 +0.0000000000000000e+00 +1.0099998175159435e+01 -1.0411982826527377e-03 +0.0000000000000000e+00 +9.9999945795292133e-01
1.0199999999999980e+01 +9.1396374113587058e+00 +0.0000000000000000e+00 +1.0199998120416245e+01 -1.0515077649567296e-03 +0.0000000000000000e+00 +9.9999944716555744e-01
1.0299999999999979e+01 +9.1395317451075986e+00 +0.0000000000000000e+00 +1.0299998064589003e+01 -1.0618172591765095e-03 +0.0000000000000000e+00 +9.9999943627189525e-01
1.0399999999999979e+01 +9.1394250479064674e+00 +0.0000000000000000e+00 +1.0399998007667079e+01 -1.0721267654551371e-03 +0.0000000000000000e+00 +9.9999942527193431e-01
1.0499999999999979e+01 +9.1393173197540989e+00 +0.0000000000000000e+00 +1.0499997949639846e+01 -1.0824362839548043e-03 +0.0000000000000000e+00 +9.9999941416567406e-01
1.0599999999999978e+01 +9.1392085606492621e+00 +0.0000000000000000e+00 +1.0599997890496672e+01 -1.0927458148552436e-03 +0.0000000000000000e+00 +9.9999940295311385e-01
1.0699999999999978e+01 +9.1390987705907083e+00 +0.0000000000000000e+00 +1.0699997830226927e+01 -1.1030553583363622e-03 +0.0000000000000000e+00 +9.9999939163425322e-01
1.0799999999999978e+01 +9.1389879495771709e+00 +0.0000000000000000e+00 +1.0799997768819980e+01 -1.1133649145608916e-03 +0.0000000000000000e+00 +9.9999938020909152e-01
1.0899999999999977e+01 +9.1388760976073673e+00 +0.0000000000000000e+00 +1.0899997706265202e+01 -1.1236744836728260e-03 +0.0000000000000000e+00 +9.9999936867762818e-01
1.0999999999999977e+01 +9.1387632146800026e+00 +0.0000000000000000e+00 +1.0999997642551962e+01 -1.1339840657974406e-03 +0.0000000000000000e+00 +9.9999935703986265e-01
1.1099999999999977e+01 +9.1386493007937712e+00 +0.0000000000000000e+00 +1.1099997577669631e+01 -1.1442936610413094e-03 +0.0000000000000000e+00 +9.9999934529579437e-01
1.1199999999999976e+01 +9.1385343559473551e+00 +0.0000000000000000e+00 +1.1199997511607577e+01 -1.1546032694923242e-03 +0.0000000000000000e+00 +9.9999933344542291e-01
1.1299999999999976e+01 +9.1384183801394308e+00 +0.0000000000000000e+00 +1.1299997444355173e+01 -1.1649128912197141e-03 +0.0000000000000000e+00 +9.9999932148874782e-01
1.1399999999999975e+01 +9.1383013733686678e+00 +0.0000000000000000e+00 +1.1399997375901783e+01 -1.1752225262740648e-03 +0.0000000000000000e+00 +9.9999930942576853e-01
1.1499999999999975e+01 +9.1381833356337303e+00 +0.0000000000000000e+00 +1.1499997306236782e+01 -1.1855321746873388e-03 +0.0000000000000000e+00 +9.9999929725648462e-01
1.1599999999999975e+01 +9.1380642669332843e+00 +0.0000000000000000e+00 +1.1599997235349537e+01 -1.1958418364728970e-03 +0.0000000000000000e+00 +9.9999928498089563e-01
1.1699999999999974e+01 +9.1379441672659905e+00 +0.0000000000000000e+00 +1.1699997163229417e+01 -1.2061515116255192e-03 +0.0000000000000000e+00 +9.9999927259900112e-01
1.1799999999999974e+01 +9.1378230366305147e+00 +0.0000000000000000e+00 +1.1799997089865792e+01 -1.2164612001214258e-03 +0.0000000000000000e+00 +9.9999926011080076e-01
