# field on trajectory
# s[mm] rx[mm] ry[mm] rz[mm] bx[T] by[T] bz[T]
-0.0000000000000000e+00 +9.1476323485342608e+00 +0.0000000000000000e+00 -0.0000000000000000e+00 +2.9568800789611937e-04 -5.2564521302245715e-01 -2.0605669235941610e-03
-1.0000000000000001e-01 +9.1476318316365202e+00 +0.0000000000000000e+00 -9.9999999998218805e-02 +2.9570009975291077e-04 -5.2564535280851565e-01 -2.0604188822592614e-03
-2.0000000000000001e-01 +9.1476302809427192e+00 +0.0000000000000000e+00 -1.9999999998574999e-01 +2.9571437050248382e-04 -5.2564546026200043e-01 -2.0602626296470209e-03
-2.9999999999999999e-01 +9.1476276964536503e+00 +0.0000000000000000e+00 -2.9999999995190701e-01 +2.9572853603472993e-04 -5.2564554276979258e-01 -2.0600975455120109e-03
-4.0000000000000002e-01 +9.1476240781675404e+00 +0.0000000000000000e+00 -3.9999999988600199e-01 +2.9574031228733283e-04 -5.2564560771906932e-01 -2.0599230096143483e-03
-5.0000000000000000e-01 +9.1476194260861501e+00 +0.0000000000000000e+00 -4.9999999977734699e-01 +2.9574741522892493e-04 -5.2564566249737354e-01 -2.0597384017319509e-03
-5.9999999999999998e-01 +9.1476137402094899e+00 +0.0000000000000000e+00 -5.9999999961525596e-01 +2.9574756084220109e-04 -5.2564571449269859e-01 -2.0595431016727957e-03
-6.9999999999999996e-01 +9.1476070205357907e+00 +0.0000000000000000e+00 -6.9999999938904001e-01 +2.9573846510705186e-04 -5.2564577109356514e-01 -2.0593364892871843e-03
-8.0000000000000004e-01 +9.1475992670650292e+00 +0.0000000000000000e+00 -7.9999999908801400e-01 +2.9571784398371026e-04 -5.2564583968909617e-01 -2.0591179444799943e-03
-9.0000000000000002e-01 +9.1475904798007797e+00 +0.0000000000000000e+00 -8.9999999870148795e-01 +2.9568341339589302e-04 -5.2564592766909191e-01 -2.0588868472229400e-03
-1.0000000000000000e+00 +9.1475806587394892e+00 +0.0000000000000000e+00 -9.9999999821877705e-01 +2.9563288921389565e-04 -5.2564604242411983e-01 -2.0586425775668341e-03
-1.1000000000000001e+00 +9.1475698038829201e+00 +0.0000000000000000e+00 -1.0999999976291901e+00 +2.9556498429209922e-04 -5.2564618878826619e-01 -2.0583846412189611e-03
-1.2000000000000000e+00 +9.1475579152292994e+00 +0.0000000000000000e+00 -1.1999999969220501e+00 +2.9548239963696758e-04 -5.2564636136696041e-01 -2.0581130462137163e-03
-1.3000000000000000e+00 +9.1475449927804107e+00 +0.0000000000000000e+00 -1.2999999960866500e+00 +2.9538883327147959e-04 -5.2564655220832368e-01 -2.0578279261539295e-03
-1.3999999999999999e+00 +9.1475310365362503e+00 +0.0000000000000000e+00 -1.3999999951123201e+00 +2.9528798318268753e-04 -5.2564675336028410e-01 -2.0575294146258265e-03
-1.5000000000000000e+00 +9.1475160464950402e+00 +0.0000000000000000e+00 -1.4999999939883699e+00 +2.9518354731900655e-04 -5.2564695687044305e-01 -2.0572176451871737e-03
-1.6000000000000001e+00 +9.1475000226585603e+00 +0.0000000000000000e+00 -1.5999999927041100e+00 +2.9507922358752204e-04 -5.2564715478593727e-01 -2.0568927513554091e-03
-1.7000000000000000e+00 +9.1474829650268106e+00 +0.0000000000000000e+00 -1.6999999912488499e+00 +2.9497870985125795e-04 -5.2564733915331041e-01 -2.0565548665957829e-03
-1.8000000000000000e+00 +9.1474648735980093e+00 +0.0000000000000000e+00 -1.7999999896119101e+00 +2.9488570392646220e-04 -5.2564750201838084e-01 -2.0562041243094918e-03
-1.8999999999999999e+00 +9.1474457483739400e+00 +0.0000000000000000e+00 -1.8999999877825899e+00 +2.9480390357990871e-04 -5.2564763542610204e-01 -2.0558406578218202e-03
-2.0000000000000000e+00 +9.1474255893528191e+00 +0.0000000000000000e+00 -1.9999999857502100e+00 +2.9473700652615418e-04 -5.2564773142043741e-01 -2.0554646003702734e-03
-2.1000000000000001e+00 +9.1474043965364302e+00 +0.0000000000000000e+00 -2.0999999835040901e+00 +2.9468761940564404e-04 -5.2564778493809172e-01 -2.0550762354307104e-03
-2.2000000000000002e+00 +9.1473821699247697e+00 +0.0000000000000000e+00 -2.1999999810335300e+00 +2.9465398476007234e-04 -5.2564780249040355e-01 -2.0546764477560506e-03
-2.2999999999999998e+00 +9.1473589095160595e+00 +0.0000000000000000e+00 -2.2999999783278602e+00 +2.9463325415981633e-04 -5.2564779348235380e-01 -2.0542662724195278e-03
-2.3999999999999999e+00 +9.1473346153120794e+00 +0.0000000000000000e+00 -2.3999999753763701e+00 +2.9462257924320947e-04 -5.2564776731877993e-01 -2.0538467444858139e-03
-2.5000000000000000e+00 +9.1473092873128206e+00 +0.0000000000000000e+00 -2.4999999721683901e+00 +2.9461911172691681e-04 -5.2564773340438964e-01 -2.0534188990118177e-03
-2.6000000000000001e+00 +9.1472829255165191e+00 +0.0000000000000000e+00 -2.5999999686932198e+00 +2.9462000341632977e-04 -5.2564770114376613e-01 -2.0529837710474841e-03
-2.7000000000000002e+00 +9.1472555299249496e+00 +0.0000000000000000e+00 -2.6999999649401798e+00 +2.9462240621598199e-04 -5.2564767994136818e-01 -2.0525423956365930e-03
-2.7999999999999998e+00 +9.1472271005398795e+00 +0.0000000000000000e+00 -2.7999999608985902e+00 +2.9462347213993797e-04 -5.2564767920153843e-01 -2.0520958078175532e-03
-2.8999999999999999e+00 +9.1471976373559905e+00 +0.0000000000000000e+00 -2.8999999565577501e+00 +2.9462035332217007e-04 -5.2564770832851904e-01 -2.0516450426242088e-03
-3.0000000000000000e+00 +9.1471671403768209e+00 +0.0000000000000000e+00 -2.9999999519069700e+00 +2.9461020202702174e-04 -5.2564777672643814e-01 -2.0511911350866189e-03
-3.1000000000000001e+00 +9.1471356096023904e+00 +0.0000000000000000e+00 -3.0999999469355801e+00 +2.9459076333363546e-04 -5.2564789152168667e-01 -2.0507349025599931e-03
-3.2000000000000002e+00 +9.1471030450308994e+00 +0.0000000000000000e+00 -3.1999999416328699e+00 +2.9456215310920078e-04 -5.2564805073016030e-01 -2.0502762917218574e-03
-3.2999999999999998e+00 +9.1470694466641493e+00 +0.0000000000000000e+00 -3.2999999359881800e+00 +2.9452507987889827e-04 -5.2564825009052507e-01 -2.0498150316136804e-03
-3.3999999999999999e+00 +9.1470348145021205e+00 +0.0000000000000000e+00 -3.3999999299908001e+00 +2.9448025213060737e-04 -5.2564848534196507e-01 -2.0493508513204808e-03
-3.5000000000000000e+00 +9.1469991485430509e+00 +0.0000000000000000e+00 -3.4999999236300501e+00 +2.9442837831035061e-04 -5.2564875222422902e-01 -2.0488834799747826e-03
-3.6000000000000001e+00 +9.1469624487887007e+00 +0.0000000000000000e+00 -3.5999999168952499e+00 +2.9437016681775694e-04 -5.2564904647767441e-01 -2.0484126467605716e-03
-3.7000000000000002e+00 +9.1469247152390807e+00 +0.0000000000000000e+00 -3.6999999097757001e+00 +2.9430632600148436e-04 -5.2564936384332039e-01 -2.0479380809172595e-03
-3.7999999999999998e+00 +9.1468859478924092e+00 +0.0000000000000000e+00 -3.7999999022607200e+00 +2.9423756415466031e-04 -5.2564970006289746e-01 -2.0474595117436407e-03
-3.8999999999999999e+00 +9.1468461467522495e+00 +0.0000000000000000e+00 -3.8999998943396199e+00 +2.9416458951034670e-04 -5.2565005087888617e-01 -2.0469766686018491e-03
-4.0000000000000000e+00 +9.1468053118132708e+00 +0.0000000000000000e+00 -3.9999998860017101e+00 +2.9408811023692627e-04 -5.2565041203458407e-01 -2.0464892809213329e-03
-4.0999999999999996e+00 +9.1467634430807898e+00 +0.0000000000000000e+00 -4.0999998772363098e+00 +2.9400874233649653e-04 -5.2565077906999269e-01 -2.0459971307289662e-03
-4.2000000000000002e+00 +9.1467205405512608e+00 +0.0000000000000000e+00 -4.1999998680327302e+00 +2.9392673339851766e-04 -5.2565114670887703e-01 -2.0455002101832354e-03
-4.2999999999999998e+00 +9.1466766042264602e+00 +0.0000000000000000e+00 -4.2999998583802803e+00 +2.9384223898044800e-04 -5.2565150947009964e-01 -2.0449985639096396e-03
-4.4000000000000004e+00 +9.1466316341046099e+00 +0.0000000000000000e+00 -4.3999998482682798e+00 +2.9375541472235610e-04 -5.2565186187156154e-01 -2.0444922364574853e-03
-4.5000000000000000e+00 +9.1465856301892607e+00 +0.0000000000000000e+00 -4.4999998376860297e+00 +2.9366641635159658e-04 -5.2565219843013200e-01 -2.0439812722949885e-03
-4.5999999999999996e+00 +9.1465385924768707e+00 +0.0000000000000000e+00 -4.5999998266228497e+00 +2.9357539968740922e-04 -5.2565251366160104e-01 -2.0434657158043927e-03
-4.7000000000000002e+00 +9.1464905209674292e+00 +0.0000000000000000e+00 -4.6999998150680504e+00 +2.9348252064560239e-04 -5.2565280208060783e-01 -2.0429456112770858e-03
-4.7999999999999998e+00 +9.1464414156644995e+00 +0.0000000000000000e+00 -4.7999998030109499e+00 +2.9338793524319798e-04 -5.2565305820057862e-01 -2.0424210029087019e-03
-4.9000000000000004e+00 +9.1463912765645095e+00 +0.0000000000000000e+00 -4.8999997904408596e+00 +2.9329179960303802e-04 -5.2565327653368032e-01 -2.0418919347942547e-03
-5.0000000000000000e+00 +9.1463401036692602e+00 +0.0000000000000000e+00 -4.9999997773470897e+00 +2.9319426995847657e-04 -5.2565345159074306e-01 -2.0413584509232415e-03
-5.0999999999999996e+00 +9.1462878969787305e+00 +0.0000000000000000e+00 -5.0999997637189498e+00 +2.9309567143066410e-04 -5.2565358098432247e-01 -2.0408206452694603e-03
-5.2000000000000002e+00 +9.1462346564911599e+00 +0.0000000000000000e+00 -5.1999997495457499e+00 +2.9299700422528194e-04 -5.2565367473860647e-01 -2.0402788121514680e-03
-5.2999999999999998e+00 +9.1461803822083105e+00 +0.0000000000000000e+00 -5.2999997348168204e+00 +2.9289943708017690e-04 -5.2565374598096437e-01 -2.0397332960879954e-03
-5.4000000000000004e+00 +9.1461250741284204e+00 +0.0000000000000000e+00 -5.3999997195214604e+00 +2.9280413844439367e-04 -5.2565380783895199e-01 -2.0391844417287208e-03
-5.5000000000000000e+00 +9.1460687322550296e+00 +0.0000000000000000e+00 -5.4999997036489701e+00 +2.9271227646383044e-04 -5.2565387344032044e-01 -2.0386325938609967e-03
-5.5999999999999996e+00 +9.1460113565845909e+00 +0.0000000000000000e+00 -5.5999996871886903e+00 +2.9262501896682022e-04 -5.2565395591305009e-01 -2.0380780974165913e-03
-5.7000000000000002e+00 +9.1459529471188894e+00 +0.0000000000000000e+00 -5.6999996701299196e+00 +2.9254353344979365e-04 -5.2565406838535289e-01 -2.0375212974784156e-03
-5.7999999999999998e+00 +9.1458935038561293e+00 +0.0000000000000000e+00 -5.7999996524619597e+00 +2.9246898706286617e-04 -5.2565422398570216e-01 -2.0369625392872531e-03
-5.9000000000000004e+00 +9.1458330267980994e+00 +0.0000000000000000e+00 -5.8999996341741401e+00 +2.9240254659547736e-04 -5.2565443584284244e-01 -2.0364021682484903e-03
-6.0000000000000000e+00 +9.1457715159465796e+00 +0.0000000000000000e+00 -5.9999996152557697e+00 +2.9234537846199054e-04 -5.2565471708581279e-01 -2.0358405299388434e-03
-6.0999999999999996e+00 +9.1457089712962301e+00 +0.0000000000000000e+00 -6.0999995956961603e+00 +2.9229824834251135e-04 -5.2565507659645472e-01 -2.0352782728822773e-03
-6.2000000000000002e+00 +9.1456453928523906e+00 +0.0000000000000000e+00 -6.1999995754846200e+00 +2.9226032036428477e-04 -5.2565550626730018e-01 -2.0347172567796220e-03
-6.2999999999999998e+00 +9.1455807806132707e+00 +0.0000000000000000e+00 -6.2999995546104604e+00 +2.9223035857936264e-04 -5.2565599374540828e-01 -2.0341596440227312e-03
-6.4000000000000004e+00 +9.1455151345771100e+00 +0.0000000000000000e+00 -6.3999995330630002e+00 +2.9220712739521965e-04 -5.2565652668022500e-01 -2.0336075968889309e-03
-6.5000000000000000e+00 +9.1454484547456794e+00 +0.0000000000000000e+00 -6.4999995108315600e+00 +2.9218939159073775e-04 -5.2565709272367500e-01 -2.0330632775356996e-03
-6.5999999999999996e+00 +9.1453807411171901e+00 +0.0000000000000000e+00 -6.5999994879054302e+00 +2.9217591633215646e-04 -5.2565767953026865e-01 -2.0325288479953497e-03
-6.7000000000000002e+00 +9.1453119936934399e+00 +0.0000000000000000e+00 -6.6999994642739402e+00 +2.9216546718907599e-04 -5.2565827475718818e-01 -2.0320064701697059e-03
-6.7999999999999998e+00 +9.1452422124761892e+00 +0.0000000000000000e+00 -6.7999994399263999e+00 +2.9215681015042506e-04 -5.2565886606439205e-01 -2.0314983058247762e-03
-6.9000000000000004e+00 +9.1451713974618905e+00 +0.0000000000000000e+00 -6.8999994148521200e+00 +2.9214871164042638e-04 -5.2565944111471619e-01 -2.0310065165854356e-03
-7.0000000000000000e+00 +9.1450995486523308e+00 +0.0000000000000000e+00 -6.9999993890404202e+00 +2.9213993853461994e-04 -5.2565998757395960e-01 -2.0305332639300785e-03
-7.0999999999999996e+00 +9.1450266660474906e+00 +0.0000000000000000e+00 -7.0999993624805997e+00 +2.9212937735970633e-04 -5.2566049588077146e-01 -2.0300799849251824e-03
-7.2000000000000002e+00 +9.1449527496438208e+00 +0.0000000000000000e+00 -7.1999993351619702e+00 +2.9211639173716368e-04 -5.2566096755426317e-01 -2.0296452194486338e-03
-7.2999999999999998e+00 +9.1448777994484391e+00 +0.0000000000000000e+00 -7.2999993070738700e+00 +2.9210046460472378e-04 -5.2566140688098351e-01 -2.0292267831029933e-03
-7.4000000000000004e+00 +9.1448018154560096e+00 +0.0000000000000000e+00 -7.3999992782055797e+00 +2.9208107899760861e-04 -5.2566181814444635e-01 -2.0288224915186513e-03
-7.5000000000000000e+00 +9.1447247976682995e+00 +0.0000000000000000e+00 -7.4999992485464304e+00 +2.9205771805065699e-04 -5.2566220562499111e-01 -2.0284301603551006e-03
-7.5999999999999996e+00 +9.1446467460835503e+00 +0.0000000000000000e+00 -7.5999992180857303e+00 +2.9202986500034465e-04 -5.2566257359967883e-01 -2.0280476053022322e-03
-7.7000000000000002e+00 +9.1445676607035296e+00 +0.0000000000000000e+00 -7.6999991868127999e+00 +2.9199700318686993e-04 -5.2566292634216527e-01 -2.0276726420816165e-03
-7.7999999999999998e+00 +9.1444875415300100e+00 +0.0000000000000000e+00 -7.7999991547169403e+00 +2.9195861605620251e-04 -5.2566326812258812e-01 -2.0273030864478192e-03
-7.9000000000000004e+00 +9.1444063885594495e+00 +0.0000000000000000e+00 -7.8999991217874603e+00 +2.9191418716212873e-04 -5.2566360320745709e-01 -2.0269367541896986e-03
-8.0000000000000000e+00 +9.1443242017936104e+00 +0.0000000000000000e+00 -7.9999990880136904e+00 +2.9186320016835461e-04 -5.2566393585952220e-01 -2.0265714611317131e-03
-8.0999999999999996e+00 +9.1442409812307197e+00 +0.0000000000000000e+00 -8.0999990533849306e+00 +2.9180535531663252e-04 -5.2566426846031122e-01 -2.0262055610443812e-03
-8.1999999999999993e+00 +9.1441567268743391e+00 +0.0000000000000000e+00 -8.1999990178904891e+00 +2.9174121856787591e-04 -5.2566459587905912e-01 -2.0258395594076654e-03
-8.3000000000000007e+00 +9.1440714387209105e+00 +0.0000000000000000e+00 -8.2999989815196997e+00 +2.9167157168714458e-04 -5.2566491110716673e-01 -2.0254744996120533e-03
-8.4000000000000004e+00 +9.1439851167722104e+00 +0.0000000000000000e+00 -8.3999989442618492e+00 +2.9159719567225991e-04 -5.2566520713598086e-01 -2.0251114250130369e-03
-8.5000000000000000e+00 +9.1438977610300203e+00 +0.0000000000000000e+00 -8.4999989061062706e+00 +2.9151887072972183e-04 -5.2566547695680577e-01 -2.0247513789301034e-03
-8.5999999999999996e+00 +9.1438093714890005e+00 +0.0000000000000000e+00 -8.5999988670422596e+00 +2.9143737625061847e-04 -5.2566571356091762e-01 -2.0243954046457262e-03
-8.6999999999999993e+00 +9.1437199481544802e+00 +0.0000000000000000e+00 -8.6999988270591402e+00 +2.9135349078660829e-04 -5.2566590993954909e-01 -2.0240445454043424e-03
-8.8000000000000007e+00 +9.1436294910247007e+00 +0.0000000000000000e+00 -8.7999987861462294e+00 +2.9126799202578677e-04 -5.2566605908391772e-01 -2.0236998444113415e-03
-8.9000000000000004e+00 +9.1435380000978608e+00 +0.0000000000000000e+00 -8.8999987442928301e+00 +2.9118165676862430e-04 -5.2566615398522176e-01 -2.0233623448320500e-03
-9.0000000000000000e+00 +9.1434454753775292e+00 +0.0000000000000000e+00 -8.9999987014882503e+00 +2.9109526090389468e-04 -5.2566618763464179e-01 -2.0230330897906997e-03
-9.0999999999999996e+00 +9.1433519168619295e+00 +0.0000000000000000e+00 -9.0999986577218195e+00 +2.9100960668414878e-04 -5.2566615686666363e-01 -2.0227131953228679e-03
-9.1999999999999993e+00 +9.1432573245492801e+00 +0.0000000000000000e+00 -9.1999986129828297e+00 +2.9092560519247321e-04 -5.2566607389061282e-01 -2.0224040692934982e-03
-9.3000000000000007e+00 +9.1431616984413608e+00 +0.0000000000000000e+00 -9.2999985672606194e+00 +2.9084419546784889e-04 -5.2566595476226563e-01 -2.0221071926143507e-03
-9.4000000000000004e+00 +9.1430650385381700e+00 +0.0000000000000000e+00 -9.3999985205444805e+00 +2.9076631737213582e-04 -5.2566581554058833e-01 -2.0218240462993196e-03
-9.5000000000000000e+00 +9.1429673448397004e+00 +0.0000000000000000e+00 -9.4999984728237195e+00 +2.9069291161426530e-04 -5.2566567228782513e-01 -2.0215561114672489e-03
-9.5999999999999996e+00 +9.1428686173459699e+00 +0.0000000000000000e+00 -9.5999984240876799e+00 +2.9062491977443084e-04 -5.2566554106958563e-01 -2.0213048693447444e-03
-9.6999999999999993e+00 +9.1427688560551807e+00 +0.0000000000000000e+00 -9.6999983743256504e+00 +2.9056328432827309e-04 -5.2566543795493692e-01 -2.0210718012689736e-03
-9.8000000000000007e+00 +9.1426680609726798e+00 +0.0000000000000000e+00 -9.7999983235269408e+00 +2.9050894867110178e-04 -5.2566537901648125e-01 -2.0208583886904647e-03
-9.9000000000000004e+00 +9.1425662320913492e+00 +0.0000000000000000e+00 -9.8999982716808805e+00 +2.9046285714202967e-04 -5.2566538033046750e-01 -2.0206661131759182e-03
-1.0000000000000000e+01 +9.1424633694165305e+00 +0.0000000000000000e+00 -9.9999982187767706e+00 +2.9042595504824668e-04 -5.2566545797685083e-01 -2.0204964564109725e-03
-1.0100000000000000e+01 +9.1423594729446602e+00 +0.0000000000000000e+00 -1.0099998164803900e+01 +2.9039868234556615e-04 -5.2566562203091272e-01 -2.0203504579987689e-03
-1.0199999999999999e+01 +9.1422545426793000e+00 +0.0000000000000000e+00 -1.0199998109751700e+01 +2.9037945413108143e-04 -5.2566585853462888e-01 -2.0202273886694650e-03
-1.0300000000000001e+01 +9.1421485786168795e+00 +0.0000000000000000e+00 -1.0299998053609301e+01 +2.9036617905207977e-04 -5.2566614751944052e-01 -2.0201260767897730e-03
-1.0400000000000000e+01 +9.1420415807609707e+00 +0.0000000000000000e+00 -1.0399997996366100e+01 +2.9035676560231621e-04 -5.2566646901484360e-01 -2.0200453505898534e-03
-1.0500000000000000e+01 +9.1419335491080194e+00 +0.0000000000000000e+00 -1.0499997938011500e+01 +2.9034912211720287e-04 -5.2566680304835134e-01 -2.0199840381599156e-03
-1.0600000000000000e+01 +9.1418244836597893e+00 +0.0000000000000000e+00 -1.0599997878534600e+01 +2.9034115676909239e-04 -5.2566712964542905e-01 -2.0199409674468089e-03
-1.0699999999999999e+01 +9.1417143844180693e+00 +0.0000000000000000e+00 -1.0699997817925000e+01 +2.9033077756250505e-04 -5.2566742882944584e-01 -2.0199149662506223e-03
-1.0800000000000001e+01 +9.1416032513792906e+00 +0.0000000000000000e+00 -1.0799997756171701e+01 +2.9031589232936288e-04 -5.2566768062163072e-01 -2.0199048622212973e-03
-1.0900000000000000e+01 +9.1414910845470292e+00 +0.0000000000000000e+00 -1.0899997693264300e+01 +2.9029440872428523e-04 -5.2566786504100294e-01 -2.0199094828552257e-03
-1.1000000000000000e+01 +9.1413778839177091e+00 +0.0000000000000000e+00 -1.0999997629191901e+01 +2.9026423421980217e-04 -5.2566796210433875e-01 -2.0199276554918803e-03
-1.1100000000000000e+01 +9.1412636494931299e+00 +0.0000000000000000e+00 -1.1099997563943900e+01 +2.9022374032332401e-04 -5.2566795890526075e-01 -2.0199583328272051e-03
-1.1199999999999999e+01 +9.1411483812750394e+00 +0.0000000000000000e+00 -1.1199997497509599e+01 +2.9017315527168794e-04 -5.2566787085334699e-01 -2.0200009695857135e-03
-1.1300000000000001e+01 +9.1410320792599205e+00 +0.0000000000000000e+00 -1.1299997429878401e+01 +2.9011317112123951e-04 -5.2566772043500920e-01 -2.0200551461080577e-03
-1.1400000000000000e+01 +9.1409147434512903e+00 +0.0000000000000000e+00 -1.1399997361039500e+01 +2.9004447942458048e-04 -5.2566753013315237e-01 -2.0201204428410089e-03
-1.1500000000000000e+01 +9.1407963738456193e+00 +0.0000000000000000e+00 -1.1499997290982201e+01 +2.8996777121904140e-04 -5.2566732242711534e-01 -2.0201964403400363e-03
-1.1600000000000000e+01 +9.1406769704464494e+00 +0.0000000000000000e+00 -1.1599997219695799e+01 +2.8988373701523590e-04 -5.2566711979257563e-01 -2.0202827192718591e-03
-1.1699999999999999e+01 +9.1405565332520098e+00 +0.0000000000000000e+00 -1.1699997147169800e+01 +2.8979306678553169e-04 -5.2566694470148723e-01 -2.0203788604170382e-03
