# multipoles
# s[mm] polynom_b[n=0][T/m^n] polynom_b[n=1][T/m^n] polynom_b[n=2][T/m^n] polynom_b[n=3][T/m^n] polynom_b[n=4][T/m^n] polynom_b[n=5][T/m^n] polynom_b[n=6][T/m^n] 
-0.0000000000000000e+00 -1.0319089470173353e+00 +2.2816201923338228e+00 +2.0986001158089529e+01 +2.2786135275789260e+02 -3.9612925015443871e+04 -9.0493054662667064e+05 +2.6115031433098668e+08 
-1.0000000000000001e-01 -1.0319087405980327e+00 +2.2819085108640524e+00 +2.0968270920830872e+01 +2.1858413994175450e+02 -3.8552415079336031e+04 -8.6030762075361435e+05 +2.5470022937505406e+08 
-2.0000000000000001e-01 -1.0319085403723471e+00 +2.2822120820175225e+00 +2.0950803605146834e+01 +2.0900270289997385e+02 -3.7499586554196801e+04 -8.1436297691130394e+05 +2.4832266890511703e+08 
-2.9999999999999999e-01 -1.0319083437542578e+00 +2.2825304158468862e+00 +2.0933697881549421e+01 +1.9912686282602658e+02 -3.6456832793188092e+04 -7.6715229741013364e+05 +2.4202749717456189e+08 
-4.0000000000000002e-01 -1.0319081481578076e+00 +2.2828630224139457e+00 +2.0917052421978944e+01 +1.8896644066952794e+02 -3.5426547103170291e+04 -7.1873126404739881e+05 +2.3582457798197404e+08 
-5.0000000000000000e-01 -1.0319079509970988e+00 +2.2832094117726922e+00 +2.0900965899909373e+01 +1.7853125773134175e+02 -3.4411122741518731e+04 -6.6915556191513420e+05 +2.2972377464388272e+08 
-5.9999999999999998e-01 -1.0319077496862827e+00 +2.2835690939743332e+00 +2.0885536988647559e+01 +1.6783113557634991e+02 -3.3412952885640007e+04 -6.1848087913196150e+05 +2.2373494985222059e+08 
-6.9999999999999996e-01 -1.0319075416395780e+00 +2.2839415790534323e+00 +2.0870864363142889e+01 +1.5687589655950421e+02 -3.2434430667475059e+04 -5.6676291033204575e+05 +2.1786796584137169e+08 
-8.0000000000000004e-01 -1.0319073242712749e+00 +2.2843263770235165e+00 +2.0857046702296042e+01 +1.4567536402071866e+02 -3.1477949218553134e+04 -5.1405735803253704e+05 +2.1213268460211271e+08 
-9.0000000000000002e-01 -1.0319070949956173e+00 +2.2847229978692076e+00 +2.0844182674189089e+01 +1.3423936261921838e+02 -3.0545901383962431e+04 -4.6041993496129138e+05 +2.0653896650868094e+08 
-1.0000000000000000e+00 -1.0319068512269469e+00 +2.2851309515476115e+00 +2.0832370951945357e+01 +1.2257771837328917e+02 -2.9640680029435858e+04 -4.0590636459712713e+05 +2.0109667179185131e+08 
-1.1000000000000001e+00 -1.0319065903795763e+00 +2.2855497479687243e+00 +2.0821710200656291e+01 +1.1070025932204369e+02 -2.8764677787696019e+04 -3.5057238531786302e+05 +1.9581565932149804e+08 
-1.2000000000000000e+00 -1.0319063098678762e+00 +2.2859788969980883e+00 +2.0812299087029668e+01 +9.8616815547781783e+01 -2.7920287246404037e+04 -2.9447375091634516e+05 +1.9070578751033321e+08 
-1.3000000000000000e+00 -1.0319060071061756e+00 +2.2864179084470839e+00 +2.0804236268357972e+01 +8.6337219539868883e+01 -2.7109900735223189e+04 -2.3766623298132012e+05 +1.8577691329081801e+08 
-1.3999999999999999e+00 -1.0319056795088204e+00 +2.2868662920691567e+00 +2.0797620398530039e+01 +7.3871306394236754e+01 -2.6335910440689873e+04 -1.8020562240659908e+05 +1.8103889266661206e+08 
-1.5000000000000000e+00 -1.0319053244901297e+00 +2.2873235575500495e+00 +2.0792550123223972e+01 +6.1228914177753872e+01 -2.5600708316845834e+04 -1.2214773179146969e+05 +1.7650158029147103e+08 
-1.6000000000000001e+00 -1.0319049398873290e+00 +2.2877891650089426e+00 +2.0789031268637231e+01 +4.8419524032218028e+01 -2.4904740128290472e+04 -6.3535600025364365e+04 +1.7216563112249899e+08 
-1.7000000000000000e+00 -1.0319045252999204e+00 +2.2882624293499969e+00 +2.0786709209233795e+01 +3.5450155784609322e+01 -2.4240861195943202e+04 -4.3563408885073677e+03 +1.6799565973192060e+08 
-1.8000000000000000e+00 -1.0319040807849500e+00 +2.2887426422390926e+00 +2.0785141753760012e+01 +2.2326959471218018e+01 -2.3600074596867165e+04 +5.5418117847054811e+04 +1.6394744450260699e+08 
-1.8999999999999999e+00 -1.0319036063995082e+00 +2.2892290953516268e+00 +2.0783886725088454e+01 +9.0560849787156936e+00 -2.2973383766307674e+04 +1.1581584896192406e+05 +1.5997676580351970e+08 
-2.0000000000000000e+00 -1.0319031022008125e+00 +2.2897210803715775e+00 +2.0782501969222519e+01 -4.3563180370358356e+00 -2.2351792678864200e+04 +1.7686492669342153e+05 +1.5603940688779816e+08 
-2.1000000000000001e+00 -1.0319025682461080e+00 +2.2902178890072462e+00 +2.0780545346964299e+01 -1.7904100627706335e+01 -2.1726305717292449e+04 +2.3859342975008654e+05 +1.5209115335227686e+08 
-2.2000000000000002e+00 -1.0319020045928011e+00 +2.2907188129831821e+00 +2.0777574750067977e+01 -3.1581114422404092e+01 -2.1087927993977130e+04 +3.0102944100465934e+05 +1.4808779471564755e+08 
-2.2999999999999998e+00 -1.0319014112983396e+00 +2.2912231440581459e+00 +2.0773148088841936e+01 -4.5381212211401042e+01 -2.0427665142371261e+04 +3.6420105122567510e+05 +1.4398512350748673e+08 
-2.3999999999999999e+00 -1.0319007884203568e+00 +2.2917301740272022e+00 +2.0766823312539017e+01 -5.9298248058447598e+01 -1.9736523721478614e+04 +4.2813636006012431e+05 +1.3973893725083938e+08 
-2.5000000000000000e+00 -1.0319001360165234e+00 +2.2922391947242717e+00 +2.0758158390285853e+01 -7.3326077451524739e+01 -1.9005510868467500e+04 +4.9286347727852972e+05 +1.3530503685716325e+08 
-2.6000000000000001e+00 -1.0318994541446800e+00 +2.2927494980331282e+00 +2.0746711330442626e+01 -8.7458557703463896e+01 -1.8225634696134915e+04 +5.5841052549521241e+05 +1.3063922860836437e+08 
-2.7000000000000002e+00 -1.0318987428628217e+00 +2.2932603758925185e+00 +2.0732040181240848e+01 -1.0168954814401816e+02 -1.7387904319887853e+04 +6.2480564159912511e+05 +1.2569732433255242e+08 
-2.7999999999999998e+00 -1.0318980022290194e+00 +2.2937711202931910e+00 +2.0713703021110245e+01 -1.1601291011904645e+02 -1.6483329694169985e+04 +6.9207697713742719e+05 +1.2043514069300979e+08 
-2.8999999999999999e+00 -1.0318972323015356e+00 +2.2942810232993538e+00 +2.0691257973321530e+01 -1.3042250767824791e+02 -1.5502921913567710e+04 +7.6025270264483278e+05 +1.1480850069052805e+08 
-3.0000000000000000e+00 -1.0318964331388005e+00 +2.2947893770391445e+00 +2.0664263208264785e+01 -1.4491220736270955e+02 -1.4437693271958706e+04 +8.2936100680799887e+05 +1.0877323399763562e+08 
-3.1000000000000001e+00 -1.0318956047993544e+00 +2.2952954737208189e+00 +2.0632276935271552e+01 -1.5947587874103041e+02 -1.3278657132220138e+04 +8.9943009989180043e+05 +1.0228517641433434e+08 
-3.2000000000000002e+00 -1.0318947473419511e+00 +2.2957986056349777e+00 +2.0594857416807322e+01 -1.7410739455033044e+02 -1.2016828212667195e+04 +9.7048821494645951e+05 +9.5300171288436830e+07 
-3.2999999999999998e+00 -1.0318938608254937e+00 +2.2962980651594571e+00 +2.0551562963985827e+01 -1.8880063089886892e+02 -1.0643222523531920e+04 +1.0425636093536403e+06 +8.7774069279432461e+07 
-3.3999999999999999e+00 -1.0318929453090899e+00 +2.2967931447695475e+00 +2.0501951943148867e+01 -2.0354946763485214e+02 -9.1488575126853902e+03 +1.1156845673017299e+06 +7.9662729119690195e+07 
-3.5000000000000000e+00 -1.0318920008520294e+00 +2.2972831370421307e+00 +2.0445582776115181e+01 -2.1834778852778251e+02 -7.5247520982976694e+03 +1.1898794011109425e+06 +7.0922017844426706e+07 
-3.6000000000000001e+00 -1.0318910281902605e+00 +2.2977674920253026e+00 +2.0382210472709620e+01 -2.3319094586495765e+02 -5.7658891593975668e+03 +1.2651718834610332e+06 +6.1527087104762129e+07 
-3.7000000000000002e+00 -1.0318900304913374e+00 +2.2982461012243145e+00 +2.0312331520653636e+01 -2.4807529641045150e+02 -3.8822781077766749e+03 +1.3415395952036728e+06 +5.1526653669694051e+07 
-3.7999999999999998e+00 -1.0318890114641939e+00 +2.2987189211136059e+00 +2.0236617391519278e+01 -2.6299626177551340e+02 -1.8874975309592396e+03 +1.4189416129517464e+06 +4.0987041886595607e+07 
-3.8999999999999999e+00 -1.0318879748176695e+00 +2.2991859081633037e+00 +2.0155739543813485e+01 -2.7794926321675791e+02 +2.0487432819600900e+02 +1.4973370109366907e+06 +2.9974573884755023e+07 
-4.0000000000000000e+00 -1.0318869242603355e+00 +2.2996470188374039e+00 +2.0070369395654801e+01 -2.9292972164104270e+02 +2.3812601200365157e+03 +1.5766848614458258e+06 +1.8555566827865608e+07 
-4.0999999999999996e+00 -1.0318858635005783e+00 +2.3001022096025179e+00 +1.9981178338374480e+01 -3.0793305782129426e+02 +4.6280831508099882e+03 +1.6569442360330655e+06 +6.7963339623763803e+06 
-4.2000000000000002e+00 -1.0318847962465725e+00 +2.3005514369152724e+00 +1.9888837728287342e+01 -3.2295469202270880e+02 +6.9317675475489923e+03 +1.7380742032460105e+06 -5.2368162198247770e+06 
-4.2999999999999998e+00 -1.0318837262062259e+00 +2.3009946572237272e+00 +1.9794018881966252e+01 -3.3799004402816945e+02 +9.2787383708870784e+03 +1.8200338287845792e+06 -1.7477580605408695e+07 
-4.4000000000000004e+00 -1.0318826570872068e+00 +2.3014318269706071e+00 +1.9697393076206605e+01 -3.5303453319903912e+02 +1.1655421629153729e+04 +1.9027821757205997e+06 -2.9859661590219516e+07 
-4.5000000000000000e+00 -1.0318815925968916e+00 +2.3018629025805546e+00 +1.9599631542544124e+01 -3.6808357808236673e+02 +1.4048244405619535e+04 +1.9862783021726555e+06 -4.2316767772953294e+07 
-4.5999999999999996e+00 -1.0318805364424068e+00 +2.3022878404703304e+00 +1.9501405468834328e+01 -3.8313259671099934e+02 +1.6443634836815145e+04 +2.0704812630260929e+06 -5.4782613902109765e+07 
-4.7000000000000002e+00 -1.0318794923304939e+00 +2.3027065970347480e+00 +1.9403385983237428e+01 -3.9817700615613933e+02 +1.8828022443423648e+04 +2.1553501072482490e+06 -6.7190922548469648e+07 
-4.7999999999999998e+00 -1.0318784639676102e+00 +2.3031191286603523e+00 +1.9306244166869703e+01 -4.1321222289766882e+02 +2.1187837898562742e+04 +2.2408438799650720e+06 -7.9475423052590698e+07 
-4.9000000000000004e+00 -1.0318774550598597e+00 +2.3035253917075429e+00 +1.9210651039690184e+01 -4.2823366231189942e+02 +2.3509513321619866e+04 +2.3269216194562465e+06 -9.1569853018251300e+07 
-5.0000000000000000e+00 -1.0318764693129872e+00 +2.3039253425166284e+00 +1.9117277564090713e+01 -4.4323673880422422e+02 +2.5779482215498341e+04 +2.4135423578527593e+06 -1.0340795805588476e+08 
-5.0999999999999996e+00 -1.0318755104323400e+00 +2.3043189374057054e+00 +1.9026794635228875e+01 -4.5821686573359312e+02 +2.7984179680608300e+04 +2.5006651206223764e+06 -1.1492349291031009e+08 
-5.2000000000000002e+00 -1.0318745821229030e+00 +2.3047061326693661e+00 +1.8939873085578530e+01 -4.7316945536181237e+02 +3.0110042335904043e+04 +2.5882489262407436e+06 -1.2605022113066746e+08 
-5.2999999999999998e+00 -1.0318736880891670e+00 +2.3050868845739889e+00 +1.8857183667981438e+01 -4.8808991868867702e+02 +3.2143508664397603e+04 +2.6762527851678571e+06 -1.3672191680333290e+08 
-5.4000000000000004e+00 -1.0318728320353034e+00 +2.3054611493567072e+00 +1.8779397075458380e+01 -5.0297366540525900e+02 +3.4071018647870391e+04 +2.7646356994960997e+06 -1.4687236287426540e+08 
-5.5000000000000000e+00 -1.0318720176648681e+00 +2.3058288831898892e+00 +1.8707183900214925e+01 -5.1781610246865955e+02 +3.5879014646760203e+04 +2.8533566535597108e+06 -1.5643535567930511e+08 
-5.5999999999999996e+00 -1.0318712479118863e+00 +2.3061898549451758e+00 +1.8641070887970095e+01 -5.3260493253279856e+02 +3.7557012075560044e+04 +2.9423249938759059e+06 -1.6536015687314633e+08 
-5.7000000000000002e+00 -1.0318705229800493e+00 +2.3065432947317923e+00 +1.8581069649674649e+01 -5.4730357858747573e+02 +3.9105351591652332e+04 +3.0312901277591567e+06 -1.7364989733568019e+08 
-5.7999999999999998e+00 -1.0318698424776001e+00 +2.3068883436141490e+00 +1.8527077270173486e+01 -5.6187075939828003e+02 +4.0526738097973888e+04 +3.1199693874223940e+06 -1.8131932176117304e+08 
-5.9000000000000004e+00 -1.0318692060125787e+00 +2.3072241426283964e+00 +1.8478990808218690e+01 -5.7626519298441883e+02 +4.1823876771575269e+04 +3.2080801017881944e+06 -1.8838317473163623e+08 
-6.0000000000000000e+00 -1.0318686131926591e+00 +2.3075498327750941e+00 +1.8436707272870535e+01 -5.9044559654637794e+02 +4.2999473531358686e+04 +3.2953395965444595e+06 -1.9485620297193912e+08 
-6.0999999999999996e+00 -1.0318680636251831e+00 +2.3078645550403789e+00 +1.8400123626194070e+01 -6.0437068708039965e+02 +4.4056234974061255e+04 +3.3814651977096209e+06 -2.0075315496921524e+08 
-6.2000000000000002e+00 -1.0318675569171749e+00 +2.3081674503777929e+00 +1.8369136790138459e+01 -6.1799918085760282e+02 +4.4996868233354995e+04 +3.4661742286936431e+06 -2.0608878023397240e+08 
-6.2999999999999998e+00 -1.0318670926752882e+00 +2.3084576597147670e+00 +1.8343643633952134e+01 -6.3128979364132238e+02 +4.5824081210603959e+04 +3.5491840115899504e+06 -2.1087783032673812e+08 
-6.4000000000000004e+00 -1.0318666705058404e+00 +2.3087343239497260e+00 +1.8323540981020905e+01 -6.4420124060079377e+02 +4.6540582435661439e+04 +3.6302118667047988e+06 -2.1513505813265988e+08 
-6.5000000000000000e+00 -1.0318662900147628e+00 +2.3089965839491784e+00 +1.8308725603321975e+01 -6.5669223623112180e+02 +4.7149081158407687e+04 +3.7089751121298140e+06 -2.1887521821264905e+08 
-6.5999999999999996e+00 -1.0318659508076211e+00 +2.3092435805515747e+00 +1.8299094221749819e+01 -6.6872149449819358e+02 +4.7652287337289010e+04 +3.7851910646588402e+06 -2.2211306669499546e+08 
-6.7000000000000002e+00 -1.0318656524895986e+00 +2.3094744545616299e+00 +1.8294543505532669e+01 -6.8024772867273271e+02 +4.8052911639256701e+04 +3.8585770388590423e+06 -2.2486336119724402e+08 
-6.7999999999999998e+00 -1.0318653946654832e+00 +2.3096883467476408e+00 +1.8294970070076761e+01 -6.9122965125343683e+02 +4.8353665469854357e+04 +3.9288503466168586e+06 -2.2714086090062758e+08 
-6.9000000000000004e+00 -1.0318651769396514e+00 +2.3098843978475774e+00 +1.8300270472819506e+01 -7.0162597417730285e+02 +4.8557261043527746e+04 +3.9957282984623122e+06 -2.2896032681674451e+08 
-7.0000000000000000e+00 -1.0318649989160993e+00 +2.3100617485578780e+00 +1.8310341220135278e+01 -7.1139540849634852e+02 +4.8666411241153706e+04 +4.0589282017232333e+06 -2.3033652103568962e+08 
-7.0999999999999996e+00 -1.0318648601983496e+00 +2.3102195395407890e+00 +1.8325078753368178e+01 -7.2049666459267144e+02 +4.8683829869354100e+04 +4.1181673617848102e+06 -2.3128420790228978e+08 
-7.2000000000000002e+00 -1.0318647603895799e+00 +2.3103569114200195e+00 +1.8344379465208977e+01 -7.2888845207816678e+02 +4.8612231328576927e+04 +4.1731630815668991e+06 -2.3181815233385697e+08 
-7.2999999999999998e+00 -1.0318646990924329e+00 +2.3104730047787201e+00 +1.8368139677631749e+01 -7.3652947973565358e+02 +4.8454331040224970e+04 +4.2236326612620503e+06 -2.3195312183297148e+08 
-7.4000000000000004e+00 -1.0318646759091976e+00 +2.3105669601572658e+00 +1.8396255660082527e+01 -7.4337845548049927e+02 +4.8212845076964608e+04 +4.2692933980885576e+06 -2.3170388462205374e+08 
-7.5000000000000000e+00 -1.0318646904416560e+00 +2.3106379181102019e+00 +1.8428623620223334e+01 -7.4939408915619697e+02 +4.7890490155447238e+04 +4.3098626064214213e+06 -2.3108520888633478e+08 
-7.5999999999999996e+00 -1.0318647419871700e+00 +2.3106854486496902e+00 +1.8465114119992002e+01 -7.5455108884137599e+02 +4.7490047062946112e+04 +4.3451597033867072e+06 -2.3011083546905881e+08 
-7.7000000000000002e+00 -1.0318648287272212e+00 +2.3107108127472626e+00 +1.8505470064249124e+01 -7.5888547332086102e+02 +4.7015712234340906e+04 +4.3753924133585086e+06 -2.2879818087804574e+08 
-7.7999999999999998e+00 -1.0318649485807390e+00 +2.3107156995649811e+00 +1.8549394899480642e+01 -7.6244847413730304e+02 +4.6472342980164292e+04 +4.4008643925590869e+06 -2.2716758455128255e+08 
-7.9000000000000004e+00 -1.0318650994672598e+00 +2.3107017985332297e+00 +1.8596592134547819e+01 -7.6529133234852748e+02 +4.5864795663163924e+04 +4.4218793605903890e+06 -2.2523938250829411e+08 
-8.0000000000000000e+00 -1.0318652793068892e+00 +2.3106707993071058e+00 +1.8646765346207811e+01 -7.6746529660791134e+02 +4.5197925463298176e+04 +4.4387410867453115e+06 -2.2303390574426249e+08 
-8.0999999999999996e+00 -1.0318654860204570e+00 +2.3106243917622389e+00 +1.8699618195441651e+01 -7.6902162307226354e+02 +4.4476586075085368e+04 +4.4517533895436795e+06 -2.2057147882888538e+08 
-8.1999999999999993e+00 -1.0318657175294212e+00 +2.3105642660074697e+00 +1.8754854417844076e+01 -7.7001157579719654e+02 +4.3705629900112079e+04 +4.4612201392131653e+06 -2.1787242086891910e+08 
-8.3000000000000007e+00 -1.0318659717560668e+00 +2.3104921123918651e+00 +1.8812177845336446e+01 -7.7048642697750734e+02 +4.2889907630249720e+04 +4.4674452591893831e+06 -2.1495704352971190e+08 
-8.4000000000000004e+00 -1.0318662466233264e+00 +2.3104096215095784e+00 +1.8871292386816215e+01 -7.7049745711612707e+02 +4.2034268629008184e+04 +4.4707327272784831e+06 -2.1184565290526351e+08 
-8.5000000000000000e+00 -1.0318665400549583e+00 +2.3103184842084681e+00 +1.8931902048725853e+01 -7.7009595529852550e+02 +4.1143560545208857e+04 +4.4713865773483962e+06 -2.0855854771121109e+08 
-8.5999999999999996e+00 -1.0318668499755304e+00 +2.3102203915949806e+00 +1.8993710930909952e+01 -7.6933321937927565e+02 +4.0222629394746014e+04 +4.4697109005707782e+06 -2.0511601969812754e+08 
-8.6999999999999993e+00 -1.0318671743104082e+00 +2.3101170350429663e+00 +1.9056423230383981e+01 -7.6826055625267077e+02 +3.9276319496653581e+04 +4.4660098471540231e+06 -2.0153835338854906e+08 
-8.8000000000000007e+00 -1.0318675109858153e+00 +2.3100101061982343e+00 +1.9119743243275991e+01 -7.6692928203180577e+02 +3.8309473441913062e+04 +4.4605876275021927e+06 -1.9784582595962676e+08 
-8.9000000000000004e+00 -1.0318678579288745e+00 +2.3099012969862334e+00 +1.9183375372158750e+01 -7.6539072228361306e+02 +3.7326931959460715e+04 +4.4537485136899594e+06 -1.9405870664047354e+08 
-9.0000000000000000e+00 -1.0318682130675867e+00 +2.3097922996218401e+00 +1.9247024124906936e+01 -7.6369621237004264e+02 +3.6333533941730973e+04 +4.4457968416926200e+06 -1.9019725685933328e+08 
-9.0999999999999996e+00 -1.0318685743309126e+00 +2.3096848066110574e+00 +1.9310394121558836e+01 -7.6189709749630481e+02 +3.5334116322917311e+04 +4.4370370116567668e+06 -1.8628172970905069e+08 
-9.1999999999999993e+00 -1.0318689396487313e+00 +2.3095805107620708e+00 +1.9373190090329008e+01 -7.6004473308855199e+02 +3.4333514160476472e+04 +4.4277734903494539e+06 -1.8233237036558422e+08 
-9.3000000000000007e+00 -1.0318693069519469e+00 +2.3094811051888442e+00 +1.9435116882232133e+01 -7.5819048491605452e+02 +3.3336560360733987e+04 +4.4183108119697543e+06 -1.7836941481117404e+08 
-9.4000000000000004e+00 -1.0318696741724576e+00 +2.3093882833216224e+00 +1.9495879465757412e+01 -7.5638572942845144e+02 +3.2348085784905310e+04 +4.4089535802414361e+06 -1.7441309037018135e+08 
-9.5000000000000000e+00 -1.0318700392433431e+00 +2.3093037389247746e+00 +1.9555182953226112e+01 -7.5468185345392067e+02 +3.1372918840875234e+04 +4.4000064657835010e+06 -1.7048361400497696e+08 
-9.5999999999999996e+00 -1.0318704001354440e+00 +2.3092286829828379e+00 +1.9612806464166159e+01 -7.5311592456814662e+02 +3.0414539573022841e+04 +4.3916942577082235e+06 -1.6659532860532960e+08 
-9.6999999999999993e+00 -1.0318707544612156e+00 +2.3091621993607507e+00 +1.9668812812040962e+01 -7.5166453177476103e+02 +2.9470761891265189e+04 +4.3839109836686738e+06 -1.6273673763188097e+08 
-9.8000000000000007e+00 -1.0318710996370120e+00 +2.3091027819721073e+00 +1.9723337120143697e+01 -7.5028796234095580e+02 +2.8537827407796947e+04 +4.3764630070970720e+06 -1.5888889550363269e+08 
-9.9000000000000004e+00 -1.0318714330784584e+00 +2.3090489244636783e+00 +1.9776514431049581e+01 -7.4894649119419523e+02 +2.7611979020834748e+04 +4.3691566037814291e+06 -1.5503286266276187e+08 
-1.0000000000000000e+01 -1.0318717522001388e+00 +2.3089991202838358e+00 +1.9828479664264304e+01 -7.4760038311497431e+02 +2.6689461846085575e+04 +4.3617979720038427e+06 -1.5114971012929949e+08 
-1.0100000000000000e+01 -1.0318720544156719e+00 +2.3089518626822874e+00 +1.9879367617071168e+01 -7.4620989262395744e+02 +2.5766523218098468e+04 +4.3541932313305866e+06 -1.4722051956768286e+08 
