# field on trajectory
# s[mm] rx[mm] ry[mm] rz[mm] bx[T] by[T] bz[T]
0.0000000000000000e+00 +9.0449999999999999e+00 +0.0000000000000000e+00 +0.0000000000000000e+00 +1.1297554410606724e-02 -1.0340006789163432e+00 -5.8784688145443006e-02
-1.0000000000000001e-01 +9.0449994833565146e+00 +0.0000000000000000e+00 -9.9999999998220540e-02 +1.1297795219477061e-02 -1.0340054595553865e+00 -5.8786160665398067e-02
-2.0000000000000001e-01 +9.0449979334228683e+00 +0.0000000000000000e+00 -1.9999999998576418e-01 +1.1298037091534339e-02 -1.0340102851591335e+00 -5.8787628851483559e-02
-3.0000000000000004e-01 +9.0449953501942399e+00 +0.0000000000000000e+00 -2.9999999995195392e-01 +1.1298280161071369e-02 -1.0340151542138043e+00 -5.8789092569603817e-02
-4.0000000000000002e-01 +9.0449917336657624e+00 +0.0000000000000000e+00 -3.9999999988611268e-01 +1.1298524562398439e-02 -1.0340200652054501e+00 -5.8790551685662475e-02
-5.0000000000000000e-01 +9.0449870838325293e+00 +0.0000000000000000e+00 -4.9999999977756304e-01 +1.1298770429833649e-02 -1.0340250166198888e+00 -5.8792006065561980e-02
-5.9999999999999998e-01 +9.0449814006895934e+00 +0.0000000000000000e+00 -5.9999999961562756e-01 +1.1299017897693171e-02 -1.0340300069426249e+00 -5.8793455575202755e-02
-6.9999999999999996e-01 +9.0449746842319669e+00 +0.0000000000000000e+00 -6.9999999938962865e-01 +1.1299267100281634e-02 -1.0340350346587848e+00 -5.8794900080482847e-02
-7.9999999999999993e-01 +9.0449669344546280e+00 +0.0000000000000000e+00 -7.9999999908888852e-01 +1.1299518171882329e-02 -1.0340400982530431e+00 -5.8796339447297008e-02
-8.9999999999999991e-01 +9.0449581513525175e+00 +0.0000000000000000e+00 -8.9999999870272918e-01 +1.1299771246747616e-02 -1.0340451962095498e+00 -5.8797773541536272e-02
-9.9999999999999989e-01 +9.0449483349205426e+00 +0.0000000000000000e+00 -9.9999999822047259e-01 +1.1300026459089157e-02 -1.0340503270118639e+00 -5.8799202229087230e-02
-1.0999999999999999e+00 +9.0449374851535769e+00 +0.0000000000000000e+00 -1.0999999976314405e+00 +1.1300283943068267e-02 -1.0340554891428744e+00 -5.8800625375831438e-02
-1.2000000000000000e+00 +9.0449256020464617e+00 +0.0000000000000000e+00 -1.1999999969249544e+00 +1.1300543832786204e-02 -1.0340606810847361e+00 -5.8802042847644766e-02
-1.3000000000000000e+00 +9.0449126855940118e+00 +0.0000000000000000e+00 -1.2999999960903357e+00 +1.1300806262274476e-02 -1.0340659013187954e+00 -5.8803454510396792e-02
-1.4000000000000001e+00 +9.0448987357910120e+00 +0.0000000000000000e+00 -1.3999999951169058e+00 +1.1301071365485135e-02 -1.0340711483255167e+00 -5.8804860229950059e-02
-1.5000000000000002e+00 +9.0448837526322183e+00 +0.0000000000000000e+00 -1.4999999939939856e+00 +1.1301339276281118e-02 -1.0340764205844157e+00 -5.8806259872159677e-02
-1.6000000000000003e+00 +9.0448677361123657e+00 +0.0000000000000000e+00 -1.5999999927108961e+00 +1.1301610104458631e-02 -1.0340817172595271e+00 -5.8807653261057018e-02
-1.7000000000000004e+00 +9.0448506862261624e+00 +0.0000000000000000e+00 -1.6999999912569581e+00 +1.1301883863867889e-02 -1.0340870402562685e+00 -5.8809040053403837e-02
-1.8000000000000005e+00 +9.0448326029682917e+00 +0.0000000000000000e+00 -1.7999999896214920e+00 +1.1302160544373654e-02 -1.0340923921653389e+00 -5.8810419864139575e-02
-1.9000000000000006e+00 +9.0448134863334051e+00 +0.0000000000000000e+00 -1.8999999877938183e+00 +1.1302440135836695e-02 -1.0340977755773120e+00 -5.8811792308196775e-02
-2.0000000000000004e+00 +9.0447933363161273e+00 +0.0000000000000000e+00 -1.9999999857632573e+00 +1.1302722628119563e-02 -1.0341031930827058e+00 -5.8813157000500951e-02
-2.1000000000000005e+00 +9.0447721529110439e+00 +0.0000000000000000e+00 -2.0999999835191292e+00 +1.1303008011092392e-02 -1.0341086472720491e+00 -5.8814513555970255e-02
-2.2000000000000006e+00 +9.0447499361127068e+00 +0.0000000000000000e+00 -2.1999999810507536e+00 +1.1303296274638708e-02 -1.0341141407359491e+00 -5.8815861589515323e-02
-2.3000000000000007e+00 +9.0447266859156308e+00 +0.0000000000000000e+00 -2.2999999783474503e+00 +1.1303587408661194e-02 -1.0341196760651590e+00 -5.8817200716039020e-02
-2.4000000000000008e+00 +9.0447024023142841e+00 +0.0000000000000000e+00 -2.3999999753985386e+00 +1.1303881403087515e-02 -1.0341252558506460e+00 -5.8818530550436253e-02
-2.5000000000000009e+00 +9.0446770853030944e+00 +0.0000000000000000e+00 -2.4999999721933381e+00 +1.1304178247876086e-02 -1.0341308826836590e+00 -5.8819850707593650e-02
-2.6000000000000010e+00 +9.0446507348764413e+00 +0.0000000000000000e+00 -2.5999999687211681e+00 +1.1304477933021891e-02 -1.0341365591557974e+00 -5.8821160802389513e-02
-2.7000000000000011e+00 +9.0446233510286547e+00 +0.0000000000000000e+00 -2.6999999649713473e+00 +1.1304780448562252e-02 -1.0341422878590754e+00 -5.8822460449693442e-02
-2.8000000000000012e+00 +9.0445949337540128e+00 +0.0000000000000000e+00 -2.7999999609331949e+00 +1.1305085784582647e-02 -1.0341480713859934e+00 -5.8823749264366128e-02
-2.9000000000000012e+00 +9.0445654830467372e+00 +0.0000000000000000e+00 -2.8999999565960288e+00 +1.1305393931222490e-02 -1.0341539123296044e+00 -5.8825026861259316e-02
-3.0000000000000013e+00 +9.0445349989009962e+00 +0.0000000000000000e+00 -2.9999999519491678e+00 +1.1305704878680926e-02 -1.0341598132835805e+00 -5.8826292855215304e-02
-3.1000000000000014e+00 +9.0445034813108958e+00 +0.0000000000000000e+00 -3.0999999469819302e+00 +1.1306018617222618e-02 -1.0341657768422827e+00 -5.8827546861066955e-02
-3.2000000000000015e+00 +9.0444709302704780e+00 +0.0000000000000000e+00 -3.1999999416836338e+00 +1.1306335137183566e-02 -1.0341718056008262e+00 -5.8828788493637409e-02
-3.3000000000000016e+00 +9.0444373457737228e+00 +0.0000000000000000e+00 -3.2999999360435965e+00 +1.1306654428976869e-02 -1.0341779021551500e+00 -5.8830017367739830e-02
-3.4000000000000017e+00 +9.0444027278145409e+00 +0.0000000000000000e+00 -3.3999999300511359e+00 +1.1306976483098542e-02 -1.0341840691020854e+00 -5.8831233098177241e-02
-3.5000000000000018e+00 +9.0443670763867736e+00 +0.0000000000000000e+00 -3.4999999236955692e+00 +1.1307301290133284e-02 -1.0341903090394200e+00 -5.8832435299742324e-02
-3.6000000000000019e+00 +9.0443303914841877e+00 +0.0000000000000000e+00 -3.5999999169662136e+00 +1.1307628805034506e-02 -1.0341966227872810e+00 -5.8833623759358362e-02
-3.7000000000000020e+00 +9.0442926731004789e+00 +0.0000000000000000e+00 -3.6999999098523859e+00 +1.1307958839910294e-02 -1.0342030040517942e+00 -5.8834798952520417e-02
-3.8000000000000020e+00 +9.0442539212292754e+00 +0.0000000000000000e+00 -3.7999999023434028e+00 +1.1308291171129305e-02 -1.0342094447606338e+00 -5.8835961526900585e-02
-3.9000000000000021e+00 +9.0442141358641450e+00 +0.0000000000000000e+00 -3.8999998944285812e+00 +1.1308625575033773e-02 -1.0342159368416350e+00 -5.8837112130212643e-02
-4.0000000000000018e+00 +9.0441733169986058e+00 +0.0000000000000000e+00 -3.9999998860972368e+00 +1.1308961827936698e-02 -1.0342224722228048e+00 -5.8838251410215557e-02
-4.1000000000000014e+00 +9.0441314646261315e+00 +0.0000000000000000e+00 -4.0999998773386856e+00 +1.1309299706118955e-02 -1.0342290428323153e+00 -5.8839380014716301e-02
-4.2000000000000011e+00 +9.0440885787401619e+00 +0.0000000000000000e+00 -4.1999998681422444e+00 +1.1309638985826468e-02 -1.0342356405985087e+00 -5.8840498591573059e-02
-4.3000000000000007e+00 +9.0440446593341086e+00 +0.0000000000000000e+00 -4.2999998584972277e+00 +1.1309979443267375e-02 -1.0342422574498980e+00 -5.8841607788698291e-02
-4.4000000000000004e+00 +9.0439997064013653e+00 +0.0000000000000000e+00 -4.3999998483929517e+00 +1.1310320854609162e-02 -1.0342488853151672e+00 -5.8842708254061842e-02
-4.5000000000000000e+00 +9.0439537199353133e+00 +0.0000000000000000e+00 -4.4999998378187307e+00 +1.1310662995975810e-02 -1.0342555161231732e+00 -5.8843800635693985e-02
-4.5999999999999996e+00 +9.0439066999293320e+00 +0.0000000000000000e+00 -4.5999998267638800e+00 +1.1311005643444968e-02 -1.0342621418029467e+00 -5.8844885581688600e-02
-4.6999999999999993e+00 +9.0438586463768065e+00 +0.0000000000000000e+00 -4.6999998152177147e+00 +1.1311348573045093e-02 -1.0342687542836930e+00 -5.8845963740206113e-02
-4.7999999999999989e+00 +9.0438095592711338e+00 +0.0000000000000000e+00 -4.7999998031695492e+00 +1.1311691560752615e-02 -1.0342753454947946e+00 -5.8847035759476821e-02
-4.8999999999999986e+00 +9.0437594386057345e+00 +0.0000000000000000e+00 -4.8999997906086978e+00 +1.1312034382489074e-02 -1.0342819073658100e+00 -5.8848102287803711e-02
-4.9999999999999982e+00 +9.0437082843740555e+00 +0.0000000000000000e+00 -4.9999997775244749e+00 +1.1312376814118284e-02 -1.0342884318264767e+00 -5.8849163973565710e-02
-5.0999999999999979e+00 +9.0436560965695847e+00 +0.0000000000000000e+00 -5.0999997639061938e+00 +1.1312718631443496e-02 -1.0342949108067114e+00 -5.8850221465220724e-02
-5.1999999999999975e+00 +9.0436028751858526e+00 +0.0000000000000000e+00 -5.1999997497431689e+00 +1.1313059610204540e-02 -1.0343013362366114e+00 -5.8851275411308690e-02
-5.2999999999999972e+00 +9.0435486202164466e+00 +0.0000000000000000e+00 -5.2999997350247146e+00 +1.1313399526074984e-02 -1.0343077000464560e+00 -5.8852326460454754e-02
-5.3999999999999968e+00 +9.0434933316550108e+00 +0.0000000000000000e+00 -5.3999997197401433e+00 +1.1313738154659286e-02 -1.0343139941667066e+00 -5.8853375261372132e-02
-5.4999999999999964e+00 +9.0434370094952641e+00 +0.0000000000000000e+00 -5.4999997038787685e+00 +1.1314075271489967e-02 -1.0343202105280098e+00 -5.8854422462865486e-02
-5.5999999999999961e+00 +9.0433796537310016e+00 +0.0000000000000000e+00 -5.5999996874299036e+00 +1.1314410732905966e-02 -1.0343263421971018e+00 -5.8855468553630517e-02
-5.6999999999999957e+00 +9.0433212643561003e+00 +0.0000000000000000e+00 -5.6999996703828613e+00 +1.1314744718742867e-02 -1.0343323867844822e+00 -5.8856513381609396e-02
-5.7999999999999954e+00 +9.0432618413645276e+00 +0.0000000000000000e+00 -5.7999996527269548e+00 +1.1315077489769069e-02 -1.0343383430365081e+00 -5.8857556634547281e-02
-5.8999999999999950e+00 +9.0432013847503363e+00 +0.0000000000000000e+00 -5.8999996344514969e+00 +1.1315409306817743e-02 -1.0343442096994335e+00 -5.8858598000189249e-02
-5.9999999999999947e+00 +9.0431398945076715e+00 +0.0000000000000000e+00 -5.9999996155458000e+00 +1.1315740430790170e-02 -1.0343499855193996e+00 -5.8859637166279004e-02
-6.0999999999999943e+00 +9.0430773706307672e+00 +0.0000000000000000e+00 -6.0999995959991766e+00 +1.1316071122659059e-02 -1.0343556692424236e+00 -5.8860673820557680e-02
-6.1999999999999940e+00 +9.0430138131139515e+00 +0.0000000000000000e+00 -6.1999995758009394e+00 +1.1316401643471885e-02 -1.0343612596143874e+00 -5.8861707650762679e-02
-6.2999999999999936e+00 +9.0429492219516447e+00 +0.0000000000000000e+00 -6.2999995549404009e+00 +1.1316732254354197e-02 -1.0343667553810283e+00 -5.8862738344626367e-02
-6.3999999999999932e+00 +9.0428835971383617e+00 +0.0000000000000000e+00 -6.3999995334068727e+00 +1.1317063216512937e-02 -1.0343721552879264e+00 -5.8863765589874849e-02
-6.4999999999999929e+00 +9.0428169386687127e+00 +0.0000000000000000e+00 -6.4999995111896673e+00 +1.1317394791239782e-02 -1.0343774580804961e+00 -5.8864789074226806e-02
-6.5999999999999925e+00 +9.0427492465374062e+00 +0.0000000000000000e+00 -6.5999994882780966e+00 +1.1317727239914447e-02 -1.0343826625039729e+00 -5.8865808485392260e-02
-6.6999999999999922e+00 +9.0426805207392480e+00 +0.0000000000000000e+00 -6.6999994646614720e+00 +1.1318060824008026e-02 -1.0343877673034070e+00 -5.8866823511071260e-02
-6.7999999999999918e+00 +9.0426107612691453e+00 +0.0000000000000000e+00 -6.7999994403291053e+00 +1.1318395805086298e-02 -1.0343927712236467e+00 -5.8867833838952818e-02
-6.8999999999999915e+00 +9.0425399681221048e+00 +0.0000000000000000e+00 -6.8999994152703090e+00 +1.1318732444813058e-02 -1.0343976730093321e+00 -5.8868839156713565e-02
-6.9999999999999911e+00 +9.0424681412932362e+00 +0.0000000000000000e+00 -6.9999993894743939e+00 +1.1319071004953447e-02 -1.0344024714048852e+00 -5.8869839152016594e-02
-7.0999999999999908e+00 +9.0423952807777521e+00 +0.0000000000000000e+00 -7.0999993629306717e+00 +1.1319411747377255e-02 -1.0344071651544948e+00 -5.8870833512510198e-02
-7.1999999999999904e+00 +9.0423213865709702e+00 +0.0000000000000000e+00 -7.1999993356284540e+00 +1.1319754934062254e-02 -1.0344117530021120e+00 -5.8871821925826691e-02
-7.2999999999999901e+00 +9.0422464586683127e+00 +0.0000000000000000e+00 -7.2999993075570515e+00 +1.1320100827097508e-02 -1.0344162336914329e+00 -5.8872804079581190e-02
-7.3999999999999897e+00 +9.0421704970653121e+00 +0.0000000000000000e+00 -7.3999992787057769e+00 +1.1320449688686734e-02 -1.0344206059658969e+00 -5.8873779661370418e-02
-7.4999999999999893e+00 +9.0420935017576056e+00 +0.0000000000000000e+00 -7.4999992490639400e+00 +1.1320801781151558e-02 -1.0344248685686652e+00 -5.8874748358771371e-02
-7.5999999999999890e+00 +9.0420154727409425e+00 +0.0000000000000000e+00 -7.5999992186208534e+00 +1.1321157287973472e-02 -1.0344290213884184e+00 -5.8875710031959648e-02
-7.6999999999999886e+00 +9.0419364100111803e+00 +0.0000000000000000e+00 -7.6999991873658269e+00 +1.1321516076824724e-02 -1.0344330688971148e+00 -5.8876665231559863e-02
-7.7999999999999883e+00 +9.0418563135642831e+00 +0.0000000000000000e+00 -7.7999991552881722e+00 +1.1321877936314090e-02 -1.0344370167130579e+00 -5.8877614680739820e-02
-7.8999999999999879e+00 +9.0417751833963127e+00 +0.0000000000000000e+00 -7.8999991223772010e+00 +1.1322242654927338e-02 -1.0344408704551331e+00 -5.8878559102574619e-02
-7.9999999999999876e+00 +9.0416930195034269e+00 +0.0000000000000000e+00 -7.9999990886222232e+00 +1.1322610021022630e-02 -1.0344446357428252e+00 -5.8879499220043298e-02
-8.0999999999999872e+00 +9.0416098218818703e+00 +0.0000000000000000e+00 -8.0999990540125513e+00 +1.1322979822825884e-02 -1.0344483181962367e+00 -5.8880435756025563e-02
-8.1999999999999869e+00 +9.0415255905279732e+00 +0.0000000000000000e+00 -8.1999990185374951e+00 +1.1323351848426115e-02 -1.0344519234361029e+00 -5.8881369433298247e-02
-8.2999999999999865e+00 +9.0414403254381401e+00 +0.0000000000000000e+00 -8.2999989821863664e+00 +1.1323725885770861e-02 -1.0344554570838111e+00 -5.8882300974532134e-02
-8.3999999999999861e+00 +9.0413540266088503e+00 +0.0000000000000000e+00 -8.3999989449484751e+00 +1.1324101722661507e-02 -1.0344589247614169e+00 -5.8883231102288422e-02
-8.4999999999999858e+00 +9.0412666940366453e+00 +0.0000000000000000e+00 -8.4999989068131310e+00 +1.1324479146748676e-02 -1.0344623320916606e+00 -5.8884160539015497e-02
-8.5999999999999854e+00 +9.0411783277181303e+00 +0.0000000000000000e+00 -8.5999988677696475e+00 +1.1324857945527594e-02 -1.0344656846979858e+00 -5.8885090007045414e-02
-8.6999999999999851e+00 +9.0410889276499624e+00 +0.0000000000000000e+00 -8.6999988278073328e+00 +1.1325237906333465e-02 -1.0344689882045564e+00 -5.8886020228590699e-02
-8.7999999999999847e+00 +9.0409984938288499e+00 +0.0000000000000000e+00 -8.7999987869154985e+00 +1.1325618816336820e-02 -1.0344722482362723e+00 -5.8886951925740803e-02
-8.8999999999999844e+00 +9.0409070262515456e+00 +0.0000000000000000e+00 -8.8999987450834563e+00 +1.1326000462538923e-02 -1.0344754704187875e+00 -5.8887885820458875e-02
-8.9999999999999840e+00 +9.0408145249148379e+00 +0.0000000000000000e+00 -8.9999987023005161e+00 +1.1326382631767083e-02 -1.0344786603785276e+00 -5.8888822634578258e-02
-9.0999999999999837e+00 +9.0407209898155489e+00 +0.0000000000000000e+00 -9.0999986585559878e+00 +1.1326765110670082e-02 -1.0344818237427058e+00 -5.8889763089799214e-02
-9.1999999999999833e+00 +9.0406264209505256e+00 +0.0000000000000000e+00 -9.1999986138391812e+00 +1.1327147685713487e-02 -1.0344849661393403e+00 -5.8890707907685511e-02
-9.2999999999999829e+00 +9.0405308183166380e+00 +0.0000000000000000e+00 -9.2999985681394080e+00 +1.1327530143175063e-02 -1.0344880931972733e+00 -5.8891657809661026e-02
-9.3999999999999826e+00 +9.0404341819107721e+00 +0.0000000000000000e+00 -9.3999985214459763e+00 +1.1327912269140091e-02 -1.0344912105461836e+00 -5.8892613517006399e-02
-9.4999999999999822e+00 +9.0403365117298211e+00 +0.0000000000000000e+00 -9.4999984737481977e+00 +1.1328293849496776e-02 -1.0344943238166084e+00 -5.8893575750855638e-02
-9.5999999999999819e+00 +9.0402378077706853e+00 +0.0000000000000000e+00 -9.5999984250353823e+00 +1.1328674707780775e-02 -1.0344974371468383e+00 -5.8894544981892782e-02
-9.6999999999999815e+00 +9.0401380700302632e+00 +0.0000000000000000e+00 -9.6999983752968397e+00 +1.1329054818831419e-02 -1.0345005487024592e+00 -5.8895520679416030e-02
-9.7999999999999812e+00 +9.0400372985054567e+00 +0.0000000000000000e+00 -9.7999983245218800e+00 +1.1329434195425829e-02 -1.0345036551543407e+00 -5.8896502062279608e-02
-9.8999999999999808e+00 +9.0399354931931732e+00 +0.0000000000000000e+00 -9.8999982726998130e+00 +1.1329812850456136e-02 -1.0345067531716412e+00 -5.8897488349217812e-02
-9.9999999999999805e+00 +9.0398326540903273e+00 +0.0000000000000000e+00 -9.9999982198199486e+00 +1.1330190796933093e-02 -1.0345098394217502e+00 -5.8898478758842236e-02
-1.0099999999999980e+01 +9.0397287811938458e+00 +0.0000000000000000e+00 -1.0099998165871595e+01 +1.1330568047989764e-02 -1.0345129105702471e+00 -5.8899472509639866e-02
-1.0199999999999980e+01 +9.0396238745006716e+00 +0.0000000000000000e+00 -1.0199998110844064e+01 +1.1330944616885164e-02 -1.0345159632808489e+00 -5.8900468819970499e-02
-1.0299999999999979e+01 +9.0395179340077654e+00 +0.0000000000000000e+00 -1.0299998054726663e+01 +1.1331320517007927e-02 -1.0345189942153603e+00 -5.8901466908064512e-02
-1.0399999999999979e+01 +9.0394109597121108e+00 +0.0000000000000000e+00 -1.0399997997508702e+01 +1.1331695761879965e-02 -1.0345220000336268e+00 -5.8902465992020613e-02
-1.0499999999999979e+01 +9.0393029516107148e+00 +0.0000000000000000e+00 -1.0499997939179490e+01 +1.1332070365160136e-02 -1.0345249773934857e+00 -5.8903465289803454e-02
-1.0599999999999978e+01 +9.0391939097006144e+00 +0.0000000000000000e+00 -1.0599997879728337e+01 +1.1332444340647908e-02 -1.0345279229507165e+00 -5.8904464019241355e-02
-1.0699999999999978e+01 +9.0390838339788768e+00 +0.0000000000000000e+00 -1.0699997819144551e+01 +1.1332817702287007e-02 -1.0345308333589920e+00 -5.8905461398024037e-02
-1.0799999999999978e+01 +9.0389727244426066e+00 +0.0000000000000000e+00 -1.0799997757417442e+01 +1.1333190464169104e-02 -1.0345337052698291e+00 -5.8906456643700249e-02
-1.0899999999999977e+01 +9.0388605810889455e+00 +0.0000000000000000e+00 -1.0899997694536317e+01 +1.1333562640537486e-02 -1.0345365353325420e+00 -5.8907448973675586e-02
-1.0999999999999977e+01 +9.0387474039150799e+00 +0.0000000000000000e+00 -1.0999997630490489e+01 +1.1333934245790695e-02 -1.0345393201941913e+00 -5.8908437605210105e-02
-1.1099999999999977e+01 +9.0386331929182369e+00 +0.0000000000000000e+00 -1.1099997565269263e+01 +1.1334305294486233e-02 -1.0345420564995340e+00 -5.8909421755416094e-02
-1.1199999999999976e+01 +9.0385179480956950e+00 +0.0000000000000000e+00 -1.1199997498861949e+01 +1.1334675801344210e-02 -1.0345447408909791e+00 -5.8910400641255745e-02
-1.1299999999999976e+01 +9.0384016694447844e+00 +0.0000000000000000e+00 -1.1299997431257857e+01 +1.1335045781251024e-02 -1.0345473700085328e+00 -5.8911373479538912e-02
-1.1399999999999975e+01 +9.0382843569628903e+00 +0.0000000000000000e+00 -1.1399997362446296e+01 +1.1335415249263046e-02 -1.0345499404897542e+00 -5.8912339486920831e-02
-1.1499999999999975e+01 +9.0381660106474584e+00 +0.0000000000000000e+00 -1.1499997292416575e+01 +1.1335784220610268e-02 -1.0345524489697058e+00 -5.8913297879899837e-02
-1.1599999999999975e+01 +9.0380466304959928e+00 +0.0000000000000000e+00 -1.1599997221158002e+01 +1.1336152685662319e-02 -1.0345548918790473e+00 -5.8914248300842083e-02
-1.1699999999999974e+01 +9.0379262165060670e+00 +0.0000000000000000e+00 -1.1699997148659886e+01 +1.1336520534762633e-02 -1.0345572648395274e+00 -5.8915192096411627e-02
