# field on trajectory
# s[mm] rx[mm] ry[mm] rz[mm] bx[T] by[T] bz[T]
0.0000000000000000e+00 +9.1613000000000007e+00 +0.0000000000000000e+00 +0.0000000000000000e+00 +1.1069951146878589e-02 -1.0323280491597326e+00 -5.9181509746560591e-02
-1.0000000000000001e-01 +9.1612994841933517e+00 +0.0000000000000000e+00 -9.9999999998226313e-02 +1.1070076474211155e-02 -1.0323262211615689e+00 -5.9181341677980247e-02
-2.0000000000000001e-01 +9.1612979367746217e+00 +0.0000000000000000e+00 -1.9999999998581036e-01 +1.1070198860703200e-02 -1.0323243835725133e+00 -5.9181162867380351e-02
-3.0000000000000004e-01 +9.1612953577456473e+00 +0.0000000000000000e+00 -2.9999999995211002e-01 +1.1070317985509422e-02 -1.0323225387862358e+00 -5.9180973190655621e-02
-4.0000000000000002e-01 +9.1612917471082742e+00 +0.0000000000000000e+00 -3.9999999988648305e-01 +1.1070433527789813e-02 -1.0323206891959911e+00 -5.9180772523720913e-02
-5.0000000000000000e-01 +9.1612871048643481e+00 +0.0000000000000000e+00 -4.9999999977828746e-01 +1.1070545166703263e-02 -1.0323188371946710e+00 -5.9180560742509755e-02
-5.9999999999999998e-01 +9.1612814310157216e+00 +0.0000000000000000e+00 -5.9999999961688122e-01 +1.1070652581401153e-02 -1.0323169851748588e+00 -5.9180337722972889e-02
-6.9999999999999996e-01 +9.1612747255642457e+00 +0.0000000000000000e+00 -6.9999999939162239e-01 +1.1070755451020991e-02 -1.0323151355288813e+00 -5.9180103341076824e-02
-7.9999999999999993e-01 +9.1612669885117697e+00 +0.0000000000000000e+00 -7.9999999909186903e-01 +1.1070853454680021e-02 -1.0323132906488615e+00 -5.9179857472802404e-02
-8.9999999999999991e-01 +9.1612582198601373e+00 +0.0000000000000000e+00 -8.9999999870697933e-01 +1.1070946271468835e-02 -1.0323114529267747e+00 -5.9179599994143357e-02
-9.9999999999999989e-01 +9.1612484196111854e+00 +0.0000000000000000e+00 -9.9999999822631147e-01 +1.1071033580444973e-02 -1.0323096247544965e+00 -5.9179330781104829e-02
-1.0999999999999999e+00 +9.1612375877667418e+00 +0.0000000000000000e+00 -1.0999999976392238e+00 +1.1071115060626554e-02 -1.0323078085238617e+00 -5.9179049709701906e-02
-1.2000000000000000e+00 +9.1612257243286219e+00 +0.0000000000000000e+00 -1.1999999969350745e+00 +1.1071190390985881e-02 -1.0323060066267136e+00 -5.9178756655958259e-02
-1.3000000000000000e+00 +9.1612128292986288e+00 +0.0000000000000000e+00 -1.2999999961032220e+00 +1.1071259250443052e-02 -1.0323042214549587e+00 -5.9178451495904623e-02
-1.4000000000000001e+00 +9.1611989026785476e+00 +0.0000000000000000e+00 -1.3999999951330249e+00 +1.1071321317859565e-02 -1.0323024554006177e+00 -5.9178134105577360e-02
-1.5000000000000002e+00 +9.1611839444701424e+00 +0.0000000000000000e+00 -1.4999999940138413e+00 +1.1071376272031957e-02 -1.0323007108558830e+00 -5.9177804361017057e-02
-1.6000000000000003e+00 +9.1611679546751610e+00 +0.0000000000000000e+00 -1.5999999927350301e+00 +1.1071423996763289e-02 -1.0322989863828496e+00 -5.9177462285691276e-02
-1.7000000000000004e+00 +9.1611509332953283e+00 +0.0000000000000000e+00 -1.6999999912859498e+00 +1.1071465196121138e-02 -1.0322972652227516e+00 -5.9177108492776534e-02
-1.8000000000000005e+00 +9.1611328803323673e+00 +0.0000000000000000e+00 -1.7999999896559591e+00 +1.1071500779256810e-02 -1.0322955267872271e+00 -5.9176743742903264e-02
-1.9000000000000006e+00 +9.1611137957880189e+00 +0.0000000000000000e+00 -1.8999999878344165e+00 +1.1071531655341726e-02 -1.0322937504887846e+00 -5.9176368796737114e-02
-2.0000000000000004e+00 +9.1610936796640630e+00 +0.0000000000000000e+00 -1.9999999858106807e+00 +1.1071558733574866e-02 -1.0322919157409145e+00 -5.9175984414982015e-02
-2.1000000000000005e+00 +9.1610725319623363e+00 +0.0000000000000000e+00 -2.0999999835741110e+00 +1.1071582923190198e-02 -1.0322900019582049e+00 -5.9175591358383295e-02
-2.2000000000000006e+00 +9.1610503526847555e+00 +0.0000000000000000e+00 -2.1999999811140656e+00 +1.1071605133464136e-02 -1.0322879885564551e+00 -5.9175190387730808e-02
-2.3000000000000007e+00 +9.1610271418333369e+00 +0.0000000000000000e+00 -2.2999999784199039e+00 +1.1071626273722962e-02 -1.0322858549527880e+00 -5.9174782263862198e-02
-2.4000000000000008e+00 +9.1610028994102155e+00 +0.0000000000000000e+00 -2.3999999754809851e+00 +1.1071647253350294e-02 -1.0322835805657682e+00 -5.9174367747665886e-02
-2.5000000000000009e+00 +9.1609776254176705e+00 +0.0000000000000000e+00 -2.4999999722866679e+00 +1.1071668981794517e-02 -1.0322811448155118e+00 -5.9173947600084320e-02
-2.6000000000000010e+00 +9.1609513198581389e+00 +0.0000000000000000e+00 -2.5999999688263120e+00 +1.1071692368576221e-02 -1.0322785271238029e+00 -5.9173522582117048e-02
-2.7000000000000011e+00 +9.1609239827342410e+00 +0.0000000000000000e+00 -2.6999999650892770e+00 +1.1071718323295652e-02 -1.0322757069142072e+00 -5.9173093454823911e-02
-2.8000000000000012e+00 +9.1608956140487994e+00 +0.0000000000000000e+00 -2.7999999610649220e+00 +1.1071747755640170e-02 -1.0322726636121866e+00 -5.9172660979328183e-02
-2.9000000000000012e+00 +9.1608662138048604e+00 +0.0000000000000000e+00 -2.8999999567426067e+00 +1.1071781575391673e-02 -1.0322693766452116e+00 -5.9172225916819650e-02
-3.0000000000000013e+00 +9.1608357820057140e+00 +0.0000000000000000e+00 -2.9999999521116911e+00 +1.1071820692434042e-02 -1.0322658254428785e+00 -5.9171789028557811e-02
-3.1000000000000014e+00 +9.1608043186549146e+00 +0.0000000000000000e+00 -3.0999999471615354e+00 +1.1071866016760610e-02 -1.0322619894370204e+00 -5.9171351075875046e-02
-3.2000000000000015e+00 +9.1607718237562992e+00 +0.0000000000000000e+00 -3.1999999418814995e+00 +1.1071918458481595e-02 -1.0322578480618234e+00 -5.9170912820179639e-02
-3.3000000000000016e+00 +9.1607382973140119e+00 +0.0000000000000000e+00 -3.2999999362609445e+00 +1.1071978927831525e-02 -1.0322533807539411e+00 -5.9170475022959024e-02
-3.4000000000000017e+00 +9.1607037393325221e+00 +0.0000000000000000e+00 -3.3999999302892303e+00 +1.1072048335176735e-02 -1.0322485669526076e+00 -5.9170038445782891e-02
-3.5000000000000018e+00 +9.1606681498166473e+00 +0.0000000000000000e+00 -3.4999999239557185e+00 +1.1072127591022760e-02 -1.0322433860997511e+00 -5.9169603850306292e-02
-3.6000000000000019e+00 +9.1606315287715674e+00 +0.0000000000000000e+00 -3.5999999172497703e+00 +1.1072217249983843e-02 -1.0322378272463526e+00 -5.9169171807300976e-02
-3.7000000000000020e+00 +9.1605938762028405e+00 +0.0000000000000000e+00 -3.6999999101607468e+00 +1.1072316442598661e-02 -1.0322319178698249e+00 -5.9168742123675823e-02
-3.8000000000000020e+00 +9.1605551921163713e+00 +0.0000000000000000e+00 -3.7999999026780102e+00 +1.1072423943316274e-02 -1.0322256950525190e+00 -5.9168314415277132e-02
-3.9000000000000021e+00 +9.1605154765183805e+00 +0.0000000000000000e+00 -3.8999998947909229e+00 +1.1072538526510023e-02 -1.0322191958748668e+00 -5.9167888297835640e-02
-4.0000000000000018e+00 +9.1604747294153626e+00 +0.0000000000000000e+00 -3.9999998864888471e+00 +1.1072658966469692e-02 -1.0322124574151776e+00 -5.9167463386956193e-02
-4.1000000000000014e+00 +9.1604329508140534e+00 +0.0000000000000000e+00 -4.0999998777611459e+00 +1.1072784037393662e-02 -1.0322055167494371e+00 -5.9167039298107703e-02
-4.2000000000000011e+00 +9.1603901407213915e+00 +0.0000000000000000e+00 -4.1999998685971818e+00 +1.1072912513381052e-02 -1.0321984109510998e+00 -5.9166615646612832e-02
-4.3000000000000007e+00 +9.1603462991444768e+00 +0.0000000000000000e+00 -4.2999998589863182e+00 +1.1073043168423892e-02 -1.0321911770908918e+00 -5.9166192047637817e-02
-4.4000000000000004e+00 +9.1603014260905411e+00 +0.0000000000000000e+00 -4.3999998489179193e+00 +1.1073174776399238e-02 -1.0321838522366051e+00 -5.9165768116182280e-02
-4.5000000000000000e+00 +9.1602555215669064e+00 +0.0000000000000000e+00 -4.4999998383813491e+00 +1.1073306111061353e-02 -1.0321764734528935e+00 -5.9165343467068997e-02
-4.5999999999999996e+00 +9.1602085855809463e+00 +0.0000000000000000e+00 -4.5999998273659717e+00 +1.1073435946033836e-02 -1.0321690778010710e+00 -5.9164917714933700e-02
-4.6999999999999993e+00 +9.1601606181400559e+00 +0.0000000000000000e+00 -4.6999998158611511e+00 +1.1073563054801804e-02 -1.0321617023389082e+00 -5.9164490474214911e-02
-4.7999999999999989e+00 +9.1601116192516052e+00 +0.0000000000000000e+00 -4.7999998038562515e+00 +1.1073686210704009e-02 -1.0321543841204301e+00 -5.9164061359143656e-02
-4.8999999999999986e+00 +9.1600615889229111e+00 +0.0000000000000000e+00 -4.8999997913406386e+00 +1.1073804186925001e-02 -1.0321471601957106e+00 -5.9163629983733299e-02
-4.9999999999999982e+00 +9.1600105271611927e+00 +0.0000000000000000e+00 -4.9999997783036765e+00 +1.1073915756487276e-02 -1.0321400676106718e+00 -5.9163195961769346e-02
-5.0999999999999979e+00 +9.1599584339735411e+00 +0.0000000000000000e+00 -5.0999997647347310e+00 +1.1074019692243448e-02 -1.0321331434068783e+00 -5.9162758906799208e-02
-5.1999999999999975e+00 +9.1599053093668790e+00 +0.0000000000000000e+00 -5.1999997506231672e+00 +1.1074114766868353e-02 -1.0321264246213366e+00 -5.9162318432122010e-02
-5.2999999999999972e+00 +9.1598511533479225e+00 +0.0000000000000000e+00 -5.2999997359583508e+00 +1.1074199752851255e-02 -1.0321199482862891e+00 -5.9161874150778386e-02
-5.3999999999999968e+00 +9.1597959659231467e+00 +0.0000000000000000e+00 -5.3999997207296468e+00 +1.1074273422487946e-02 -1.0321137514290106e+00 -5.9161425675540218e-02
-5.4999999999999964e+00 +9.1597397470987456e+00 +0.0000000000000000e+00 -5.4999997049264211e+00 +1.1074334547872929e-02 -1.0321078710716092e+00 -5.9160972618900506e-02
-5.5999999999999961e+00 +9.1596824968805990e+00 +0.0000000000000000e+00 -5.5999996885380394e+00 +1.1074382312870426e-02 -1.0321023363467789e+00 -5.9160514685874716e-02
-5.6999999999999957e+00 +9.1596242152742455e+00 +0.0000000000000000e+00 -5.6999996715538668e+00 +1.1074417549161121e-02 -1.0320971448470797e+00 -5.9160051952544278e-02
-5.7999999999999954e+00 +9.1595649022848793e+00 +0.0000000000000000e+00 -5.7999996539632681e+00 +1.1074441500477337e-02 -1.0320922862803419e+00 -5.9159584587818670e-02
-5.8999999999999950e+00 +9.1595045579173640e+00 +0.0000000000000000e+00 -5.8999996357556102e+00 +1.1074455410647898e-02 -1.0320877503543400e+00 -5.9159112760655455e-02
-5.9999999999999947e+00 +9.1594431821762381e+00 +0.0000000000000000e+00 -5.9999996169202570e+00 +1.1074460523603970e-02 -1.0320835267768362e+00 -5.9158636640065335e-02
-6.0999999999999943e+00 +9.1593807750657295e+00 +0.0000000000000000e+00 -6.0999995974465744e+00 +1.1074458083384938e-02 -1.0320796052556243e+00 -5.9158156395117262e-02
-6.1999999999999940e+00 +9.1593173365897655e+00 +0.0000000000000000e+00 -6.1999995773239283e+00 +1.1074449334144271e-02 -1.0320759754985731e+00 -5.9157672194943632e-02
-6.2999999999999936e+00 +9.1592528667519808e+00 +0.0000000000000000e+00 -6.2999995565416826e+00 +1.1074435520155355e-02 -1.0320726272136711e+00 -5.9157184208745286e-02
-6.3999999999999932e+00 +9.1591873655557290e+00 +0.0000000000000000e+00 -6.3999995350892034e+00 +1.1074417885817390e-02 -1.0320695501090686e+00 -5.9156692605796785e-02
-6.4999999999999929e+00 +9.1591208330040921e+00 +0.0000000000000000e+00 -6.4999995129558554e+00 +1.1074397675661244e-02 -1.0320667338931253e+00 -5.9156197555451470e-02
-6.5999999999999925e+00 +9.1590532690998927e+00 +0.0000000000000000e+00 -6.5999994901310037e+00 +1.1074376134355289e-02 -1.0320641682744491e+00 -5.9155699227146481e-02
-6.6999999999999922e+00 +9.1589846738457030e+00 +0.0000000000000000e+00 -6.6999994666040132e+00 +1.1074354506711296e-02 -1.0320618429619448e+00 -5.9155197790408121e-02
-6.7999999999999918e+00 +9.1589150472438554e+00 +0.0000000000000000e+00 -6.7999994423642489e+00 +1.1074334037690264e-02 -1.0320597476648541e+00 -5.9154693414856699e-02
-6.8999999999999915e+00 +9.1588443892964513e+00 +0.0000000000000000e+00 -6.8999994174010748e+00 +1.1074315972408310e-02 -1.0320578720928031e+00 -5.9154186270211941e-02
-6.9999999999999911e+00 +9.1587727000053736e+00 +0.0000000000000000e+00 -6.9999993917038559e+00 +1.1074301556142498e-02 -1.0320562059558431e+00 -5.9153676526297966e-02
-7.0999999999999908e+00 +9.1586999793722956e+00 +0.0000000000000000e+00 -7.0999993652619571e+00 +1.1074292034336727e-02 -1.0320547389644976e+00 -5.9153164353048376e-02
-7.1999999999999904e+00 +9.1586262273986918e+00 +0.0000000000000000e+00 -7.1999993380647425e+00 +1.1074288652607574e-02 -1.0320534608298026e+00 -5.9152649920511544e-02
-7.2999999999999901e+00 +9.1585514440858482e+00 +0.0000000000000000e+00 -7.2999993101015761e+00 +1.1074292656750140e-02 -1.0320523612633539e+00 -5.9152133398855597e-02
-7.3999999999999897e+00 +9.1584756294348733e+00 +0.0000000000000000e+00 -7.3999992813618221e+00 +1.1074305292743940e-02 -1.0320514299773504e+00 -5.9151614958373677e-02
-7.4999999999999893e+00 +9.1583987834467049e+00 +0.0000000000000000e+00 -7.4999992518348453e+00 +1.1074327806758738e-02 -1.0320506566846372e+00 -5.9151094769488967e-02
-7.5999999999999890e+00 +9.1583209061221265e+00 +0.0000000000000000e+00 -7.5999992215100090e+00 +1.1074361057910681e-02 -1.0320500309904657e+00 -5.9150573080104255e-02
-7.6999999999999886e+00 +9.1582419974617721e+00 +0.0000000000000000e+00 -7.6999991903766771e+00 +1.1074404356376797e-02 -1.0320495420685762e+00 -5.9150050447642016e-02
-7.7999999999999883e+00 +9.1581620574661393e+00 +0.0000000000000000e+00 -7.7999991584242139e+00 +1.1074456624974671e-02 -1.0320491789877080e+00 -5.9149527507003752e-02
-7.8999999999999879e+00 +9.1580810861355992e+00 +0.0000000000000000e+00 -7.8999991256419833e+00 +1.1074516786398573e-02 -1.0320489308202401e+00 -5.9149004893225748e-02
-7.9999999999999876e+00 +9.1579990834704113e+00 +0.0000000000000000e+00 -7.9999990920193493e+00 +1.1074583763214787e-02 -1.0320487866423236e+00 -5.9148483241483446e-02
-8.0999999999999872e+00 +9.1579160494707281e+00 +0.0000000000000000e+00 -8.0999990575456753e+00 +1.1074656477856930e-02 -1.0320487355340131e+00 -5.9147963187096260e-02
-8.1999999999999869e+00 +9.1578319841366103e+00 +0.0000000000000000e+00 -8.1999990222103243e+00 +1.1074733852621338e-02 -1.0320487665794018e+00 -5.9147445365532091e-02
-8.2999999999999865e+00 +9.1577468874680381e+00 +0.0000000000000000e+00 -8.2999989860026595e+00 +1.1074814809662341e-02 -1.0320488688667495e+00 -5.9146930412411924e-02
-8.3999999999999861e+00 +9.1576607594649175e+00 +0.0000000000000000e+00 -8.3999989489120441e+00 +1.1074898270987633e-02 -1.0320490314886182e+00 -5.9146418963514420e-02
-8.4999999999999858e+00 +9.1575736001270975e+00 +0.0000000000000000e+00 -8.4999989109278431e+00 +1.1074983158453625e-02 -1.0320492435420023e+00 -5.9145911654780607e-02
-8.5999999999999854e+00 +9.1574854094543756e+00 +0.0000000000000000e+00 -8.5999988720394178e+00 +1.1075068393760745e-02 -1.0320494941284637e+00 -5.9145409122318408e-02
-8.6999999999999851e+00 +9.1573961874465120e+00 +0.0000000000000000e+00 -8.6999988322361332e+00 +1.1075152898448798e-02 -1.0320497723542605e+00 -5.9144912002407228e-02
-8.7999999999999847e+00 +9.1573059341032383e+00 +0.0000000000000000e+00 -8.7999987915073525e+00 +1.1075235593892313e-02 -1.0320500673304820e+00 -5.9144420931502628e-02
-8.8999999999999844e+00 +9.1572146494242723e+00 +0.0000000000000000e+00 -8.8999987498424371e+00 +1.1075315401295853e-02 -1.0320503681731799e+00 -5.9143936546240811e-02
-8.9999999999999840e+00 +9.1571223334093226e+00 +0.0000000000000000e+00 -8.9999987072307519e+00 +1.1075391241689389e-02 -1.0320506640035028e+00 -5.9143459483443364e-02
-9.0999999999999837e+00 +9.1570289860581031e+00 +0.0000000000000000e+00 -9.0999986636616601e+00 +1.1075462035923618e-02 -1.0320509439478236e+00 -5.9142990380121711e-02
-9.1999999999999833e+00 +9.1569346073703457e+00 +0.0000000000000000e+00 -9.1999986191245231e+00 +1.1075526704665316e-02 -1.0320511971378796e+00 -5.9142529873481821e-02
-9.2999999999999829e+00 +9.1568391973458088e+00 +0.0000000000000000e+00 -9.2999985736087059e+00 +1.1075584168392674e-02 -1.0320514127108991e+00 -5.9142078600928717e-02
-9.3999999999999826e+00 +9.1567427559842880e+00 +0.0000000000000000e+00 -9.3999985271035715e+00 +1.1075633347390630e-02 -1.0320515798097343e+00 -5.9141637200071089e-02
-9.4999999999999822e+00 +9.1566452832856271e+00 +0.0000000000000000e+00 -9.4999984795984815e+00 +1.1075673161746241e-02 -1.0320516875829979e+00 -5.9141206308725956e-02
-9.5999999999999819e+00 +9.1565467792497302e+00 +0.0000000000000000e+00 -9.5999984310828008e+00 +1.1075702868113045e-02 -1.0320517272885357e+00 -5.9140786316980790e-02
-9.6999999999999815e+00 +9.1564472438765687e+00 +0.0000000000000000e+00 -9.6999983815458926e+00 +1.1075723070194122e-02 -1.0320516986010853e+00 -5.9140376623196163e-02
-9.7999999999999812e+00 +9.1563466771661801e+00 +0.0000000000000000e+00 -9.7999983309771199e+00 +1.1075734708612004e-02 -1.0320516032970213e+00 -5.9139976377627759e-02
-9.8999999999999808e+00 +9.1562450791186709e+00 +0.0000000000000000e+00 -9.8999982793658479e+00 +1.1075738724142813e-02 -1.0320514431500158e+00 -5.9139584730353946e-02
-9.9999999999999805e+00 +9.1561424497342117e+00 +0.0000000000000000e+00 -9.9999982267014378e+00 +1.1075736057720829e-02 -1.0320512199309468e+00 -5.9139200831270285e-02
-1.0099999999999980e+01 +9.1560387890130350e+00 +0.0000000000000000e+00 -1.0099998172973255e+01 +1.1075727650443068e-02 -1.0320509354078038e+00 -5.9138823830084050e-02
-1.0199999999999980e+01 +9.1559340969554377e+00 +0.0000000000000000e+00 -1.0199998118170662e+01 +1.1075714443573888e-02 -1.0320505913455982e+00 -5.9138452876308881e-02
-1.0299999999999979e+01 +9.1558283735617749e+00 +0.0000000000000000e+00 -1.0299998062283024e+01 +1.1075697378549536e-02 -1.0320501895062681e+00 -5.9138087119259157e-02
-1.0399999999999979e+01 +9.1557216188324588e+00 +0.0000000000000000e+00 -1.0399998005299704e+01 +1.1075677396982756e-02 -1.0320497316485897e+00 -5.9137725708044681e-02
-1.0499999999999979e+01 +9.1556138327679584e+00 +0.0000000000000000e+00 -1.0499997947210066e+01 +1.1075655440667369e-02 -1.0320492195280815e+00 -5.9137367791565233e-02
-1.0599999999999978e+01 +9.1555050153687958e+00 +0.0000000000000000e+00 -1.0599997888003474e+01 +1.1075632451582844e-02 -1.0320486548969134e+00 -5.9137012518505033e-02
-1.0699999999999978e+01 +9.1553951666355466e+00 +0.0000000000000000e+00 -1.0699997827669291e+01 +1.1075609371898890e-02 -1.0320480395038163e+00 -5.9136659037327413e-02
-1.0799999999999978e+01 +9.1552842865688380e+00 +0.0000000000000000e+00 -1.0799997766196883e+01 +1.1075587143980015e-02 -1.0320473750939863e+00 -5.9136306496269275e-02
-1.0899999999999977e+01 +9.1551723751693448e+00 +0.0000000000000000e+00 -1.0899997703575613e+01 +1.1075566710390138e-02 -1.0320466634089955e+00 -5.9135954043335666e-02
-1.0999999999999977e+01 +9.1550594324377919e+00 +0.0000000000000000e+00 -1.0999997639794847e+01 +1.1075549013897136e-02 -1.0320459061866982e+00 -5.9135600826294432e-02
-1.1099999999999977e+01 +9.1549454583749466e+00 +0.0000000000000000e+00 -1.1099997574843947e+01 +1.1075534997477460e-02 -1.0320451051611406e+00 -5.9135245992670685e-02
-1.1199999999999976e+01 +9.1548304529816207e+00 +0.0000000000000000e+00 -1.1199997508712279e+01 +1.1075525604320666e-02 -1.0320442620624661e+00 -5.9134888689741420e-02
-1.1299999999999976e+01 +9.1547144162586687e+00 +0.0000000000000000e+00 -1.1299997441389207e+01 +1.1075521777834042e-02 -1.0320433786168250e+00 -5.9134528064530061e-02
-1.1399999999999975e+01 +9.1545973482069876e+00 +0.0000000000000000e+00 -1.1399997372864098e+01 +1.1075524461647154e-02 -1.0320424565462818e+00 -5.9134163263801061e-02
-1.1499999999999975e+01 +9.1544792488275100e+00 +0.0000000000000000e+00 -1.1499997303126314e+01 +1.1075534599616436e-02 -1.0320414975687233e+00 -5.9133793434054421e-02
-1.1599999999999975e+01 +9.1543601181212058e+00 +0.0000000000000000e+00 -1.1599997232165219e+01 +1.1075552797646319e-02 -1.0320405039771670e+00 -5.9133418018823401e-02
-1.1699999999999974e+01 +9.1542399560890804e+00 +0.0000000000000000e+00 -1.1699997159970179e+01 +1.1075578308924829e-02 -1.0320394803807047e+00 -5.9133037650824956e-02
