# field on trajectory
# s[mm] rx[mm] ry[mm] rz[mm] bx[T] by[T] bz[T]
0.0000000000000000e+00 +9.1476323485342608e+00 +0.0000000000000000e+00 +0.0000000000000000e+00 +2.8968107240459604e-03 -5.1447740762349994e-02 +2.0753576144517561e-04
1.0000000000000001e-01 +9.1476318316365202e+00 +0.0000000000000000e+00 +9.9999999998218805e-02 +2.8967740636503948e-03 -5.1447758262723908e-02 +2.0754092266822571e-04
2.0000000000000001e-01 +9.1476302809427192e+00 +0.0000000000000000e+00 +1.9999999998574999e-01 +2.8967378912186539e-03 -5.1447775270549001e-02 +2.0754735367104943e-04
2.9999999999999999e-01 +9.1476276964536503e+00 +0.0000000000000000e+00 +2.9999999995190701e-01 +2.8967022377452676e-03 -5.1447791945400244e-02 +2.0755500278848166e-04
4.0000000000000002e-01 +9.1476240781675404e+00 +0.0000000000000000e+00 +3.9999999988600199e-01 +2.8966671342287790e-03 -5.1447808446860782e-02 +2.0756381835466343e-04
5.0000000000000000e-01 +9.1476194260861501e+00 +0.0000000000000000e+00 +4.9999999977734699e-01 +2.8966326116711114e-03 -5.1447824934519625e-02 +2.0757374870267089e-04
5.9999999999999998e-01 +9.1476137402094899e+00 +0.0000000000000000e+00 +5.9999999961525596e-01 +2.8965987010770174e-03 -5.1447841567970533e-02 +2.0758474216416825e-04
6.9999999999999996e-01 +9.1476070205357907e+00 +0.0000000000000000e+00 +6.9999999938904001e-01 +2.8965654334534956e-03 -5.1447858506810364e-02 +2.0759674706905012e-04
8.0000000000000004e-01 +9.1475992670650292e+00 +0.0000000000000000e+00 +7.9999999908801400e-01 +2.8965328398091730e-03 -5.1447875910636903e-02 +2.0760971174507497e-04
9.0000000000000002e-01 +9.1475904798007797e+00 +0.0000000000000000e+00 +8.9999999870148795e-01 +2.8965009511537011e-03 -5.1447893939047036e-02 +2.0762358451750315e-04
1.0000000000000000e+00 +9.1475806587394892e+00 +0.0000000000000000e+00 +9.9999999821877705e-01 +2.8964697984972519e-03 -5.1447912751636231e-02 +2.0763831370876248e-04
1.1000000000000001e+00 +9.1475698038829201e+00 +0.0000000000000000e+00 +1.0999999976291901e+00 +2.8964394128498379e-03 -5.1447932507995460e-02 +2.0765384763806206e-04
1.2000000000000000e+00 +9.1475579152292994e+00 +0.0000000000000000e+00 +1.1999999969220501e+00 +2.8964098252207819e-03 -5.1447953367710457e-02 +2.0767013462105410e-04
1.3000000000000000e+00 +9.1475449927804107e+00 +0.0000000000000000e+00 +1.2999999960866500e+00 +2.8963810666180877e-03 -5.1447975490359343e-02 +2.0768712296945959e-04
1.3999999999999999e+00 +9.1475310365362503e+00 +0.0000000000000000e+00 +1.3999999951123201e+00 +2.8963531680478824e-03 -5.1447999035511366e-02 +2.0770476099072198e-04
1.5000000000000000e+00 +9.1475160464950402e+00 +0.0000000000000000e+00 +1.4999999939883699e+00 +2.8963261605138317e-03 -5.1448024162725377e-02 +2.0772299698764915e-04
1.6000000000000001e+00 +9.1475000226585603e+00 +0.0000000000000000e+00 +1.5999999927041100e+00 +2.8963000750165087e-03 -5.1448051031547350e-02 +2.0774177925804275e-04
1.7000000000000000e+00 +9.1474829650268106e+00 +0.0000000000000000e+00 +1.6999999912488499e+00 +2.8962749425528547e-03 -5.1448079801509554e-02 +2.0776105609435273e-04
1.8000000000000000e+00 +9.1474648735980093e+00 +0.0000000000000000e+00 +1.7999999896119101e+00 +2.8962507941155784e-03 -5.1448110632128556e-02 +2.0778077578331833e-04
1.8999999999999999e+00 +9.1474457483739400e+00 +0.0000000000000000e+00 +1.8999999877825899e+00 +2.8962276606925379e-03 -5.1448143682903132e-02 +2.0780088660559819e-04
2.0000000000000000e+00 +9.1474255893528191e+00 +0.0000000000000000e+00 +1.9999999857502100e+00 +2.8962055732661982e-03 -5.1448179113313369e-02 +2.0782133683542833e-04
2.1000000000000001e+00 +9.1474043965364302e+00 +0.0000000000000000e+00 +2.0999999835040901e+00 +2.8961845583115628e-03 -5.1448217041307073e-02 +2.0784208434598256e-04
2.2000000000000002e+00 +9.1473821699247697e+00 +0.0000000000000000e+00 +2.1999999810335300e+00 +2.8961646242932600e-03 -5.1448257418772805e-02 +2.0786312542644280e-04
2.2999999999999998e+00 +9.1473589095160595e+00 +0.0000000000000000e+00 +2.2999999783278602e+00 +2.8961457751729806e-03 -5.1448300156084523e-02 +2.0788446596479979e-04
2.3999999999999999e+00 +9.1473346153120794e+00 +0.0000000000000000e+00 +2.3999999753763701e+00 +2.8961280149114119e-03 -5.1448345163614385e-02 +2.0790611184185205e-04
2.5000000000000000e+00 +9.1473092873128206e+00 +0.0000000000000000e+00 +2.4999999721683901e+00 +2.8961113474683716e-03 -5.1448392351734103e-02 +2.0792806893092815e-04
2.6000000000000001e+00 +9.1472829255165191e+00 +0.0000000000000000e+00 +2.5999999686932198e+00 +2.8960957768028972e-03 -5.1448441630815696e-02 +2.0795034309759700e-04
2.7000000000000002e+00 +9.1472555299249496e+00 +0.0000000000000000e+00 +2.6999999649401798e+00 +2.8960813068733006e-03 -5.1448492911231658e-02 +2.0797294019936460e-04
2.7999999999999998e+00 +9.1472271005398795e+00 +0.0000000000000000e+00 +2.7999999608985902e+00 +2.8960679416372807e-03 -5.1448546103356051e-02 +2.0799586608539274e-04
2.8999999999999999e+00 +9.1471976373559905e+00 +0.0000000000000000e+00 +2.8999999565577501e+00 +2.8960556850520739e-03 -5.1448601117566210e-02 +2.0801912659622579e-04
3.0000000000000000e+00 +9.1471671403768209e+00 +0.0000000000000000e+00 +2.9999999519069700e+00 +2.8960445410744222e-03 -5.1448657864241520e-02 +2.0804272756346219e-04
3.1000000000000001e+00 +9.1471356096023904e+00 +0.0000000000000000e+00 +3.0999999469355801e+00 +2.8960345136607606e-03 -5.1448716253765736e-02 +2.0806667480949444e-04
3.2000000000000002e+00 +9.1471030450308994e+00 +0.0000000000000000e+00 +3.1999999416328699e+00 +2.8960256067672883e-03 -5.1448776196527428e-02 +2.0809097414721444e-04
3.2999999999999998e+00 +9.1470694466641493e+00 +0.0000000000000000e+00 +3.2999999359881800e+00 +2.8960178243500299e-03 -5.1448837602920169e-02 +2.0811563137971124e-04
3.3999999999999999e+00 +9.1470348145021205e+00 +0.0000000000000000e+00 +3.3999999299908001e+00 +2.8960111703649613e-03 -5.1448900383343939e-02 +2.0814065229999331e-04
3.5000000000000000e+00 +9.1469991485430509e+00 +0.0000000000000000e+00 +3.4999999236300501e+00 +2.8960056487681010e-03 -5.1448964448205833e-02 +2.0816604269069896e-04
3.6000000000000001e+00 +9.1469624487887007e+00 +0.0000000000000000e+00 +3.5999999168952499e+00 +2.8960012635155644e-03 -5.1449029707920202e-02 +2.0819180832379325e-04
3.7000000000000002e+00 +9.1469247152390807e+00 +0.0000000000000000e+00 +3.6999999097757001e+00 +2.8959980185636947e-03 -5.1449096072910108e-02 +2.0821795496029120e-04
3.7999999999999998e+00 +9.1468859478924092e+00 +0.0000000000000000e+00 +3.7999999022607200e+00 +2.8959959178691524e-03 -5.1449163453607956e-02 +2.0824448834996797e-04
3.8999999999999999e+00 +9.1468461467522495e+00 +0.0000000000000000e+00 +3.8999998943396199e+00 +2.8959949653889548e-03 -5.1449231760455509e-02 +2.0827141423105145e-04
4.0000000000000000e+00 +9.1468053118132708e+00 +0.0000000000000000e+00 +3.9999998860017101e+00 +2.8959951650806811e-03 -5.1449300903906356e-02 +2.0829873832996728e-04
4.0999999999999996e+00 +9.1467634430807898e+00 +0.0000000000000000e+00 +4.0999998772363098e+00 +2.8959965057970155e-03 -5.1449370798897068e-02 +2.0832644204135813e-04
4.2000000000000002e+00 +9.1467205405512608e+00 +0.0000000000000000e+00 +4.1999998680327302e+00 +2.8959989159701299e-03 -5.1449441378271378e-02 +2.0835440947800492e-04
4.2999999999999998e+00 +9.1466766042264602e+00 +0.0000000000000000e+00 +4.2999998583802803e+00 +2.8960023089288777e-03 -5.1449512579364684e-02 +2.0838250044686303e-04
4.4000000000000004e+00 +9.1466316341046099e+00 +0.0000000000000000e+00 +4.3999998482682798e+00 +2.8960065980046454e-03 -5.1449584339533831e-02 +2.0841057477257921e-04
4.5000000000000000e+00 +9.1465856301892607e+00 +0.0000000000000000e+00 +4.4999998376860297e+00 +2.8960116965314879e-03 -5.1449656596157432e-02 +2.0843849229888617e-04
4.5999999999999996e+00 +9.1465385924768707e+00 +0.0000000000000000e+00 +4.5999998266228497e+00 +2.8960175178463889e-03 -5.1449729286638206e-02 +2.0846611289004579e-04
4.7000000000000002e+00 +9.1464905209674292e+00 +0.0000000000000000e+00 +4.6999998150680504e+00 +2.8960239752893815e-03 -5.1449802348403129e-02 +2.0849329643224073e-04
4.7999999999999998e+00 +9.1464414156644995e+00 +0.0000000000000000e+00 +4.7999998030109499e+00 +2.8960309822037181e-03 -5.1449875718904546e-02 +2.0851990283498941e-04
4.9000000000000004e+00 +9.1463912765645095e+00 +0.0000000000000000e+00 +4.8999997904408596e+00 +2.8960384519361453e-03 -5.1449949335622566e-02 +2.0854579203258617e-04
5.0000000000000000e+00 +9.1463401036692602e+00 +0.0000000000000000e+00 +4.9999997773470897e+00 +2.8960462978369888e-03 -5.1450023136064699e-02 +2.0857082398548872e-04
5.0999999999999996e+00 +9.1462878969787305e+00 +0.0000000000000000e+00 +5.0999997637189498e+00 +2.8960544332603966e-03 -5.1450097057767999e-02 +2.0859485868175094e-04
5.2000000000000002e+00 +9.1462346564911599e+00 +0.0000000000000000e+00 +5.1999997495457499e+00 +2.8960627715645133e-03 -5.1450171038300102e-02 +2.0861775613843821e-04
5.2999999999999998e+00 +9.1461803822083105e+00 +0.0000000000000000e+00 +5.2999997348168204e+00 +2.8960712261116412e-03 -5.1450245015259910e-02 +2.0863937640303308e-04
5.4000000000000004e+00 +9.1461250741284204e+00 +0.0000000000000000e+00 +5.3999997195214604e+00 +2.8960797102684627e-03 -5.1450318926279409e-02 +2.0865957955486683e-04
5.5000000000000000e+00 +9.1460687322550296e+00 +0.0000000000000000e+00 +5.4999997036489701e+00 +2.8960881374061652e-03 -5.1450392709023941e-02 +2.0867822570651772e-04
5.5999999999999996e+00 +9.1460113565845909e+00 +0.0000000000000000e+00 +5.5999996871886903e+00 +2.8960964209007213e-03 -5.1450466301194771e-02 +2.0869517500525500e-04
5.7000000000000002e+00 +9.1459529471188894e+00 +0.0000000000000000e+00 +5.6999996701299196e+00 +2.8961044741329777e-03 -5.1450539640528821e-02 +2.0871028763442927e-04
5.7999999999999998e+00 +9.1458935038561293e+00 +0.0000000000000000e+00 +5.7999996524619597e+00 +2.8961122104889056e-03 -5.1450612664800846e-02 +2.0872342381490964e-04
5.9000000000000004e+00 +9.1458330267980994e+00 +0.0000000000000000e+00 +5.8999996341741401e+00 +2.8961195433597335e-03 -5.1450685311823764e-02 +2.0873444380648624e-04
6.0000000000000000e+00 +9.1457715159465796e+00 +0.0000000000000000e+00 +5.9999996152557697e+00 +2.8961263861421627e-03 -5.1450757519450274e-02 +2.0874320790929628e-04
6.0999999999999996e+00 +9.1457089712962301e+00 +0.0000000000000000e+00 +6.0999995956961603e+00 +2.8961326753054006e-03 -5.1450829242223418e-02 +2.0874961645960850e-04
6.2000000000000002e+00 +9.1456453928523906e+00 +0.0000000000000000e+00 +6.1999995754846200e+00 +2.8961384395922631e-03 -5.1450900501297657e-02 +2.0875372979816108e-04
6.2999999999999998e+00 +9.1455807806132707e+00 +0.0000000000000000e+00 +6.2999995546104604e+00 +2.8961437308178037e-03 -5.1450971334452679e-02 +2.0875564825525406e-04
6.4000000000000004e+00 +9.1455151345771100e+00 +0.0000000000000000e+00 +6.3999995330630002e+00 +2.8961486008019632e-03 -5.1451041779435748e-02 +2.0875547215030787e-04
6.5000000000000000e+00 +9.1454484547456794e+00 +0.0000000000000000e+00 +6.4999995108315600e+00 +2.8961531013696746e-03 -5.1451111873959676e-02 +2.0875330179108035e-04
6.5999999999999996e+00 +9.1453807411171901e+00 +0.0000000000000000e+00 +6.5999994879054302e+00 +2.8961572843510469e-03 -5.1451181655701735e-02 +2.0874923747290502e-04
6.7000000000000002e+00 +9.1453119936934399e+00 +0.0000000000000000e+00 +6.6999994642739402e+00 +2.8961612015814468e-03 -5.1451251162301183e-02 +2.0874337947789974e-04
6.7999999999999998e+00 +9.1452422124761892e+00 +0.0000000000000000e+00 +6.7999994399263999e+00 +2.8961649049016507e-03 -5.1451320431357736e-02 +2.0873582807419649e-04
6.9000000000000004e+00 +9.1451713974618905e+00 +0.0000000000000000e+00 +6.8999994148521200e+00 +2.8961684461580256e-03 -5.1451389500430551e-02 +2.0872668351517529e-04
7.0000000000000000e+00 +9.1450995486523308e+00 +0.0000000000000000e+00 +6.9999993890404202e+00 +2.8961718772025722e-03 -5.1451458407035071e-02 +2.0871604603866375e-04
7.0999999999999996e+00 +9.1450266660474906e+00 +0.0000000000000000e+00 +7.0999993624805997e+00 +2.8961752498931161e-03 -5.1451527188642154e-02 +2.0870401586617411e-04
7.2000000000000002e+00 +9.1449527496438208e+00 +0.0000000000000000e+00 +7.1999993351619702e+00 +2.8961786160934446e-03 -5.1451595882676435e-02 +2.0869069320212695e-04
7.2999999999999998e+00 +9.1448777994484391e+00 +0.0000000000000000e+00 +7.2999993070738700e+00 +2.8961820276733430e-03 -5.1451664526512973e-02 +2.0867617823304392e-04
7.4000000000000004e+00 +9.1448018154560096e+00 +0.0000000000000000e+00 +7.3999992782055797e+00 +2.8961855365088824e-03 -5.1451733157478023e-02 +2.0866057112681432e-04
7.5000000000000000e+00 +9.1447247976682995e+00 +0.0000000000000000e+00 +7.4999992485464304e+00 +2.8961891944824232e-03 -5.1451801812845088e-02 +2.0864397203187567e-04
7.5999999999999996e+00 +9.1446467460835503e+00 +0.0000000000000000e+00 +7.5999992180857303e+00 +2.8961930534828085e-03 -5.1451870529834333e-02 +2.0862648107645434e-04
7.7000000000000002e+00 +9.1445676607035296e+00 +0.0000000000000000e+00 +7.6999991868127999e+00 +2.8961971654054485e-03 -5.1451939345609932e-02 +2.0860819836776996e-04
7.7999999999999998e+00 +9.1444875415300100e+00 +0.0000000000000000e+00 +7.7999991547169403e+00 +2.8962015821524796e-03 -5.1452008297278806e-02 +2.0858922399126097e-04
7.9000000000000004e+00 +9.1444063885594495e+00 +0.0000000000000000e+00 +7.8999991217874603e+00 +2.8962063556329282e-03 -5.1452077421889293e-02 +2.0856965800981352e-04
8.0000000000000000e+00 +9.1443242017936104e+00 +0.0000000000000000e+00 +7.9999990880136904e+00 +2.8962115377627676e-03 -5.1452146756428299e-02 +2.0854960046295682e-04
8.0999999999999996e+00 +9.1442409812307197e+00 +0.0000000000000000e+00 +8.0999990533849306e+00 +2.8962171665041147e-03 -5.1452216320592672e-02 +2.0852915477677394e-04
8.1999999999999993e+00 +9.1441567268743391e+00 +0.0000000000000000e+00 +8.1999990178904891e+00 +2.8962232239723774e-03 -5.1452286065126258e-02 +2.0850843799926583e-04
8.3000000000000007e+00 +9.1440714387209105e+00 +0.0000000000000000e+00 +8.2999989815196997e+00 +2.8962296783051848e-03 -5.1452355923548319e-02 +2.0848757057412531e-04
8.4000000000000004e+00 +9.1439851167722104e+00 +0.0000000000000000e+00 +8.3999989442618492e+00 +2.8962364976213425e-03 -5.1452425829387347e-02 +2.0846667293034150e-04
8.5000000000000000e+00 +9.1438977610300203e+00 +0.0000000000000000e+00 +8.4999989061062706e+00 +2.8962436500202327e-03 -5.1452495716182177e-02 +2.0844586548178081e-04
8.5999999999999996e+00 +9.1438093714890005e+00 +0.0000000000000000e+00 +8.5999988670422596e+00 +2.8962511035812268e-03 -5.1452565517483388e-02 +2.0842526862677112e-04
8.6999999999999993e+00 +9.1437199481544802e+00 +0.0000000000000000e+00 +8.6999988270591402e+00 +2.8962588263629139e-03 -5.1452635166851661e-02 +2.0840500274763458e-04
8.8000000000000007e+00 +9.1436294910247007e+00 +0.0000000000000000e+00 +8.7999987861462294e+00 +2.8962667864025839e-03 -5.1452704597860423e-02 +2.0838518821029414e-04
8.9000000000000004e+00 +9.1435380000978608e+00 +0.0000000000000000e+00 +8.8999987442928301e+00 +2.8962749517155474e-03 -5.1452773744095501e-02 +2.0836594536382906e-04
9.0000000000000000e+00 +9.1434454753775292e+00 +0.0000000000000000e+00 +8.9999987014882503e+00 +2.8962832902944390e-03 -5.1452842539154928e-02 +2.0834739454003235e-04
9.0999999999999996e+00 +9.1433519168619295e+00 +0.0000000000000000e+00 +9.0999986577218195e+00 +2.8962917701086666e-03 -5.1452910916650878e-02 +2.0832965605300372e-04
9.1999999999999993e+00 +9.1432573245492801e+00 +0.0000000000000000e+00 +9.1999986129828297e+00 +2.8963003591037286e-03 -5.1452978810209361e-02 +2.0831285019870787e-04
9.3000000000000007e+00 +9.1431616984413608e+00 +0.0000000000000000e+00 +9.2999985672606194e+00 +2.8963090252005432e-03 -5.1453046153470468e-02 +2.0829709725453629e-04
9.4000000000000004e+00 +9.1430650385381700e+00 +0.0000000000000000e+00 +9.3999985205444805e+00 +2.8963177362948491e-03 -5.1453112880089386e-02 +2.0828251747888863e-04
9.5000000000000000e+00 +9.1429673448397004e+00 +0.0000000000000000e+00 +9.4999984728237195e+00 +2.8963264602565480e-03 -5.1453178923736728e-02 +2.0826923111073853e-04
9.5999999999999996e+00 +9.1428686173459699e+00 +0.0000000000000000e+00 +9.5999984240876799e+00 +2.8963351649290694e-03 -5.1453244218099103e-02 +2.0825735836920323e-04
9.6999999999999993e+00 +9.1427688560551807e+00 +0.0000000000000000e+00 +9.6999983743256504e+00 +2.8963438181287414e-03 -5.1453308696879779e-02 +2.0824701945311739e-04
9.8000000000000007e+00 +9.1426680609726798e+00 +0.0000000000000000e+00 +9.7999983235269408e+00 +2.8963523876440740e-03 -5.1453372293798108e-02 +2.0823833454058322e-04
9.9000000000000004e+00 +9.1425662320913492e+00 +0.0000000000000000e+00 +9.8999982716808805e+00 +2.8963608412352817e-03 -5.1453434942592483e-02 +2.0823142378858310e-04
1.0000000000000000e+01 +9.1424633694165305e+00 +0.0000000000000000e+00 +9.9999982187767706e+00 +2.8963691466334356e-03 -5.1453496577017720e-02 +2.0822640733249466e-04
1.0100000000000000e+01 +9.1423594729446602e+00 +0.0000000000000000e+00 +1.0099998164803900e+01 +2.8963772871649393e-03 -5.1453557153891938e-02 +2.0822336097901629e-04
1.0199999999999999e+01 +9.1422545426793000e+00 +0.0000000000000000e+00 +1.0199998109751700e+01 +2.8963853086441233e-03 -5.1453616722229208e-02 +2.0822218328791931e-04
1.0300000000000001e+01 +9.1421485786168795e+00 +0.0000000000000000e+00 +1.0299998053609301e+01 +2.8963932725233755e-03 -5.1453675354103869e-02 +2.0822272851743687e-04
1.0400000000000000e+01 +9.1420415807609707e+00 +0.0000000000000000e+00 +1.0399997996366100e+01 +2.8964012402706448e-03 -5.1453733121602549e-02 +2.0822485093900309e-04
1.0500000000000000e+01 +9.1419335491080194e+00 +0.0000000000000000e+00 +1.0499997938011500e+01 +2.8964092733700392e-03 -5.1453790096826026e-02 +2.0822840483772999e-04
1.0600000000000000e+01 +9.1418244836597893e+00 +0.0000000000000000e+00 +1.0599997878534600e+01 +2.8964174333222124e-03 -5.1453846351888280e-02 +2.0823324451282825e-04
1.0699999999999999e+01 +9.1417143844180693e+00 +0.0000000000000000e+00 +1.0699997817925000e+01 +2.8964257816448823e-03 -5.1453901958917296e-02 +2.0823922427806569e-04
1.0800000000000001e+01 +9.1416032513792906e+00 +0.0000000000000000e+00 +1.0799997756171701e+01 +2.8964343798733639e-03 -5.1453956990056123e-02 +2.0824619846222681e-04
1.0900000000000000e+01 +9.1414910845470292e+00 +0.0000000000000000e+00 +1.0899997693264300e+01 +2.8964432895609436e-03 -5.1454011517461699e-02 +2.0825402140953452e-04
1.1000000000000000e+01 +9.1413778839177091e+00 +0.0000000000000000e+00 +1.0999997629191901e+01 +2.8964525722794841e-03 -5.1454065613306850e-02 +2.0826254748012918e-04
1.1100000000000000e+01 +9.1412636494931299e+00 +0.0000000000000000e+00 +1.1099997563943900e+01 +2.8964622896198015e-03 -5.1454119349779205e-02 +2.0827163105049197e-04
1.1199999999999999e+01 +9.1411483812750394e+00 +0.0000000000000000e+00 +1.1199997497509599e+01 +2.8964725031921925e-03 -5.1454172799082112e-02 +2.0828112651390560e-04
1.1300000000000001e+01 +9.1410320792599205e+00 +0.0000000000000000e+00 +1.1299997429878401e+01 +2.8964832746269575e-03 -5.1454226033435607e-02 +2.0829088828091565e-04
1.1400000000000000e+01 +9.1409147434512903e+00 +0.0000000000000000e+00 +1.1399997361039500e+01 +2.8964946655747883e-03 -5.1454279125075247e-02 +2.0830077077975612e-04
1.1500000000000000e+01 +9.1407963738456193e+00 +0.0000000000000000e+00 +1.1499997290982201e+01 +2.8965067377073549e-03 -5.1454332146254222e-02 +2.0831062845682956e-04
1.1600000000000000e+01 +9.1406769704464494e+00 +0.0000000000000000e+00 +1.1599997219695799e+01 +2.8965195527176843e-03 -5.1454385169241883e-02 +2.0832031577713023e-04
1.1699999999999999e+01 +9.1405565332520098e+00 +0.0000000000000000e+00 +1.1699997147169800e+01 +2.8965331723207382e-03 -5.1454438266325640e-02 +2.0832968722472159e-04
1.1800000000000001e+01 +9.1404350622623003e+00 +0.0000000000000000e+00 +1.1799997073393300e+01 +2.8965476582538323e-03 -5.1454491509810324e-02 +2.0833859730317493e-04
