# multipoles
# s[mm] polynom_b[n=0][T/m^n] polynom_b[n=1][T/m^n] polynom_b[n=2][T/m^n] polynom_b[n=3][T/m^n] polynom_b[n=4][T/m^n] polynom_b[n=5][T/m^n] polynom_b[n=6][T/m^n] 
+0.0000000000000000e+00 -5.1448000373629066e-02 +1.1524404073702305e-01 +1.0198336786923810e+00 +1.1413100541396332e+01 +7.1014535010853194e+01 -2.3595812607550593e+04 +1.0871415963656630e+06 
+1.0000000000000001e-01 -5.1448024962378054e-02 +1.1524873730402133e-01 +1.0198331558806175e+00 +1.1320925282029366e+01 +6.9968536781411430e+01 -2.3125980387026950e+04 +1.0922886031089386e+06 
+2.0000000000000001e-01 -5.1448049940748246e-02 +1.1525331953249157e-01 +1.0198057949954746e+00 +1.1231109400996901e+01 +6.8714509729778911e+01 -2.2669667771226264e+04 +1.1003816360686433e+06 
+2.9999999999999999e-01 -5.1448075370742509e-02 +1.1525778660071835e-01 +1.0197527470350913e+00 +1.1143725060618483e+01 +6.7292237624660387e+01 -2.2227469025507988e+04 +1.1110809397704499e+06 
+4.0000000000000002e-01 -5.1448101314362615e-02 +1.1526213768809776e-01 +1.0196751628089067e+00 +1.1058844391721243e+01 +6.5741508312634338e+01 -2.1799978235659168e+04 +1.1240467374691113e+06 
+5.0000000000000000e-01 -5.1448127833606389e-02 +1.1526637197519998e-01 +1.0195741926819919e+00 +1.0976539491077830e+01 +6.4102118426623448e+01 -2.1387789288760818e+04 +1.1389392093609062e+06 
+5.9999999999999998e-01 -5.1448154990472228e-02 +1.1527048864342564e-01 +1.0194509870650403e+00 +1.0896882431421872e+01 +6.2413863949200326e+01 -2.0991495931681591e+04 +1.1554185378659817e+06 
+6.9999999999999996e-01 -5.1448182846956535e-02 +1.1527448687519656e-01 +1.0193066961140829e+00 +1.0819945252442359e+01 +6.0716545867786692e+01 -2.0611691706960708e+04 +1.1731448810198496e+06 
+8.0000000000000004e-01 -5.1448211465053968e-02 +1.1527836585326587e-01 +1.0191424697460130e+00 +1.0745799982025758e+01 +5.9049970346510342e+01 -2.0248970078726776e+04 +1.1917783704476007e+06 
+9.0000000000000002e-01 -5.1448240906758161e-02 +1.1528212476116104e-01 +1.0189594578260961e+00 +1.0674518621848547e+01 +5.7453944496287384e+01 -1.9903924342731421e+04 +1.2109791335072848e+06 
+1.0000000000000000e+00 -5.1448271234060754e-02 +1.1528576278259163e-01 +1.0187588098479428e+00 +1.0606173162513693e+01 +5.5968282933477148e+01 -1.9577147709260895e+04 +1.2304072607771517e+06 
+1.1000000000000001e+00 -5.1448302508952513e-02 +1.1528927910172816e-01 +1.0185416752838736e+00 +1.0540835575845543e+01 +5.4632800693813138e+01 -1.9269233256098880e+04 +1.2497228411897402e+06 
+1.2000000000000000e+00 -5.1448334793422437e-02 +1.1529267290266551e-01 +1.0183092032992238e+00 +1.0478577828108801e+01 +5.3487319158562265e+01 -1.8980773999187964e+04 +1.2685859324656737e+06 
+1.3000000000000000e+00 -5.1448368149456573e-02 +1.1529594336958320e-01 +1.0180625427366936e+00 +1.0419471875561491e+01 +5.2571665988754226e+01 -1.8712362864745792e+04 +1.2866565626142246e+06 
+1.3999999999999999e+00 -5.1448402639042545e-02 +1.1529908968642481e-01 +1.0178028426311296e+00 +1.0363589671897174e+01 +5.1925665151262564e+01 -1.8464592727522664e+04 +1.3035947780389141e+06 
+1.5000000000000000e+00 -5.1448438324163619e-02 +1.1530211103682958e-01 +1.0175312513971246e+00 +1.0311003169192723e+01 +5.1589152930535057e+01 -1.8238056411306654e+04 +1.3190605657886632e+06 
+1.6000000000000001e+00 -5.1448475266803607e-02 +1.1530500660418651e-01 +1.0172489175701485e+00 +1.0261784315800092e+01 +5.1601963336382525e+01 -1.8033346674001183e+04 +1.3327139246135817e+06 
+1.7000000000000000e+00 -5.1448513528942336e-02 +1.1530777557088275e-01 +1.0169569891385111e+00 +1.0216005077030404e+01 +5.2003941023524206e+01 -1.7851056323941626e+04 +1.3442148030215730e+06 
+1.8000000000000000e+00 -5.1448553172560516e-02 +1.1531041711904962e-01 +1.0166566141773625e+00 +1.0173737411907922e+01 +5.2834929060376183e+01 -1.7691778079207066e+04 +1.3532231578859640e+06 
+1.8999999999999999e+00 -5.1448594259635855e-02 +1.1531293042974820e-01 +1.0163489403991888e+00 +1.0135053296576430e+01 +5.4134777675705202e+01 -1.7556104700723954e+04 +1.3593989126304900e+06 
+2.0000000000000000e+00 -5.1448636852145450e-02 +1.1531531468309525e-01 +1.0160351153966576e+00 +1.0100024718893367e+01 +5.5943339331399820e+01 -1.7444628956253648e+04 +1.3624019814804797e+06 
+2.1000000000000001e+00 -5.1448680997279374e-02 +1.1531756780695569e-01 +1.0157165181090486e+00 +1.0068717774949766e+01 +5.8283880528249959e+01 -1.7357747855353529e+04 +1.3619960675535495e+06 
+2.2000000000000002e+00 -5.1448726684623518e-02 +1.1531968166638119e-01 +1.0153957059510068e+00 +1.0041210712463380e+01 +6.1108927927397097e+01 -1.7295278957050137e+04 +1.3583777323466511e+06 
+2.2999999999999998e+00 -5.1448773889749715e-02 +1.1532164634032788e-01 +1.0150755962579960e+00 +1.0017593848310907e+01 +6.4352159136328055e+01 -1.7256945866057104e+04 +1.3518565465057043e+06 
+2.3999999999999999e+00 -5.1448822588229824e-02 +1.1532345190695549e-01 +1.0147591066163222e+00 +9.9979575264178671e+00 +6.7947245127437199e+01 -1.7242472355251095e+04 +1.3427421174228266e+06 
+2.5000000000000000e+00 -5.1448872755635033e-02 +1.1532508844320505e-01 +1.0144491546026786e+00 +9.9823921298936007e+00 +7.1827855833467154e+01 -1.7251582438394769e+04 +1.3313440609027592e+06 
+2.6000000000000001e+00 -5.1448924367533830e-02 +1.1532654602473054e-01 +1.0141486576567784e+00 +9.9709880855101876e+00 +7.5927661565216354e+01 -1.7284000404595346e+04 +1.3179719971181669e+06 
+2.7000000000000002e+00 -5.1448977399492411e-02 +1.1532781472636967e-01 +1.0138605331490194e+00 +9.9638358501815336e+00 +8.0180332170270177e+01 -1.7339450740066866e+04 +1.3029355532876011e+06 
+2.7999999999999998e+00 -5.1449031827077329e-02 +1.1532888462131388e-01 +1.0135876987234380e+00 +9.9610259371302750e+00 +8.4519529958181835e+01 -1.7417658288109931e+04 +1.2865443989189430e+06 
+2.8999999999999999e+00 -5.1449087625852395e-02 +1.1532974578136126e-01 +1.0133330717725277e+00 +9.9626489093037094e+00 +8.8878919857524735e+01 -1.7518348215532696e+04 +1.2691081968158537e+06 
+3.0000000000000000e+00 -5.1449144771379303e-02 +1.1533038827696490e-01 +1.0130995698322756e+00 +9.9687953791892028e+00 +9.3192161309278262e+01 -1.7641246013078162e+04 +1.2509366433421124e+06 
+3.1000000000000001e+00 -5.1449203239220580e-02 +1.1533080217685727e-01 +1.0128901107156456e+00 +9.9795560214222849e+00 +9.7392905945207971e+01 -1.7786077576737593e+04 +1.2323394788072449e+06 
+3.2000000000000002e+00 -5.1449263004934527e-02 +1.1533097754837153e-01 +1.0127076119816267e+00 +9.9950215641800941e+00 +1.0141480718277499e+02 -1.7952569161143369e+04 +1.2136264430898835e+06 
+3.2999999999999998e+00 -5.1449324044078752e-02 +1.1533090445685608e-01 +1.0125549914126835e+00 +1.0015282807751932e+01 +1.0519151139236371e+02 -1.8140447491739895e+04 +1.1951073169540407e+06 
+3.3999999999999999e+00 -5.1449386332210197e-02 +1.1533057296598671e-01 +1.0124351670056912e+00 +1.0040430616442983e+01 +1.0865665746585533e+02 -1.8349439722771418e+04 +1.1770919257638087e+06 
+3.5000000000000000e+00 -5.1449449844881881e-02 +1.1532997313756173e-01 +1.0123510565525251e+00 +1.0070555926017486e+01 +1.1174388485334538e+02 -1.8579273485924128e+04 +1.1598901009693178e+06 
+3.6000000000000001e+00 -5.1449514557648846e-02 +1.1532909503130402e-01 +1.0123055784839672e+00 +1.0105749750661717e+01 +1.1438681731712921e+02 -1.8829676934100717e+04 +1.1438117578959996e+06 
+3.7000000000000002e+00 -5.1449580446060940e-02 +1.1532792870494186e-01 +1.0123016509081029e+00 +1.0146103181609725e+01 +1.1651908102020934e+02 -1.9100378738964035e+04 +1.1291668102248469e+06 
+3.7999999999999998e+00 -5.1449647485669159e-02 +1.1532646421407118e-01 +1.0123421924289564e+00 +1.0191707392975422e+01 +1.1807428871923955e+02 -1.9391108130695196e+04 +1.1162652457295808e+06 
+3.8999999999999999e+00 -5.1449715652021534e-02 +1.1532469161215017e-01 +1.0124301217125082e+00 +1.0242653642081871e+01 +1.1898604805713114e+02 -1.9701594900025088e+04 +1.1054170867684386e+06 
+4.0000000000000000e+00 -5.1449784920664210e-02 +1.1532260095010971e-01 +1.0125683574816589e+00 +1.0299033282811328e+01 +1.1918796122583576e+02 -2.0031569486351702e+04 +1.0969323928857220e+06 
+4.0999999999999996e+00 -5.1449855255512905e-02 +1.1532018992435124e-01 +1.0127586029924887e+00 +1.0360782912393217e+01 +1.1863204241565113e+02 -2.0380093457684568e+04 +1.0910527595650847e+06 
+4.2000000000000002e+00 -5.1449926570988395e-02 +1.1531748724948018e-01 +1.0129968937557032e+00 +1.0427222878259977e+01 +1.1736021044835699e+02 -2.0743640910399859e+04 +1.0876707204418173e+06 
+4.2999999999999998e+00 -5.1449998768294369e-02 +1.1531452955666348e-01 +1.0132776315383745e+00 +1.0497518929618304e+01 +1.1544119930000605e+02 -2.1118056003728150e+04 +1.0865716150548568e+06 
+4.4000000000000004e+00 -5.1450071748641538e-02 +1.1531135347947095e-01 +1.0135952187622916e+00 +1.0570836743772556e+01 +1.1294373235107302e+02 -2.1499182467650979e+04 +1.0875408268522364e+06 
+4.5000000000000000e+00 -5.1450145413246100e-02 +1.1530799565413706e-01 +1.0139440584745909e+00 +1.0646341919652778e+01 +1.0993652322456400e+02 -2.1882863559085381e+04 +1.0903637775072122e+06 
+4.5999999999999996e+00 -5.1450219663332783e-02 +1.1530449271980694e-01 +1.0143185544848583e+00 +1.0723199969133278e+01 +1.0648827335823189e+02 -2.2264942009037182e+04 +1.0948259380275900e+06 
+4.7000000000000002e+00 -5.1450294400132927e-02 +1.1530088131824880e-01 +1.0147131113062520e+00 +1.0800576325507945e+01 +1.0266767329129088e+02 -2.2641260068800701e+04 +1.1007128219017913e+06 
+4.7999999999999998e+00 -5.1450369524887810e-02 +1.1529719809475410e-01 +1.0151221345295758e+00 +1.0877636316574677e+01 +9.8543395716380289e+01 -2.3007659350905629e+04 +1.1078100177571326e+06 
+4.9000000000000004e+00 -5.1450444938846325e-02 +1.1529347969776647e-01 +1.0155400303794169e+00 +1.0953545174825972e+01 +9.4184104128154388e+01 -2.3359980887332844e+04 +1.1159031473159115e+06 
+5.0000000000000000e+00 -5.1450520543266126e-02 +1.1528976277921596e-01 +1.0159612059772054e+00 +1.1027468028458046e+01 +8.9658448298386915e+01 -2.3694065076709470e+04 +1.1247778856610148e+06 
+5.0999999999999996e+00 -5.1450596239414059e-02 +1.1528608399497059e-01 +1.0163800693360512e+00 +1.1098569886108764e+01 +8.5035064140751473e+01 -2.4005751589139163e+04 +1.1342199622792373e+06 
+5.2000000000000002e+00 -5.1450671928570405e-02 +1.1528248000470211e-01 +1.0167910298328413e+00 +1.1166015641978946e+01 +8.0382565192953081e+01 -2.4290879399353456e+04 +1.1440152002923614e+06 
+5.2999999999999998e+00 -5.1450747512020695e-02 +1.1527898747229838e-01 +1.0171884972502441e+00 +1.1228970062875273e+01 +7.5769561094404011e+01 -2.4545286706226700e+04 +1.1539494276410034e+06 
+5.4000000000000004e+00 -5.1450822891065513e-02 +1.1527564306582412e-01 +1.0175668828838422e+00 +1.1286597788207720e+01 +7.1264636591732327e+01 -2.4764810930178162e+04 +1.1638085767481530e+06 
+5.5000000000000000e+00 -5.1450897967015317e-02 +1.1527248345817076e-01 +1.0179205990287326e+00 +1.1338063312284085e+01 +6.6936361505679571e+01 -2.4945288610894582e+04 +1.1733786363281000e+06 
+5.5999999999999996e+00 -5.1450972641191327e-02 +1.1526954532673343e-01 +1.0182440588409238e+00 +1.1382530991317932e+01 +6.2853293767010449e+01 -2.5082555442778314e+04 +1.1824456358188093e+06 
+5.7000000000000002e+00 -5.1451046814929735e-02 +1.1526686535368834e-01 +1.0185316770548865e+00 +1.1419165037492537e+01 +5.9083965919969650e+01 -2.5172446243720460e+04 +1.1907957090467222e+06 
+5.7999999999999998e+00 -5.1451120389575791e-02 +1.1526448022668223e-01 +1.0187778691469926e+00 +1.1447129495516744e+01 +5.5696900813183504e+01 -2.5210794809088569e+04 +1.1982150199195303e+06 
+5.9000000000000004e+00 -5.1451193266492501e-02 +1.1526242663843662e-01 +1.0189770524059092e+00 +1.1465588256676732e+01 +5.2760592197006922e+01 -2.5193433999054301e+04 +1.2044898522258911e+06 
+6.0000000000000000e+00 -5.1451265347051675e-02 +1.1526074128694981e-01 +1.0191236447807808e+00 +1.1473705058370591e+01 +5.0343527468712956e+01 -2.5116195753819553e+04 +1.2094064977442808e+06 
+6.0999999999999996e+00 -5.1451336560383643e-02 +1.1525944937696088e-01 +1.0192132077380263e+00 +1.1470972037593217e+01 +4.8507154453665649e+01 -2.4976819576304501e+04 +1.2127490656105727e+06 
+6.2000000000000002e+00 -5.1451406944032128e-02 +1.1525853194859470e-01 +1.0192463454261056e+00 +1.1458118957521057e+01 +4.7268527379197153e+01 -2.4780191845116780e+04 +1.2143932703949600e+06 
+6.2999999999999998e+00 -5.1451476562191262e-02 +1.1525795932367491e-01 +1.0192250603280788e+00 +1.1436170989446140e+01 +4.6629291192105043e+01 -2.4532898556336717e+04 +1.2142636365890210e+06 
+6.4000000000000004e+00 -5.1451545479040656e-02 +1.1525770182240691e-01 +1.0191513527454730e+00 +1.1406153339217827e+01 +4.6591135270699908e+01 -2.4241525903713984e+04 +1.2122844733926610e+06 
+6.5000000000000000e+00 -5.1451613758746940e-02 +1.1525772976343300e-01 +1.0190272210230131e+00 +1.1369091243032186e+01 +4.7155789504274104e+01 -2.3912660238512755e+04 +1.2083798914723641e+06 
+6.5999999999999996e+00 -5.1451681465462293e-02 +1.1525801346380933e-01 +1.0188546612431655e+00 +1.1326009964895256e+01 +4.8325030259458735e+01 -2.3552888046915275e+04 +1.2024737742862981e+06 
+6.7000000000000002e+00 -5.1451748663322097e-02 +1.1525852323906831e-01 +1.0186356669899623e+00 +1.1277934797429831e+01 +5.0100685167320258e+01 -2.3168795963004417e+04 +1.1944897547050342e+06 
+6.7999999999999998e+00 -5.1451815416447215e-02 +1.1525922940291883e-01 +1.0183722296238282e+00 +1.1225891067809240e+01 +5.2484627733250470e+01 -2.2766970796575217e+04 +1.1843512412168968e+06 
+6.9000000000000004e+00 -5.1451881788941632e-02 +1.1526010226720446e-01 +1.0180663378103032e+00 +1.1170904138812823e+01 +5.5478786791903403e+01 -2.2353999541022320e+04 +1.1719813718626653e+06 
+7.0000000000000000e+00 -5.1451947844891932e-02 +1.1526111214199572e-01 +1.0177199777096129e+00 +1.1113999405882936e+01 +5.9085142481862242e+01 -2.1936469355031342e+04 +1.1573030345658064e+06 
+7.0999999999999996e+00 -5.1452013648367483e-02 +1.1526222933499833e-01 +1.0173351327910685e+00 +1.1056202313064533e+01 +6.3305730230595366e+01 -2.1520967653807682e+04 +1.1402388472555897e+06 
+7.2000000000000002e+00 -5.1452079263417196e-02 +1.1526342415212774e-01 +1.0169137834101176e+00 +1.0998538336467552e+01 +6.8142648958779191e+01 -2.1114082014880230e+04 +1.1207111184931039e+06 
+7.2999999999999998e+00 -5.1452144754072046e-02 +1.1526466689692901e-01 +1.0164579073426070e+00 +1.0942032999860380e+01 +7.3598050760154209e+01 -2.0722400263770032e+04 +1.0986418971522825e+06 
+7.4000000000000004e+00 -5.1452210184343566e-02 +1.1526592787043537e-01 +1.0159694792427405e+00 +1.0887711878309929e+01 +7.9674151411475336e+01 -2.0352510499161559e+04 +1.0739529220231858e+06 
+7.5000000000000000e+00 -5.1452275618221389e-02 +1.1526717737159239e-01 +1.0154504705573066e+00 +1.0836600585333724e+01 +8.6373232296832057e+01 -2.0011001014371235e+04 +1.0465656121608133e+06 
+7.5999999999999996e+00 -5.1452341119675782e-02 +1.1526838569663531e-01 +1.0149028497586616e+00 +1.0789724790189814e+01 +9.3697635648320514e+01 -1.9704460398518182e+04 +1.0164010904322016e+06 
+7.7000000000000002e+00 -5.1452406752651905e-02 +1.1526952313912765e-01 +1.0143285816191816e+00 +1.0748110216477095e+01 +1.0164977905520536e+02 -1.9439477527565694e+04 +9.8338011281843600e+05 
+7.7999999999999998e+00 -5.1452472581075270e-02 +1.1527055999000704e-01 +1.0137296279129417e+00 +1.0712782639569843e+01 +1.1023214165525528e+02 -1.9222641547716325e+04 +9.4742313553278497e+05 
+7.9000000000000004e+00 -5.1452538668847803e-02 +1.1527146653729854e-01 +1.0131079467898838e+00 +1.0684767895075485e+01 +1.1944727639538712e+02 -1.9060541926909526e+04 +9.0845025581790437e+05 
+8.0000000000000000e+00 -5.1452605079845566e-02 +1.1527221306735369e-01 +1.0124654927500574e+00 +1.0665091819998475e+01 +1.2929780738202754e+02 -1.8959768051566185e+04 +8.6638123523583473e+05 
+8.0999999999999996e+00 -5.1452671858484629e-02 +1.1527277820548387e-01 +1.0118047844393774e+00 +1.0654454136990665e+01 +1.3976324376714072e+02 -1.8924760941623877e+04 +8.2126396962906234e+05 
+8.1999999999999993e+00 -5.1452738983762701e-02 +1.1527316891740526e-01 +1.0111315981367714e+00 +1.0652379285518276e+01 +1.5072553457979458e+02 -1.8951959163912281e+04 +7.7363074292608013e+05 
+8.3000000000000007e+00 -5.1452806421446888e-02 +1.1527339810367487e-01 +1.0104528063773734e+00 +1.0658121915403550e+01 +1.6204023239815419e+02 -1.9035879242327952e+04 +7.2413090552132716e+05 
+8.4000000000000004e+00 -5.1452874137315731e-02 +1.1527347866131787e-01 +1.0097752840314136e+00 +1.0670936794700408e+01 +1.7356284136990354e+02 -1.9171038321210559e+04 +6.7341403489219875e+05 
+8.5000000000000000e+00 -5.1452942097163730e-02 +1.1527342348403029e-01 +1.0091059087437668e+00 +1.0690078831442809e+01 +1.8514880642356047e+02 -1.9351954456518550e+04 +6.2213000377427461e+05 
+8.5999999999999996e+00 -5.1453010266801047e-02 +1.1527324546138171e-01 +1.0084515608485418e+00 +1.0714803097464946e+01 +1.9665351440094506e+02 -1.9573146757262570e+04 +5.7092897605363547e+05 
+8.6999999999999993e+00 -5.1453078612048793e-02 +1.1527295747921981e-01 +1.0078191230377862e+00 +1.0744364819692148e+01 +2.0793230024764529e+02 -1.9829135338714470e+04 +5.2046137750246236e+05 
+8.8000000000000007e+00 -5.1453147098746051e-02 +1.1527257241967515e-01 +1.0072154810489380e+00 +1.0778019379841222e+01 +2.1884043366592974e+02 -2.0114441323021965e+04 +4.7137795975687046e+05 
+8.9000000000000004e+00 -5.1453215692749507e-02 +1.1527210316053178e-01 +1.0066475236889776e+00 +1.0815022334889452e+01 +2.2923311855415801e+02 -2.0423586961924997e+04 +4.2432980331561016e+05 
+9.0000000000000000e+00 -5.1453284359928110e-02 +1.1527156257546520e-01 +1.0061221423412776e+00 +1.0854629412249979e+01 +2.3896550190527128e+02 -2.0751095613176531e+04 +3.7996827617616492e+05 
+9.0999999999999996e+00 -5.1453353066169702e-02 +1.1527096353376613e-01 +1.0056462316104446e+00 +1.0896096517400860e+01 +2.4789266143533149e+02 -2.1091491784304097e+04 +3.3894509311756433e+05 
+9.1999999999999993e+00 -5.1453421777383331e-02 +1.1527031890062547e-01 +1.0052266897730993e+00 +1.0938679728458009e+01 +2.5586959667322887e+02 -2.1439301107964737e+04 +3.0191235859545367e+05 
+9.3000000000000007e+00 -5.1453490459490027e-02 +1.1526964153651915e-01 +1.0048704176540293e+00 +1.0981635315978693e+01 +2.6275125024733836e+02 -2.1789050460365761e+04 +2.6952246580531879e+05 
+9.4000000000000004e+00 -5.1453559078432326e-02 +1.1526894429732759e-01 +1.0045843197804245e+00 +1.1024219739106741e+01 +2.6839248561803544e+02 -2.2135267938440247e+04 +2.4242820321482950e+05 
+9.5000000000000000e+00 -5.1453627600172545e-02 +1.1526824003425422e-01 +1.0043753042517429e+00 +1.1065689650902872e+01 +2.7264808922033774e+02 -2.2472482897726575e+04 +2.2128274520983835e+05 
+9.5999999999999996e+00 -5.1453695990690697e-02 +1.1526754159372457e-01 +1.0042502824659159e+00 +1.1105301902082129e+01 +2.7537277551627642e+02 -2.2795225975457335e+04 +2.0673962833908826e+05 
+9.6999999999999993e+00 -5.1453764215988552e-02 +1.1526686181722440e-01 +1.0042161696407315e+00 +1.1142313547077169e+01 +2.7642117697724785e+02 -2.3098029129543847e+04 +1.9945279908299775e+05 
+9.8000000000000007e+00 -5.1453832242085544e-02 +1.1526621354121586e-01 +1.0042798844760543e+00 +1.1175981848590345e+01 +2.7564784995153212e+02 -2.3375425668007876e+04 +2.0007658741139877e+05 
+9.9000000000000004e+00 -5.1453900035027061e-02 +1.1526560959712738e-01 +1.0044483499340744e+00 +1.1205564278086811e+01 +2.7290725973257162e+02 -2.3621950255641023e+04 +2.0926577784044843e+05 
+1.0000000000000000e+01 -5.1453967560873892e-02 +1.1526506280895171e-01 +1.0047284919842288e+00 +1.1230318596891300e+01 +2.6805380770262536e+02 -2.3832139330925584e+04 +2.2767547746393978e+05 
+1.0100000000000000e+01 -5.1454034788746328e-02 +1.1526457903785690e-01 +1.0051245234702957e+00 +1.1249758424068974e+01 +2.6099679624417422e+02 -2.4002127367381792e+04 +2.5571662327489606e+05 
