# multipoles
# s[mm] polynom_b[n=0][T/m^n] polynom_b[n=1][T/m^n] polynom_b[n=2][T/m^n] polynom_b[n=3][T/m^n] polynom_b[n=4][T/m^n] polynom_b[n=5][T/m^n] polynom_b[n=6][T/m^n] 
+0.0000000000000000e+00 -1.0329821009226878e+00 +2.2507783951676430e+00 +2.7014921978981157e+01 +6.4565482051685990e+02 -6.5169406715694735e+04 -2.3224607731011100e+06 +2.4487782440771219e+08 
+1.0000000000000001e-01 -1.0329816324477608e+00 +2.2508211250360435e+00 +2.7059166964673178e+01 +6.4911134464449424e+02 -6.6266897613394525e+04 -2.3614437190987743e+06 +2.5056857271660241e+08 
+2.0000000000000001e-01 -1.0329811763895529e+00 +2.2508631103965553e+00 +2.7108659905778605e+01 +6.5283661340381047e+02 -6.7510590321202195e+04 -2.4022691857718648e+06 +2.5700989469579235e+08 
+3.0000000000000004e-01 -1.0329807356158798e+00 +2.2509041441868156e+00 +2.7163691772190489e+01 +6.5683097312556629e+02 -6.8905958774157640e+04 -2.4449256127560600e+06 +2.6422602638268590e+08 
+4.0000000000000002e-01 -1.0329803129943897e+00 +2.2509440192874623e+00 +2.7224553505330551e+01 +6.6109477345842697e+02 -7.0458476330877951e+04 -2.4894014652601071e+06 +2.7224120098223728e+08 
+5.0000000000000000e-01 -1.0329799113927083e+00 +2.2509825285068015e+00 +2.7291536035467249e+01 +6.6562836790306119e+02 -7.2173616099490813e+04 -2.5356852375307633e+06 +2.8107965040690106e+08 
+5.9999999999999998e-01 -1.0329795327938653e+00 +2.2510194268168964e+00 +2.7364765757811906e+01 +6.7043141740536623e+02 -7.4053519744463454e+04 -2.5837609247412421e+06 +2.9075018047825527e+08 
+6.9999999999999996e-01 -1.0329791756241453e+00 +2.2510543379116554e+00 +2.7443708557879834e+01 +6.7550028055124267e+02 -7.6086946039287111e+04 -2.6335922084498946e+06 +3.0119960361281604e+08 
+7.9999999999999993e-01 -1.0329788374157938e+00 +2.2510868576303031e+00 +2.7527664548821427e+01 +6.8083036090458597e+02 -7.8259292625928370e+04 -2.6851371428655684e+06 +3.1235915610930914e+08 
+8.9999999999999991e-01 -1.0329785157009694e+00 +2.2511165817835055e+00 +2.7615933827694445e+01 +6.8641706404347269e+02 -8.0555956801904205e+04 -2.7383537984844800e+06 +3.2416007249508971e+08 
+9.9999999999999989e-01 -1.0329782080117229e+00 +2.2511431061630622e+00 +2.7707816473602797e+01 +6.9225579713025400e+02 -8.2962335489526013e+04 -2.7932002590607083e+06 +3.3653358538878566e+08 
+1.0999999999999999e+00 -1.0329779118799836e+00 +2.2511660265620774e+00 +2.7802612546499038e+01 +6.9834196817565896e+02 -8.5463825209505943e+04 -2.8496346167827235e+06 +3.4941092535471618e+08 
+1.2000000000000000e+00 -1.0329776248376210e+00 +2.2511849387755789e+00 +2.7899622096376891e+01 +7.0467098589150828e+02 -8.8045822259417168e+04 -2.9076149709426169e+06 +3.6272332175387418e+08 
+1.3000000000000000e+00 -1.0329773444163244e+00 +2.2511994386178737e+00 +2.7998145147183944e+01 +7.1123825904038779e+02 -9.0693722399405684e+04 -2.9670994236167478e+06 +3.7640200121881205e+08 
+1.4000000000000001e+00 -1.0329770681477215e+00 +2.2512091219293433e+00 +2.8097481714507119e+01 +7.1803919608590581e+02 -9.3392921201813268e+04 -3.0280460770997261e+06 +3.9037818934778821e+08 
+1.5000000000000002e+00 -1.0329767935632945e+00 +2.2512135845907277e+00 +2.8196931793768478e+01 +7.2506920464118423e+02 -9.6128813813132467e+04 -3.0904130301716994e+06 +4.0458310952509117e+08 
+1.6000000000000003e+00 -1.0329765181944426e+00 +2.2512124225340888e+00 +2.8295795370068252e+01 +7.3232369101999586e+02 -9.8886795150462989e+04 -3.1541583750309958e+06 +4.1894798387449867e+08 
+1.7000000000000004e+00 -1.0329762395723585e+00 +2.2512052317505447e+00 +2.8393372403274959e+01 +7.3979805985024211e+02 -1.0165225961638551e+05 -3.2192401944507277e+06 +4.3340403188998735e+08 
+1.8000000000000005e+00 -1.0329759552281679e+00 +2.2511916083059074e+00 +2.8488962845304471e+01 +7.4748771348320611e+02 -1.0441060142185772e+05 -3.2856165578575828e+06 +4.4788247195012766e+08 
+1.9000000000000006e+00 -1.0329756626928379e+00 +2.2511711483455237e+00 +2.8581866630113595e+01 +7.5538805172070772e+02 -1.0714721440291635e+05 -3.3532455192465591e+06 +4.6231452045785153e+08 
+2.0000000000000004e+00 -1.0329753594972189e+00 +2.2511434481109882e+00 +2.8671383679606727e+01 +7.6349447117783291e+02 -1.0984749212986245e+05 -3.4220851129403226e+06 +4.7663139234110278e+08 
+2.1000000000000005e+00 -1.0329750431719822e+00 +2.2511081039488516e+00 +2.8756813896536947e+01 +7.7180236488089213e+02 -1.1249682777434611e+05 -3.4920933506934610e+06 +4.9076430042153633e+08 
+2.2000000000000006e+00 -1.0329747112476859e+00 +2.2510647123224525e+00 +2.8837457172522885e+01 +7.8030712179627631e+02 -1.1508061425641039e+05 -3.5632282185019478e+06 +5.0464445609132916e+08 
+2.3000000000000007e+00 -1.0329743612547213e+00 +2.2510128698202174e+00 +2.8912613383326626e+01 +7.8900412643885500e+02 -1.1758424416116779e+05 -3.6354476737712831e+06 +5.1820306892495042e+08 
+2.4000000000000008e+00 -1.0329739907233118e+00 +2.2509521731699902e+00 +2.8981582388779294e+01 +7.9788875831604344e+02 -1.1999310973319321e+05 -3.7087096415740186e+06 +5.3137134663398862e+08 
+2.5000000000000009e+00 -1.0329735971835647e+00 +2.2508822192458804e+00 +2.9043664040062097e+01 +8.0695639158519577e+02 -1.2229260301746607e+05 -3.7829720120945978e+06 +5.4408049574226558e+08 
+2.6000000000000010e+00 -1.0329731783869500e+00 +2.2508031363101213e+00 +2.9098208285895769e+01 +8.1619330578925860e+02 -1.2446912344601483e+05 -3.8581454500016463e+06 +5.5626605431846297e+08 
+2.7000000000000011e+00 -1.0329727331011871e+00 +2.2507171491676661e+00 +2.9144767640477315e+01 +8.2555004355419703e+02 -1.2651319593639161e+05 -3.9339527146588676e+06 +5.6788128478008306e+08 
+2.8000000000000012e+00 -1.0329722603816824e+00 +2.2506269997965207e+00 +2.9182945981894029e+01 +8.3496837283304001e+02 -1.2841640437608112e+05 -4.0100697750172471e+06 +5.7888399307881367e+08 
+2.9000000000000012e+00 -1.0329717592841567e+00 +2.2505354303326182e+00 +2.9212347213465527e+01 +8.4439005564443278e+02 -1.3017033300134263e+05 -4.0861725583081460e+06 +5.8923198620829165e+08 
+3.0000000000000013e+00 -1.0329712288647339e+00 +2.2504451830926833e+00 +2.9232575273316257e+01 +8.5375684732329864e+02 -1.3176656656702331e+05 -4.1619369453298748e+06 +5.9888307298089492e+08 
+3.1000000000000014e+00 -1.0329706681798507e+00 +2.2503590005694907e+00 +2.9243234121977434e+01 +8.6301049651309859e+02 -1.3319669010260949e+05 -4.2370387697158232e+06 +6.0779506283201933e+08 
+3.2000000000000015e+00 -1.0329700762864851e+00 +2.2502796254460247e+00 +2.9243927769493670e+01 +8.7209274465907606e+02 -1.3445228942225018e+05 -4.3111538144099414e+06 +6.1592576822211015e+08 
+3.3000000000000016e+00 -1.0329694522419643e+00 +2.2502098006060658e+00 +2.9234260250511660e+01 +8.8094532558979631e+02 -1.3552495063769104e+05 -4.3839578086361103e+06 +6.2323300226273310e+08 
+3.4000000000000017e+00 -1.0329687951042206e+00 +2.2501522691387970e+00 +2.9213835654975504e+01 +8.8950996526084202e+02 -1.3640626073892080e+05 -4.4551264257633667e+06 +6.2967458146448171e+08 
+3.5000000000000018e+00 -1.0329681039316700e+00 +2.2501097743507317e+00 +2.9182258111432169e+01 +8.9772838128872513e+02 -1.3708780726662016e+05 -4.5243352799663460e+06 +6.3520832413431299e+08 
+3.6000000000000019e+00 -1.0329673777833333e+00 +2.2500850597705395e+00 +2.9139131801063563e+01 +9.0554228271118996e+02 -1.3756117856787305e+05 -4.5912599242497003e+06 +6.3979205154971290e+08 
+3.7000000000000020e+00 -1.0329666157188784e+00 +2.2500808691618510e+00 +2.9084060962554819e+01 +9.1289336948426535e+02 -1.3781796388844104e+05 -4.6555758468705295e+06 +6.4338358838295329e+08 
+3.8000000000000020e+00 -1.0329658167985929e+00 +2.2500999465276559e+00 +2.9016649886107114e+01 +9.1972333225853572e+02 -1.3784975324112357e+05 -4.7169584694638178e+06 +6.4594076201438272e+08 
+3.9000000000000021e+00 -1.0329649800834619e+00 +2.2501450361246760e+00 +2.8936502922668964e+01 +9.2597385182550272e+02 -1.3764813757837377e+05 -4.7750831431467552e+06 +6.4742140333084393e+08 
+4.0000000000000018e+00 -1.0329641046352069e+00 +2.2502188824643117e+00 +2.8843224488048090e+01 +9.3158659900499197e+02 -1.3720470886521859e+05 -4.8296251473332392e+06 +6.4778334704689097e+08 
+4.1000000000000014e+00 -1.0329631895163118e+00 +2.2503242303267266e+00 +2.8736419063671757e+01 +9.3650323408887402e+02 -1.3651106007573011e+05 -4.8802596857787417e+06 +6.4698443162268245e+08 
+4.2000000000000011e+00 -1.0329622337901103e+00 +2.2504638247688020e+00 +2.8615691207807970e+01 +9.4066540651921014e+02 -1.3555878541046218e+05 -4.9266618841737537e+06 +6.4498250030080152e+08 
+4.3000000000000007e+00 -1.0329612365207146e+00 +2.2506404111305125e+00 +2.8480645544143961e+01 +9.4401475457918161e+02 -1.3433948006159964e+05 -4.9685067876879573e+06 +6.4173539992353463e+08 
+4.4000000000000004e+00 -1.0329601967731712e+00 +2.2508567350453861e+00 +2.8330886780661871e+01 +9.4649290497784489e+02 -1.3284474056792815e+05 -5.0054693579587191e+06 +6.3720098260019708e+08 
+4.5000000000000000e+00 -1.0329591136134071e+00 +2.2511155424503650e+00 +2.8166019701865679e+01 +9.4804147250568838e+02 -1.3106616465285407e+05 -5.0372244707773291e+06 +6.3133710486300468e+08 
+4.5999999999999996e+00 -1.0329579871535968e+00 +2.2514188374198545e+00 +2.7985828481746115e+01 +9.4861834785339852e+02 -1.2899849925119209e+05 -5.0635357685373044e+06 +6.2411598107405066e+08 
+4.6999999999999993e+00 -1.0329568218160154e+00 +2.2517654902900039e+00 +2.7790875303112873e+01 +9.4824979693253306e+02 -1.2665038281705111e+05 -5.0845406008252157e+06 +6.1557414453633845e+08 
+4.7999999999999989e+00 -1.0329556231452892e+00 +2.2521535402836217e+00 +2.7581934459287165e+01 +9.4698017609625731e+02 -1.2403430068425543e+05 -5.1004756464477470e+06 +6.0576618901690614e+08 
+4.8999999999999986e+00 -1.0329543966862005e+00 +2.2525810263404957e+00 +2.7359780281690735e+01 +9.4485385081754191e+02 -1.2116273919908563e+05 -5.1115776455574287e+06 +5.9474671436316037e+08 
+4.9999999999999982e+00 -1.0329531479834391e+00 +2.2530459871302586e+00 +2.7125187106670154e+01 +9.4191519533256746e+02 -1.1804818507518295e+05 -5.1180833969679652e+06 +5.8257032332397974e+08 
+5.0999999999999979e+00 -1.0329518825817845e+00 +2.2535464610263793e+00 +2.6878929300319211e+01 +9.3820859350092121e+02 -1.1470312589086204e+05 -5.1202297638527472e+06 +5.6929162401630914e+08 
+5.1999999999999975e+00 -1.0329506060259359e+00 +2.2540804860836796e+00 +2.6621781236904781e+01 +9.3377843955609148e+02 -1.1114004968260536e+05 -5.1182536787795303e+06 +5.5496522803076041e+08 
+5.2999999999999972e+00 -1.0329493238605609e+00 +2.2546461000220037e+00 +2.6354517308661357e+01 +9.2866913871257327e+02 -1.0737144517013550e+05 -5.1123921480156332e+06 +5.3964575164023101e+08 
+5.3999999999999968e+00 -1.0329480416303267e+00 +2.2552413402031108e+00 +2.6077911929213062e+01 +9.2292510790449796e+02 -1.0340980182739960e+05 -5.1028822564094411e+06 +5.2338781618833733e+08 
+5.4999999999999964e+00 -1.0329467648797799e+00 +2.2558642436073444e+00 +2.5792739521347453e+01 +9.1659077661357742e+02 -9.9267609673040381e+04 -5.0899611730320677e+06 +5.0624604717961991e+08 
+5.5999999999999961e+00 -1.0329454991534226e+00 +2.2565128468207782e+00 +2.5499774527153296e+01 +9.0971058731234632e+02 -9.4957359486198708e+04 -5.0738661543356180e+06 +4.8827507540759182e+08 
+5.6999999999999957e+00 -1.0329442499956503e+00 +2.2571851860043486e+00 +2.5199791402618718e+01 +9.0232899649555270e+02 -9.0491542720022844e+04 -5.0548345509558553e+06 +4.6952953661315334e+08 
+5.7999999999999954e+00 -1.0329430229507577e+00 +2.2578792968775301e+00 +2.4893564618846217e+01 +8.9449047524799880e+02 -8.5882651544928900e+04 -5.0331038116494492e+06 +4.5006407178002638e+08 
+5.8999999999999950e+00 -1.0329418235629073e+00 +2.2585932147005296e+00 +2.4581868659921611e+01 +8.8623950986822626e+02 -8.1143178826323448e+04 -5.0089114876388758e+06 +4.2993332710958219e+08 
+5.9999999999999947e+00 -1.0329406573761135e+00 +2.2593249742494845e+00 +2.4265478023119048e+01 +8.7762060270014081e+02 -7.6285618151850882e+04 -4.9824952381486418e+06 +4.0919195424230623e+08 
+6.0999999999999943e+00 -1.0329395299342705e+00 +2.2600726097969499e+00 +2.3945167222508360e+01 +8.6867827280392135e+02 -7.1322463914683933e+04 -4.9540928350027697e+06 +3.8789461073096526e+08 
+6.1999999999999940e+00 -1.0329384467810829e+00 +2.2608341550876676e+00 +2.3621710783117670e+01 +8.5945705677639660e+02 -6.6266211226928601e+04 -4.9239421681290315e+06 +3.6609595972133231e+08 
+6.2999999999999936e+00 -1.0329374134600695e+00 +2.2616076433229537e+00 +2.3295883241910865e+01 +8.5000150928858648e+02 -6.1129355953634156e+04 -4.8922812493119081e+06 +3.4385067019092935e+08 
+6.3999999999999932e+00 -1.0329364355145496e+00 +2.2623911071412843e+00 +2.2968459147856152e+01 +8.4035620379241948e+02 -5.5924394736124770e+04 -4.8593482171073696e+06 +3.2121341715030962e+08 
+6.4999999999999929e+00 -1.0329355184876625e+00 +2.2631825786077049e+00 +2.2640213068767764e+01 +8.3056573267650538e+02 -5.0663825191093747e+04 -4.8253813386156857e+06 +2.9823888275632912e+08 
+6.5999999999999925e+00 -1.0329346671311572e+00 +2.2639801991498936e+00 +2.2311887153667307e+01 +8.2067142721412927e+02 -4.5360037912542124e+04 -4.7906001274929177e+06 +2.7498208256138122e+08 
+6.6999999999999922e+00 -1.0329338825062293e+00 +2.2647824978112139e+00 +2.1984011035003757e+01 +8.1070391976177507e+02 -4.0023245940709567e+04 -4.7551597453444703e+06 +2.5149047990014872e+08 
+6.7999999999999918e+00 -1.0329331646019635e+00 +2.2655880966649722e+00 +2.1657038147130901e+01 +8.0069147500222732e+02 -3.4662639041298920e+04 -4.7192001741502965e+06 +2.2780721794233239e+08 
+6.8999999999999915e+00 -1.0329325134068992e+00 +2.2663956176716828e+00 +2.1331421868646167e+01 +7.9066236151595922e+02 -2.9287406027027831e+04 -4.6828614188120244e+06 +2.0397543544811374e+08 
+6.9999999999999911e+00 -1.0329319289090670e+00 +2.2672036826240864e+00 +2.1007615532580079e+01 +7.8064485364108805e+02 -2.3906735016840725e+04 -4.6462835201614844e+06 +1.8003826833898115e+08 
+7.0999999999999908e+00 -1.0329314110960652e+00 +2.2680109131427715e+00 +2.0686072436026969e+01 +7.7066723162183405e+02 -1.8529813613144113e+04 -4.6096065558396224e+06 +1.5603885051439589e+08 
+7.1999999999999904e+00 -1.0329309599549581e+00 +2.2688159306794105e+00 +2.0367245829639426e+01 +7.6075778154796808e+02 -1.3165828719747849e+04 -4.5729706399777262e+06 +1.3202031303354956e+08 
+7.2999999999999901e+00 -1.0329305754723010e+00 +2.2696173565024433e+00 +2.0051588919889468e+01 +7.5094479580105713e+02 -7.8239665765781810e+03 -4.5365159258341528e+06 +1.0802578425149503e+08 
+7.3999999999999897e+00 -1.0329302576341222e+00 +2.2704138117072836e+00 +1.9739554868113778e+01 +7.4125657279967299e+02 -2.5134127508000242e+03 -4.5003826043595709e+06 +8.4098389798089623e+07 
+7.4999999999999893e+00 -1.0329300064258367e+00 +2.2712039172054737e+00 +1.9431596779353104e+01 +7.3172141733458170e+02 +2.7566480819847798e+03 -4.4647109061611192e+06 +6.0281251512409344e+07 
+7.5999999999999890e+00 -1.0329298218323451e+00 +2.2719862937237121e+00 +1.9128167716456066e+01 +7.2236764063288899e+02 +7.9770318547755314e+03 -4.4296411019201903e+06 +3.6617488826736815e+07 
+7.6999999999999886e+00 -1.0329297038378780e+00 +2.2727595618042531e+00 +1.8829720679988561e+01 +7.1322356037477800e+02 +1.3138555499862754e+04 -4.3953135025087129e+06 +1.3150216878876777e+07 
+7.7999999999999883e+00 -1.0329296524260769e+00 +2.2735223417954948e+00 +1.8536708619642962e+01 +7.0431750102103342e+02 +1.8232036722303976e+04 -4.3618684610013422e+06 -1.0077452391196318e+07 
+7.8999999999999879e+00 -1.0329296675799342e+00 +2.2742732538525403e+00 +1.8249584426675575e+01 +6.9567779379391129e+02 +2.3248294145714681e+04 -4.3294463724918095e+06 -3.3022410942110155e+07 
+7.9999999999999876e+00 -1.0329297492817577e+00 +2.2750109179384932e+00 +1.7968800930692275e+01 +6.8733277668805283e+02 +2.8178147365378598e+04 -4.2981876742501417e+06 -5.5641554867773302e+07 
+8.0999999999999872e+00 -1.0329298975131926e+00 +2.2757339538164314e+00 +1.7694810902058215e+01 +6.7931079475411866e+02 +3.3012416908080813e+04 -4.2682328474517809e+06 -7.7891784228089675e+07 
+8.1999999999999869e+00 -1.0329301122551382e+00 +2.2764409810475663e+00 +1.7428067042764180e+01 +6.7164020014627386e+02 +3.7741924394295682e+04 -4.2397224173838105e+06 -9.9730003791113153e+07 
+8.2999999999999865e+00 -1.0329303934877865e+00 +2.2771306189884544e+00 +1.7169021991175828e+01 +6.6434935226892912e+02 +4.2357492453596627e+04 -4.2127969544326290e+06 -1.2111312265492846e+08 
+8.3999999999999861e+00 -1.0329307411905710e+00 +2.2778014867896657e+00 +1.6918128316753812e+01 +6.5746661782673425e+02 +4.6849944813227354e+04 -4.1875970743489680e+06 -1.4199805463635761e+08 
+8.4999999999999858e+00 -1.0329311553421097e+00 +2.2784522034719550e+00 +1.6675838522060197e+01 +6.5102036695377171e+02 +5.1210105978710322e+04 -4.1642634156608554e+06 -1.6234171621428877e+08 
+8.5999999999999854e+00 -1.0329316352972837e+00 +2.2790820578932567e+00 +1.6442523486366966e+01 +6.4501785255161565e+02 +5.5429498104824350e+04 -4.1428178129458115e+06 -1.8210220457910565e+08 
+8.6999999999999851e+00 -1.0329321779357752e+00 +2.2796930295129973e+00 +1.6218159829384650e+01 +6.3938672773327767e+02 +5.9504528349395092e+04 -4.1228404573196992e+06 -2.0125407545772618e+08 
+8.7999999999999847e+00 -1.0329327795140819e+00 +2.2802877930155141e+00 +1.6002607040301726e+01 +6.3403522212395410e+02 +6.3433353806637708e+04 -4.1038051591406628e+06 -2.1977890738150018e+08 
+8.8999999999999844e+00 -1.0329334362901519e+00 +2.2808690235760296e+00 +1.5795724803276906e+01 +6.2887155207094838e+02 +6.7214128113765924e+04 -4.0851856491816770e+06 -2.3765826377891591e+08 
+8.9999999999999840e+00 -1.0329341445234974e+00 +2.2814393968048243e+00 +1.5597373023216871e+01 +6.2380392237695401e+02 +7.0845000879587518e+04 -4.0664555893631671e+06 -2.5487368999811873e+08 
+9.0999999999999837e+00 -1.0329349004753132e+00 +2.2820015887660792e+00 +1.5407411840392495e+01 +6.1874052581012381e+02 +7.4324117423274278e+04 -4.0470885699185538e+06 -2.7140671213110673e+08 
+9.1999999999999833e+00 -1.0329357004083572e+00 +2.2825582759912804e+00 +1.5225701615692259e+01 +6.1358954269412311e+02 +7.7649619062789367e+04 -4.0265581067944276e+06 -2.8723883842747754e+08 
+9.2999999999999829e+00 -1.0329365405871729e+00 +2.2831121354945858e+00 +1.5052102959697702e+01 +6.0825914051702694e+02 +8.0819642563840403e+04 -4.0043376393888872e+06 -3.0235155669420624e+08 
+9.3999999999999826e+00 -1.0329374172779979e+00 +2.2836658447866873e+00 +1.4886476720679582e+01 +6.0265747353402969e+02 +8.3832320385146217e+04 -3.9799005280965916e+06 -3.1672633553122401e+08 
+9.4999999999999822e+00 -1.0329383267488874e+00 +2.2842220818905470e+00 +1.4728684001151869e+01 +5.9669268233785181e+02 +8.6685780364393970e+04 -3.9527200517446352e+06 -3.3034462285573888e+08 
+9.5999999999999819e+00 -1.0329392652697440e+00 +2.2847835253573976e+00 +1.4578586161372678e+01 +5.9027289340219852e+02 +8.9378145667171411e+04 -3.9222694047916317e+06 -3.4318784572262549e+08 
+9.6999999999999815e+00 -1.0329402291123211e+00 +2.2853528542803492e+00 +1.4436044820835917e+01 +5.8330621874106498e+02 +9.1907534759592250e+04 -3.8880216953776842e+06 -3.5523741021561372e+08 
+9.7999999999999812e+00 -1.0329412145503523e+00 +2.2859327483084302e+00 +1.4300921874695959e+01 +5.7570075548555644e+02 +9.4272061108329726e+04 -3.8494499426405379e+06 -3.6647470007271147e+08 
+9.8999999999999808e+00 -1.0329422178594989e+00 +2.2865258876617376e+00 +1.4173079486820717e+01 +5.6736458548737357e+02 +9.6469833326123364e+04 -3.8060270743984296e+06 -3.7688107743661577e+08 
+9.9999999999999805e+00 -1.0329432353174743e+00 +2.2871349531511860e+00 +1.4052380106879538e+01 +5.5820577476077062e+02 +9.8498954843910818e+04 -3.7572259237896865e+06 -3.8643788130180264e+08 
+1.0099999999999980e+01 -1.0329442632040615e+00 +2.2877626261864399e+00 +1.3938686472149872e+01 +5.4813237328069124e+02 +1.0035752389437451e+05 -3.7025192280351217e+06 -3.9512642750868696e+08 
