# trajectory
# s[mm] rx[mm] ry[mm] rz[mm] px[rad] py[rad] pz[rad]
0.0000000000000000e+00 +9.1430000000000007e+00 +0.0000000000000000e+00 +0.0000000000000000e+00 +0.0000000000000000e+00 +0.0000000000000000e+00 +1.0000000000000000e+00
1.0000000000000001e-01 +9.1429994848014182e+00 +0.0000000000000000e+00 +9.9999999998230463e-02 -1.0303964927944932e-05 +0.0000000000000000e+00 +9.9999999994691413e-01
2.0000000000000001e-01 +9.1429979392083709e+00 +0.0000000000000000e+00 +1.9999999998584381e-01 -2.0607889184646667e-05 +0.0000000000000000e+00 +9.9999999978765741e-01
3.0000000000000004e-01 +9.1429953632249639e+00 +0.0000000000000000e+00 +2.9999999995222298e-01 -3.0911771963556327e-05 +0.0000000000000000e+00 +9.9999999952223118e-01
4.0000000000000002e-01 +9.1429917568553893e+00 +0.0000000000000000e+00 +3.9999999988675111e-01 -4.1215612416137446e-05 +0.0000000000000000e+00 +9.9999999915063664e-01
5.0000000000000000e-01 +9.1429871201039212e+00 +0.0000000000000000e+00 +4.9999999977881138e-01 -5.1519409651862697e-05 +0.0000000000000000e+00 +9.9999999867287526e-01
5.9999999999999998e-01 +9.1429814529749294e+00 +0.0000000000000000e+00 +5.9999999961778727e-01 -6.1823162742014249e-05 +0.0000000000000000e+00 +9.9999999808894835e-01
6.9999999999999996e-01 +9.1429747554728742e+00 +0.0000000000000000e+00 +6.9999999939306223e-01 -7.2126870761522342e-05 +0.0000000000000000e+00 +9.9999999739885737e-01
7.9999999999999993e-01 +9.1429670276023085e+00 +0.0000000000000000e+00 +7.9999999909401998e-01 -8.2430532830804688e-05 +0.0000000000000000e+00 +9.9999999660260375e-01
8.9999999999999991e-01 +9.1429582693678686e+00 +0.0000000000000000e+00 +8.9999999871004432e-01 -9.2734148119568338e-05 +0.0000000000000000e+00 +9.9999999570018905e-01
9.9999999999999989e-01 +9.1429484807742707e+00 +0.0000000000000000e+00 +9.9999999823051922e-01 -1.0303771584680812e-04 +0.0000000000000000e+00 +9.9999999469161471e-01
1.0999999999999999e+00 +9.1429376618263092e+00 +0.0000000000000000e+00 +1.0999999976448287e+00 -1.1334123528080558e-04 +0.0000000000000000e+00 +9.9999999357688230e-01
1.2000000000000000e+00 +9.1429258125288477e+00 +0.0000000000000000e+00 +1.1999999969423571e+00 -1.2364470573912817e-04 +0.0000000000000000e+00 +9.9999999235599346e-01
1.3000000000000000e+00 +9.1429129328868157e+00 +0.0000000000000000e+00 +1.2999999961124888e+00 -1.3394812658862901e-04 +0.0000000000000000e+00 +9.9999999102894976e-01
1.4000000000000001e+00 +9.1428990229052030e+00 +0.0000000000000000e+00 +1.3999999951446085e+00 -1.4425149724544696e-04 +0.0000000000000000e+00 +9.9999998959575287e-01
1.5000000000000002e+00 +9.1428840825890578e+00 +0.0000000000000000e+00 +1.4999999940281010e+00 -1.5455481717500716e-04 +0.0000000000000000e+00 +9.9999998805640433e-01
1.6000000000000003e+00 +9.1428681119434767e+00 +0.0000000000000000e+00 +1.5999999927523512e+00 -1.6485808589202189e-04 +0.0000000000000000e+00 +9.9999998641090582e-01
1.7000000000000004e+00 +9.1428511109736021e+00 +0.0000000000000000e+00 +1.6999999913067438e+00 -1.7516130296049199e-04 +0.0000000000000000e+00 +9.9999998465925899e-01
1.8000000000000005e+00 +9.1428330796846193e+00 +0.0000000000000000e+00 +1.7999999896806647e+00 -1.8546446799370852e-04 +0.0000000000000000e+00 +9.9999998280146551e-01
1.9000000000000006e+00 +9.1428140180817490e+00 +0.0000000000000000e+00 +1.8999999878634988e+00 -1.9576758065425494e-04 +0.0000000000000000e+00 +9.9999998083752706e-01
2.0000000000000004e+00 +9.1427939261702438e+00 +0.0000000000000000e+00 +1.9999999858446320e+00 -2.0607064065400967e-04 +0.0000000000000000e+00 +9.9999997876744540e-01
2.1000000000000005e+00 +9.1427728039553813e+00 +0.0000000000000000e+00 +2.0999999836134497e+00 -2.1637364775414910e-04 +0.0000000000000000e+00 +9.9999997659122208e-01
2.2000000000000006e+00 +9.1427506514424621e+00 +0.0000000000000000e+00 +2.1999999811593383e+00 -2.2667660176515088e-04 +0.0000000000000000e+00 +9.9999997430885890e-01
2.3000000000000007e+00 +9.1427274686368030e+00 +0.0000000000000000e+00 +2.2999999784716834e+00 -2.3697950254679780e-04 +0.0000000000000000e+00 +9.9999997192035739e-01
2.4000000000000008e+00 +9.1427032555437311e+00 +0.0000000000000000e+00 +2.3999999755398718e+00 -2.4728235000818192e-04 +0.0000000000000000e+00 +9.9999996942571934e-01
2.5000000000000009e+00 +9.1426780121685809e+00 +0.0000000000000000e+00 +2.4999999723532893e+00 -2.5758514410770923e-04 +0.0000000000000000e+00 +9.9999996682494630e-01
2.6000000000000010e+00 +9.1426517385166886e+00 +0.0000000000000000e+00 +2.5999999689013231e+00 -2.6788788485076229e-04 +0.0000000000000000e+00 +9.9999996411804004e-01
2.7000000000000011e+00 +9.1426244345933885e+00 +0.0000000000000000e+00 +2.6999999651733595e+00 -2.7819057226393935e-04 +0.0000000000000000e+00 +9.9999996130500213e-01
2.8000000000000012e+00 +9.1425961004040133e+00 +0.0000000000000000e+00 +2.7999999611587856e+00 -2.8849320636929076e-04 +0.0000000000000000e+00 +9.9999995838583422e-01
2.9000000000000012e+00 +9.1425667359538920e+00 +0.0000000000000000e+00 +2.8999999568469885e+00 -2.9879578718197735e-04 +0.0000000000000000e+00 +9.9999995536053798e-01
3.0000000000000013e+00 +9.1425363412483538e+00 +0.0000000000000000e+00 +2.9999999522273555e+00 -3.0909831471027076e-04 +0.0000000000000000e+00 +9.9999995222911497e-01
3.1000000000000014e+00 +9.1425049162927259e+00 +0.0000000000000000e+00 +3.0999999472892741e+00 -3.1940078895555400e-04 +0.0000000000000000e+00 +9.9999994899156686e-01
3.2000000000000015e+00 +9.1424724610923391e+00 +0.0000000000000000e+00 +3.1999999420221314e+00 -3.2970320991232156e-04 +0.0000000000000000e+00 +9.9999994564789541e-01
3.3000000000000016e+00 +9.1424389756525208e+00 +0.0000000000000000e+00 +3.2999999364153156e+00 -3.4000557756817969e-04 +0.0000000000000000e+00 +9.9999994219810218e-01
3.4000000000000017e+00 +9.1424044599786036e+00 +0.0000000000000000e+00 +3.3999999304582147e+00 -3.5030789190384657e-04 +0.0000000000000000e+00 +9.9999993864218883e-01
3.5000000000000018e+00 +9.1423689140759183e+00 +0.0000000000000000e+00 +3.4999999241402162e+00 -3.6061015289315216e-04 +0.0000000000000000e+00 +9.9999993498015693e-01
3.6000000000000019e+00 +9.1423323379498029e+00 +0.0000000000000000e+00 +3.5999999174507087e+00 -3.7091236050303833e-04 +0.0000000000000000e+00 +9.9999993121200825e-01
3.7000000000000020e+00 +9.1422947316055971e+00 +0.0000000000000000e+00 +3.6999999103790806e+00 -3.8121451469355855e-04 +0.0000000000000000e+00 +9.9999992733774445e-01
3.8000000000000020e+00 +9.1422560950486460e+00 +0.0000000000000000e+00 +3.7999999029147205e+00 -3.9151661541787786e-04 +0.0000000000000000e+00 +9.9999992335736720e-01
3.9000000000000021e+00 +9.1422164282842981e+00 +0.0000000000000000e+00 +3.8999998950470172e+00 -4.0181866262227223e-04 +0.0000000000000000e+00 +9.9999991927087817e-01
4.0000000000000018e+00 +9.1421757313179075e+00 +0.0000000000000000e+00 +3.9999998867653592e+00 -4.1212065624612849e-04 +0.0000000000000000e+00 +9.9999991507827901e-01
4.1000000000000014e+00 +9.1421340041548369e+00 +0.0000000000000000e+00 +4.0999998780591360e+00 -4.2242259622194366e-04 +0.0000000000000000e+00 +9.9999991077957140e-01
4.2000000000000011e+00 +9.1420912468004545e+00 +0.0000000000000000e+00 +4.1999998689177369e+00 -4.3272448247532434e-04 +0.0000000000000000e+00 +9.9999990637475700e-01
4.3000000000000007e+00 +9.1420474592601355e+00 +0.0000000000000000e+00 +4.2999998593305513e+00 -4.4302631492498616e-04 +0.0000000000000000e+00 +9.9999990186383758e-01
4.4000000000000004e+00 +9.1420026415392659e+00 +0.0000000000000000e+00 +4.3999998492869681e+00 -4.5332809348275297e-04 +0.0000000000000000e+00 +9.9999989724681482e-01
4.5000000000000000e+00 +9.1419567936432387e+00 +0.0000000000000000e+00 +4.4999998387763771e+00 -4.6362981805355585e-04 +0.0000000000000000e+00 +9.9999989252369037e-01
4.5999999999999996e+00 +9.1419099155774575e+00 +0.0000000000000000e+00 +4.5999998277881691e+00 -4.7393148853716133e-04 +0.0000000000000000e+00 +9.9999988769446602e-01
4.6999999999999993e+00 +9.1418620073473367e+00 +0.0000000000000000e+00 +4.6999998163117338e+00 -4.8423310484718772e-04 +0.0000000000000000e+00 +9.9999988275914342e-01
4.7999999999999989e+00 +9.1418130689582959e+00 +0.0000000000000000e+00 +4.7999998043364611e+00 -4.9453466693012238e-04 +0.0000000000000000e+00 +9.9999987771772436e-01
4.8999999999999986e+00 +9.1417631004157585e+00 +0.0000000000000000e+00 +4.8999997918517417e+00 -5.0483617476705005e-04 +0.0000000000000000e+00 +9.9999987257021039e-01
4.9999999999999982e+00 +9.1417121017251493e+00 +0.0000000000000000e+00 +4.9999997788469663e+00 -5.1513762837365230e-04 +0.0000000000000000e+00 +9.9999986731660329e-01
5.0999999999999979e+00 +9.1416600728918898e+00 +0.0000000000000000e+00 +5.0999997653115257e+00 -5.2543902780020706e-04 +0.0000000000000000e+00 +9.9999986195690471e-01
5.1999999999999975e+00 +9.1416070139213925e+00 +0.0000000000000000e+00 +5.1999997512348104e+00 -5.3574037313158817e-04 +0.0000000000000000e+00 +9.9999985649111622e-01
5.2999999999999972e+00 +9.1415529248190630e+00 +0.0000000000000000e+00 +5.2999997366062122e+00 -5.4604166448726473e-04 +0.0000000000000000e+00 +9.9999985091923949e-01
5.3999999999999968e+00 +9.1414978055902907e+00 +0.0000000000000000e+00 +5.3999997214151216e+00 -5.5634290202130035e-04 +0.0000000000000000e+00 +9.9999984524127594e-01
5.4999999999999964e+00 +9.1414416562404472e+00 +0.0000000000000000e+00 +5.4999997056509304e+00 -5.6664408592235250e-04 +0.0000000000000000e+00 +9.9999983945722726e-01
5.5999999999999961e+00 +9.1413844767748866e+00 +0.0000000000000000e+00 +5.5999996893030302e+00 -5.7694521641367175e-04 +0.0000000000000000e+00 +9.9999983356709499e-01
5.6999999999999957e+00 +9.1413262671989362e+00 +0.0000000000000000e+00 +5.6999996723608133e+00 -5.8724629375310087e-04 +0.0000000000000000e+00 +9.9999982757088057e-01
5.7999999999999954e+00 +9.1412670275178982e+00 +0.0000000000000000e+00 +5.7999996548136705e+00 -5.9754731823307436e-04 +0.0000000000000000e+00 +9.9999982146858546e-01
5.8999999999999950e+00 +9.1412067577370415e+00 +0.0000000000000000e+00 +5.8999996366509944e+00 -6.0784829018061708e-04 +0.0000000000000000e+00 +9.9999981526021120e-01
5.9999999999999947e+00 +9.1411454578616009e+00 +0.0000000000000000e+00 +5.9999996178621773e+00 -6.1814920995734374e-04 +0.0000000000000000e+00 +9.9999980894575902e-01
6.0999999999999943e+00 +9.1410831278967759e+00 +0.0000000000000000e+00 +6.0999995984366109e+00 -6.2845007795945748e-04 +0.0000000000000000e+00 +9.9999980252523046e-01
6.1999999999999940e+00 +9.1410197678477214e+00 +0.0000000000000000e+00 +6.1999995783636876e+00 -6.3875089461774934e-04 +0.0000000000000000e+00 +9.9999979599862676e-01
6.2999999999999936e+00 +9.1409553777195480e+00 +0.0000000000000000e+00 +6.2999995576328001e+00 -6.4905166039759684e-04 +0.0000000000000000e+00 +9.9999978936594913e-01
6.3999999999999932e+00 +9.1408899575173201e+00 +0.0000000000000000e+00 +6.3999995362333415e+00 -6.5935237579896290e-04 +0.0000000000000000e+00 +9.9999978262719891e-01
6.4999999999999929e+00 +9.1408235072460489e+00 +0.0000000000000000e+00 +6.4999995141547044e+00 -6.6965304135639474e-04 +0.0000000000000000e+00 +9.9999977578237720e-01
6.5999999999999925e+00 +9.1407560269106902e+00 +0.0000000000000000e+00 +6.5999994913862814e+00 -6.7995365763780236e-04 +0.0000000000000000e+00 +9.9999976883148523e-01
6.6999999999999922e+00 +9.1406875165161434e+00 +0.0000000000000000e+00 +6.6999994679174657e+00 -6.9025422523103094e-04 +0.0000000000000000e+00 +9.9999976177452410e-01
6.7999999999999918e+00 +9.1406179760672472e+00 +0.0000000000000000e+00 +6.7999994437376508e+00 -7.0055474473043383e-04 +0.0000000000000000e+00 +9.9999975461149493e-01
6.8999999999999915e+00 +9.1405474055687801e+00 +0.0000000000000000e+00 +6.8999994188362290e+00 -7.1085521673565051e-04 +0.0000000000000000e+00 +9.9999974734239871e-01
6.9999999999999911e+00 +9.1404758050254618e+00 +0.0000000000000000e+00 +6.9999993932025948e+00 -7.2115564185160541e-04 +0.0000000000000000e+00 +9.9999973996723657e-01
7.0999999999999908e+00 +9.1404031744419516e+00 +0.0000000000000000e+00 +7.0999993668261405e+00 -7.3145602068850648e-04 +0.0000000000000000e+00 +9.9999973248600937e-01
7.1999999999999904e+00 +9.1403295138228469e+00 +0.0000000000000000e+00 +7.1999993396962605e+00 -7.4175635386184390e-04 +0.0000000000000000e+00 +9.9999972489871813e-01
7.2999999999999901e+00 +9.1402548231726808e+00 +0.0000000000000000e+00 +7.2999993118023481e+00 -7.5205664199238869e-04 +0.0000000000000000e+00 +9.9999971720536385e-01
7.3999999999999897e+00 +9.1401791024959280e+00 +0.0000000000000000e+00 +7.3999992831337975e+00 -7.6235688570619096e-04 +0.0000000000000000e+00 +9.9999970940594740e-01
7.4999999999999893e+00 +9.1401023517969993e+00 +0.0000000000000000e+00 +7.4999992536800022e+00 -7.7265708563457880e-04 +0.0000000000000000e+00 +9.9999970150046968e-01
7.5999999999999890e+00 +9.1400245710802395e+00 +0.0000000000000000e+00 +7.5999992234303564e+00 -7.8295724241415649e-04 +0.0000000000000000e+00 +9.9999969348893147e-01
7.6999999999999886e+00 +9.1399457603499332e+00 +0.0000000000000000e+00 +7.6999991923742535e+00 -7.9325735668680294e-04 +0.0000000000000000e+00 +9.9999968537133366e-01
7.7999999999999883e+00 +9.1398659196102976e+00 +0.0000000000000000e+00 +7.7999991605010877e+00 -8.0355742909966996e-04 +0.0000000000000000e+00 +9.9999967714767712e-01
7.8999999999999879e+00 +9.1397850488654875e+00 +0.0000000000000000e+00 +7.8999991278002533e+00 -8.1385746030518066e-04 +0.0000000000000000e+00 +9.9999966881796243e-01
7.9999999999999876e+00 +9.1397031481195885e+00 +0.0000000000000000e+00 +7.9999990942611445e+00 -8.2415745096102780e-04 +0.0000000000000000e+00 +9.9999966038219046e-01
8.0999999999999872e+00 +9.1396202173766241e+00 +0.0000000000000000e+00 +8.0999990598731557e+00 -8.3445740173017174e-04 +0.0000000000000000e+00 +9.9999965184036188e-01
8.1999999999999869e+00 +9.1395362566405502e+00 +0.0000000000000000e+00 +8.1999990246256811e+00 -8.4475731328083890e-04 +0.0000000000000000e+00 +9.9999964319247736e-01
8.2999999999999865e+00 +9.1394512659152536e+00 +0.0000000000000000e+00 +8.2999989885081149e+00 -8.5505718628651984e-04 +0.0000000000000000e+00 +9.9999963443853745e-01
8.3999999999999861e+00 +9.1393652452045551e+00 +0.0000000000000000e+00 +8.3999989515098523e+00 -8.6535702142596731e-04 +0.0000000000000000e+00 +9.9999962557854283e-01
8.4999999999999858e+00 +9.1392781945122081e+00 +0.0000000000000000e+00 +8.4999989136202885e+00 -8.7565681938319405e-04 +0.0000000000000000e+00 +9.9999961661249404e-01
8.5999999999999854e+00 +9.1391901138418952e+00 +0.0000000000000000e+00 +8.5999988748288168e+00 -8.8595658084724034e-04 +0.0000000000000000e+00 +9.9999960754039163e-01
8.6999999999999851e+00 +9.1391010031972311e+00 +0.0000000000000000e+00 +8.6999988351248323e+00 -8.9625630650963159e-04 +0.0000000000000000e+00 +9.9999959836223606e-01
8.7999999999999847e+00 +9.1390108625817632e+00 +0.0000000000000000e+00 +8.7999987944977285e+00 -9.0655599706183779e-04 +0.0000000000000000e+00 +9.9999958907802788e-01
8.8999999999999844e+00 +9.1389196919989661e+00 +0.0000000000000000e+00 +8.8999987529369022e+00 -9.1685565319504379e-04 +0.0000000000000000e+00 +9.9999957968776754e-01
8.9999999999999840e+00 +9.1388274914522487e+00 +0.0000000000000000e+00 +8.9999987104317469e+00 -9.2715527560015027e-04 +0.0000000000000000e+00 +9.9999957019145536e-01
9.0999999999999837e+00 +9.1387342609449487e+00 +0.0000000000000000e+00 +9.0999986669716577e+00 -9.3745486496777460e-04 +0.0000000000000000e+00 +9.9999956058909178e-01
9.1999999999999833e+00 +9.1386400004803345e+00 +0.0000000000000000e+00 +9.1999986225460297e+00 -9.4775442198825216e-04 +0.0000000000000000e+00 +9.9999955088067716e-01
9.2999999999999829e+00 +9.1385447100616073e+00 +0.0000000000000000e+00 +9.2999985771442581e+00 -9.5805394735163773e-04 +0.0000000000000000e+00 +9.9999954106621192e-01
9.3999999999999826e+00 +9.1384483896918969e+00 +0.0000000000000000e+00 +9.3999985307557381e+00 -9.6835344174770626e-04 +0.0000000000000000e+00 +9.9999953114569629e-01
9.4999999999999822e+00 +9.1383510393742675e+00 +0.0000000000000000e+00 +9.4999984833698630e+00 -9.7865290586595429e-04 +0.0000000000000000e+00 +9.9999952111913049e-01
9.5999999999999819e+00 +9.1382526591117106e+00 +0.0000000000000000e+00 +9.5999984349760297e+00 -9.8895234039560165e-04 +0.0000000000000000e+00 +9.9999951098651485e-01
9.6999999999999815e+00 +9.1381532489071517e+00 +0.0000000000000000e+00 +9.6999983855636316e+00 -9.9925174602559226e-04 +0.0000000000000000e+00 +9.9999950074784960e-01
9.7999999999999812e+00 +9.1380528087634456e+00 +0.0000000000000000e+00 +9.7999983351220639e+00 -1.0095511234445957e-03 +0.0000000000000000e+00 +9.9999949040313496e-01
9.8999999999999808e+00 +9.1379513386833793e+00 +0.0000000000000000e+00 +9.8999982836407234e+00 -1.0198504733410088e-03 +0.0000000000000000e+00 +9.9999947995237104e-01
9.9999999999999805e+00 +9.1378488386696706e+00 +0.0000000000000000e+00 +9.9999982311090037e+00 -1.0301497964029568e-03 +0.0000000000000000e+00 +9.9999946939555795e-01
1.0099999999999980e+01 +9.1377453087249698e+00 +0.0000000000000000e+00 +1.0099998177516300e+01 -1.0404490933182949e-03 +0.0000000000000000e+00 +9.9999945873269580e-01
1.0199999999999980e+01 +9.1376407488518563e+00 +0.0000000000000000e+00 +1.0199998122852007e+01 -1.0507483647746103e-03 +0.0000000000000000e+00 +9.9999944796378482e-01
1.0299999999999979e+01 +9.1375351590528417e+00 +0.0000000000000000e+00 +1.0299998067105522e+01 -1.0610476114592230e-03 +0.0000000000000000e+00 +9.9999943708882488e-01
1.0399999999999979e+01 +9.1374285393303687e+00 +0.0000000000000000e+00 +1.0399998010266238e+01 -1.0713468340591882e-03 +0.0000000000000000e+00 +9.9999942610781611e-01
1.0499999999999979e+01 +9.1373208896868103e+00 +0.0000000000000000e+00 +1.0499997952323550e+01 -1.0816460332612971e-03 +0.0000000000000000e+00 +9.9999941502075851e-01
1.0599999999999978e+01 +9.1372122101244742e+00 +0.0000000000000000e+00 +1.0599997893266854e+01 -1.0919452097517587e-03 +0.0000000000000000e+00 +9.9999940382765196e-01
1.0699999999999978e+01 +9.1371025006455948e+00 +0.0000000000000000e+00 +1.0699997833085545e+01 -1.1022443642126724e-03 +0.0000000000000000e+00 +9.9999939252849646e-01
1.0799999999999978e+01 +9.1369917612523430e+00 +0.0000000000000000e+00 +1.0799997771769018e+01 -1.1125434973185055e-03 +0.0000000000000000e+00 +9.9999938112329201e-01
1.0899999999999977e+01 +9.1368799919468202e+00 +0.0000000000000000e+00 +1.0899997709306668e+01 -1.1228426097357805e-03 +0.0000000000000000e+00 +9.9999936961203839e-01
1.0999999999999977e+01 +9.1367671927310639e+00 +0.0000000000000000e+00 +1.0999997645687889e+01 -1.1331417021230839e-03 +0.0000000000000000e+00 +9.9999935799473560e-01
1.1099999999999977e+01 +9.1366533636070422e+00 +0.0000000000000000e+00 +1.1099997580902079e+01 -1.1434407751310747e-03 +0.0000000000000000e+00 +9.9999934627138343e-01
1.1199999999999976e+01 +9.1365385045766612e+00 +0.0000000000000000e+00 +1.1199997514938630e+01 -1.1537398294024939e-03 +0.0000000000000000e+00 +9.9999933444198175e-01
1.1299999999999976e+01 +9.1364226156417647e+00 +0.0000000000000000e+00 +1.1299997447786939e+01 -1.1640388655721737e-03 +0.0000000000000000e+00 +9.9999932250653045e-01
1.1399999999999975e+01 +9.1363056968041292e+00 +0.0000000000000000e+00 +1.1399997379436401e+01 -1.1743378842670466e-03 +0.0000000000000000e+00 +9.9999931046502932e-01
1.1499999999999975e+01 +9.1361877480654723e+00 +0.0000000000000000e+00 +1.1499997309876411e+01 -1.1846368861061559e-03 +0.0000000000000000e+00 +9.9999929831747814e-01
1.1599999999999975e+01 +9.1360687694274496e+00 +0.0000000000000000e+00 +1.1599997239096362e+01 -1.1949358717006646e-03 +0.0000000000000000e+00 +9.9999928606387667e-01
1.1699999999999974e+01 +9.1359487608916545e+00 +0.0000000000000000e+00 +1.1699997167085652e+01 -1.2052348416538663e-03 +0.0000000000000000e+00 +9.9999927370422470e-01
1.1799999999999974e+01 +9.1358277224596200e+00 +0.0000000000000000e+00 +1.1799997093833673e+01 -1.2155337965611948e-03 +0.0000000000000000e+00 +9.9999926123852201e-01
