# multipoles
# s[mm] polynom_b[n=0][T/m^n] polynom_b[n=1][T/m^n] polynom_b[n=2][T/m^n] polynom_b[n=3][T/m^n] polynom_b[n=4][T/m^n] polynom_b[n=5][T/m^n] polynom_b[n=6][T/m^n] 
+0.0000000000000000e+00 -1.0337761572260706e+00 +2.2880405928695096e+00 +1.8764922162105616e+01 +2.9495800893750851e+02 +3.9589165488401290e+04 -1.5437533496922283e+06 -1.6478895369766879e+08 
+1.0000000000000001e-01 -1.0337755400578803e+00 +2.2882385679847888e+00 +1.8744589181470424e+01 +2.8609409776650705e+02 +4.0093522602898251e+04 -1.4758088301698677e+06 -1.6771187173233944e+08 
+2.0000000000000001e-01 -1.0337748972960898e+00 +2.2884211764290918e+00 +1.8722012374519238e+01 +2.7746776203303176e+02 +4.0631026966516722e+04 -1.4087970148785089e+06 -1.7076907909660926e+08 
+3.0000000000000004e-01 -1.0337742241241827e+00 +2.2885855497071135e+00 +1.8696890865377739e+01 +2.6914178978043822e+02 +4.1206717440944514e+04 -1.3430617139547069e+06 -1.7398296683957753e+08 
+4.0000000000000002e-01 -1.0337735157254508e+00 +2.2887288193502999e+00 +1.8668923761068893e+01 +2.6117896836044577e+02 +4.1825633181521895e+04 -1.2789467338830330e+06 -1.7737592738495824e+08 
+5.0000000000000000e-01 -1.0337727672829720e+00 +2.2888481169182433e+00 +1.8637810150347647e+01 +2.5364208441576457e+02 +4.2492813654496065e+04 -1.2167958774292979e+06 -1.8097035460651192e+08 
+5.9999999999999998e-01 -1.0337719754037857e+00 +2.2889414023181844e+00 +1.8603339943350608e+01 +2.4657730131524448e+02 +4.3212017857706742e+04 -1.1568719558971499e+06 -1.8478358943116286e+08 
+6.9999999999999996e-01 -1.0337711424233347e+00 +2.2890099493424434e+00 +1.8565665777929190e+01 +2.3996423236356824e+02 +4.3981893495311764e+04 -1.0991133798873953e+06 -1.8881280585400549e+08 
+7.9999999999999993e-01 -1.0337702721169841e+00 +2.2890558604240248e+00 +1.8525030802779344e+01 +2.3376583822974953e+02 +4.4799813698602942e+04 -1.0433773463128753e+06 -1.9305015034611413e+08 
+8.9999999999999991e-01 -1.0337693682600162e+00 +2.2890812380063879e+00 +1.8481678158355141e+01 +2.2794507917524444e+02 +4.5663151773705802e+04 -9.8952104924738617e+05 -1.9748777030097198e+08 
+9.9999999999999989e-01 -1.0337684346275611e+00 +2.2890881845438331e+00 +1.8435850966670291e+01 +2.2246491501293920e+02 +4.6569281409111434e+04 -9.3740167953878269e+05 -2.0211781505101502e+08 
+1.0999999999999999e+00 -1.0337674749946226e+00 +2.2890788024862632e+00 +1.8387792332571667e+01 +2.1728830550524697e+02 +4.7515576664903725e+04 -8.8687642693365575e+05 -2.0693243584480742e+08 
+1.2000000000000000e+00 -1.0337664931362214e+00 +2.2890551942889292e+00 +1.8337745361429416e+01 +2.1237821000314469e+02 +4.8499411644070002e+04 -8.3780247767932597e+05 -2.1192378429784051e+08 
+1.3000000000000000e+00 -1.0337654928272404e+00 +2.2890194623969786e+00 +1.8285953136503448e+01 +2.0769758788866113e+02 +4.9518160947289733e+04 -7.9003701702189248e+05 -2.1708401461729944e+08 
+1.4000000000000001e+00 -1.0337644778426116e+00 +2.2889737092455715e+00 +1.8232658742625809e+01 +2.0320939849093440e+02 +5.0569199220751085e+04 -7.4343722841894615e+05 -2.2240528143345767e+08 
+1.5000000000000002e+00 -1.0337634519572272e+00 +2.2889200372598935e+00 +1.8178105252156310e+01 +1.9887660106831882e+02 +5.1649901449335841e+04 -6.9786029332556308e+05 -2.2787974126342708e+08 
+1.6000000000000003e+00 -1.0337624189460091e+00 +2.2888605488417526e+00 +1.8122535733358657e+01 +1.9466215511499095e+02 +5.2757642800394067e+04 -6.5316339266650833e+05 -2.3349955176624206e+08 
+1.7000000000000004e+00 -1.0337613825839236e+00 +2.2887973463711981e+00 +1.8066193249544835e+01 +1.9052902030304662e+02 +5.3889798661447894e+04 -6.0920370640363323e+05 -2.3925687197373796e+08 
+1.8000000000000005e+00 -1.0337603466460616e+00 +2.2887325322062182e+00 +1.8009320868892431e+01 +1.8644015642069616e+02 +5.5043744458469366e+04 -5.6583841291777522e+05 -2.4514386143320304e+08 
+1.9000000000000006e+00 -1.0337593149075133e+00 +2.2886682086678554e+00 +1.7952161646369209e+01 +1.8235852376587556e+02 +5.6216856017511418e+04 -5.2292469110978546e+05 -2.5115268196714675e+08 
+2.0000000000000004e+00 -1.0337582911435497e+00 +2.2886064780461122e+00 +1.7894958644931052e+01 +1.7824708292273601e+02 +5.7406509175074687e+04 -4.8031971889740293e+05 -2.5727549585073099e+08 
+2.1000000000000005e+00 -1.0337572791295748e+00 +2.2885494425890824e+00 +1.7837954928826402e+01 +1.7406879503928255e+02 +5.8610079915199320e+04 -4.3788067464314244e+05 -2.6350446648453307e+08 
+2.2000000000000006e+00 -1.0337562826411273e+00 +2.2884992045070867e+00 +1.7781393561581780e+01 +1.6978662165052191e+02 +5.9824944422051864e+04 -3.9546473590720003e+05 -2.6983175867297733e+08 
+2.3000000000000007e+00 -1.0337553054539839e+00 +2.2884578659579633e+00 +1.7725517618499630e+01 +1.6536352506164724e+02 +6.1048478851025910e+04 -3.5292908148308424e+05 -2.7624953755410337e+08 
+2.4000000000000008e+00 -1.0337543513440755e+00 +2.2884275290468303e+00 +1.7670570172251821e+01 +1.6076246831174302e+02 +6.2278059630444106e+04 -3.1013089099260367e+05 -2.8274997010290343e+08 
+2.5000000000000009e+00 -1.0337534240875943e+00 +2.2884102958301109e+00 +1.7616794307878596e+01 +1.5594641496040933e+02 +6.3511063164072773e+04 -2.6692734325501759e+05 -2.8932522366554916e+08 
+2.6000000000000010e+00 -1.0337525264776051e+00 +2.2884078692138181e+00 +1.7564359181186955e+01 +1.5088499958560078e+02 +6.4745430015905666e+04 -2.2319383298827370e+05 -2.9596800327693594e+08 
+2.7000000000000011e+00 -1.0337516573396834e+00 +2.2884203294105676e+00 +1.7513145837688164e+01 +1.4557653739639559e+02 +6.5981240333918933e+04 -1.7889176206703309e+05 -3.0267302871294487e+08 
+2.8000000000000012e+00 -1.0337508144986933e+00 +2.2884473442602049e+00 +1.7462965210486303e+01 +1.4002700380414086e+02 +6.7219077053321264e+04 -1.3400716445973446e+05 -3.0943546995569932e+08 
+2.9000000000000012e+00 -1.0337499957795753e+00 +2.2884885816513512e+00 +1.7413628240243085e+01 +1.3424237310199658e+02 +6.8459522946902565e+04 -8.8526068969662112e+04 -3.1625049616472381e+08 
+3.0000000000000013e+00 -1.0337491990074388e+00 +2.2885437095321395e+00 +1.7364945887840964e+01 +1.2822861820975004e+02 +6.9703160370245590e+04 -4.2434498189372265e+04 -3.2311327441146922e+08 
+3.1000000000000014e+00 -1.0337484220074009e+00 +2.2886123959161497e+00 +1.7316729113629698e+01 +1.2199171056748456e+02 +7.0950571652815881e+04 +4.2815318275052423e+03 -3.3001897153197384e+08 
+3.2000000000000015e+00 -1.0337476626047297e+00 +2.2886943088815634e+00 +1.7268788897420155e+01 +1.1553762021173701e+02 +7.2202338694497244e+04 +5.1636010857213776e+04 -3.3696275214116001e+08 
+3.3000000000000016e+00 -1.0337469186247803e+00 +2.2887891165867726e+00 +1.7220936230445002e+01 +1.0887231541136755e+02 +7.3459043117758905e+04 +9.9642936258473070e+04 -3.4393977936179829e+08 
+3.4000000000000017e+00 -1.0337461878930299e+00 +2.2888964872731710e+00 +1.7172982119322498e+01 +1.0200176262446173e+02 +7.4721266179863858e+04 +1.4831631300085469e+05 -3.5094521436576575e+08 
+3.5000000000000018e+00 -1.0337454682350697e+00 +2.2890160892653322e+00 +1.7124737588042411e+01 +9.4931926564652244e+01 +7.5989588713333651e+04 +1.9767015296762125e+05 -3.5797421603585088e+08 
+3.6000000000000019e+00 -1.0337447574765863e+00 +2.2891475909893404e+00 +1.7076013674313451e+01 +8.7668769743693531e+01 +7.7264591194640088e+04 +2.4771847728342985e+05 -3.6502194129086423e+08 
+3.7000000000000020e+00 -1.0337440534434026e+00 +2.2892906609661017e+00 +1.7026621436079029e+01 +8.0218252712877344e+01 +7.8546853605588563e+04 +2.9847531467101898e+05 -3.7208354438606846e+08 
+3.8000000000000020e+00 -1.0337433539614633e+00 +2.2894449678277180e+00 +1.6976371950583886e+01 +7.2586333661801788e+01 +7.9836955433858486e+04 +3.4995470345440868e+05 -3.7915417686620063e+08 
+3.9000000000000021e+00 -1.0337426568568324e+00 +2.2896101803154805e+00 +1.6925076313743514e+01 +6.4778968536967866e+01 +8.1135475684858116e+04 +4.0217069058486144e+05 -3.8622898762689877e+08 
+4.0000000000000018e+00 -1.0337419599557101e+00 +2.2897859672921053e+00 +1.6872545644261063e+01 +5.6802110743677723e+01 +8.2442992779278706e+04 +4.5513733310477081e+05 -3.9330312235755020e+08 
+4.1000000000000014e+00 -1.0337412610844205e+00 +2.2899719977457571e+00 +1.6818591081758196e+01 +4.8661711118347384e+01 +8.3760084584911732e+04 +5.0886869793260499e+05 -4.0037172368564522e+08 
+4.2000000000000011e+00 -1.0337405580694281e+00 +2.2901679407938325e+00 +1.6763023789588100e+01 +4.0363717841805382e+01 +8.5087328351155069e+04 +5.6337886219657515e+05 -4.0742993083107495e+08 
+4.3000000000000007e+00 -1.0337398487373601e+00 +2.2903734656941541e+00 +1.6705654958721361e+01 +3.1914076217168301e+01 +8.6425300618374808e+04 +6.1868191411888436e+05 -4.1447287912915206e+08 
+4.4000000000000004e+00 -1.0337391309149739e+00 +2.2905882418438481e+00 +1.6646295804044126e+01 +2.3318728736120150e+01 +8.7774577281823455e+04 +6.7479195241602068e+05 -4.2149570031917071e+08 
+4.5000000000000000e+00 -1.0337384024291663e+00 +2.2908119387908270e+00 +1.6584757565186322e+01 +1.4583615046281489e+01 +8.9135733592175777e+04 +7.3172308512557007e+05 -4.2849352264994860e+08 
+4.5999999999999996e+00 -1.0337376620413536e+00 +2.2910439963663420e+00 +1.6520947375576107e+01 +5.7222369833286564e+00 +9.0508170120487033e+04 +7.8943613878377632e+05 -4.3545779513293970e+08 
+4.6999999999999993e+00 -1.0337369122675806e+00 +2.2912829271162884e+00 +1.6455171129814492e+01 -3.2234404326281254e+00 +9.1886133935072256e+04 +8.4769314462543267e+05 -4.4236215811028486e+08 
+4.7999999999999989e+00 -1.0337361565704022e+00 +2.2915270069968270e+00 +1.6387838793627850e+01 -1.2204668464003573e+01 +9.3262464237069551e+04 +9.0620906796216092e+05 -4.4917501357435209e+08 
+4.8999999999999986e+00 -1.0337353984117796e+00 +2.2917745119080553e+00 +1.6319360256442433e+01 -2.1172696230232265e+01 +9.4630001641931347e+04 +9.6469885918664304e+05 -4.5586476995219928e+08 
+4.9999999999999982e+00 -1.0337346412531805e+00 +2.2920237176944012e+00 +1.6250145344403848e+01 -3.0078770703147185e+01 +9.5981587927319837e+04 +1.0228774544040348e+06 -4.6239984095120674e+08 
+5.0999999999999979e+00 -1.0337338885554941e+00 +2.2922729001412248e+00 +1.6180603809411274e+01 -3.8874136635419312e+01 +9.7310066243711684e+04 +1.0804597751332503e+06 -4.6874864656207895e+08 
+5.1999999999999975e+00 -1.0337331437790129e+00 +2.2925203349632031e+00 +1.6111145327067554e+01 -4.7510036170455471e+01 +9.8608281150625407e+04 +1.1371607258782969e+06 -4.7487961321654415e+08 
+5.2999999999999972e+00 -1.0337324103833754e+00 +2.2927642978038576e+00 +1.6042179488651058e+01 -5.5937708848814459e+01 +9.9869078772638924e+04 +1.1926951942633537e+06 -4.8076117453365713e+08 
+5.3999999999999968e+00 -1.0337316918275743e+00 +2.2930030642359562e+00 +1.5974115803131273e+01 -6.4108391599791332e+01 +1.0108530675659963e+05 +1.2467780509399825e+06 -4.8636177109881371e+08 
+5.4999999999999964e+00 -1.0337309915698951e+00 +2.2932349097474893e+00 +1.5907363689118462e+01 -7.1973318318870454e+01 +1.0224981442325554e+05 +1.2991241470896003e+06 -4.9164985117380536e+08 
+5.5999999999999961e+00 -1.0337303130679167e+00 +2.2934581097405480e+00 +1.5842332474802845e+01 -7.9483719837147632e+01 +1.0335545277051210e+05 +1.3494483142927175e+06 -4.9659387071431607e+08 
+5.6999999999999957e+00 -1.0337296597784160e+00 +2.2936709395272024e+00 +1.5779431386234295e+01 -8.6590823775809369e+01 +1.0439507469156117e+05 +1.3974653636093226e+06 -5.0116229438688111e+08 
+5.7999999999999954e+00 -1.0337290351574415e+00 +2.2938716743193490e+00 +1.5719069556492290e+01 -9.3245854250500400e+01 +1.0536153480257257e+05 +1.4428900838840730e+06 -5.0532359474998647e+08 
+5.8999999999999950e+00 -1.0337284426602207e+00 +2.2940585892302905e+00 +1.5661656014022332e+01 -9.9400031912593505e+01 +1.0624768966289182e+05 +1.4854372419873660e+06 -5.0904625329245710e+08 
+5.9999999999999947e+00 -1.0337278857410634e+00 +2.2942299592697402e+00 +1.5607599670671737e+01 -1.0500457377530819e+02 +1.0704639800056994e+05 +1.5248215817465095e+06 -5.1229876149433756e+08 
+6.0999999999999943e+00 -1.0337273678535128e+00 +2.2943840593300706e+00 +1.5557309340299224e+01 -1.1001069282922766e+02 +1.0775052035843069e+05 +1.5607578217614444e+06 -5.1504961913586700e+08 
+6.1999999999999940e+00 -1.0337268924501106e+00 +2.2945191641889342e+00 +1.5511193709815124e+01 -1.1436959808305723e+02 +1.0835291964361053e+05 +1.5929606555693545e+06 -5.1726733690543306e+08 
+6.2999999999999936e+00 -1.0337264629825147e+00 +2.2946335485048035e+00 +1.5469661353835601e+01 -1.1803249443756512e+02 +1.0884646084662541e+05 +1.6211447509321554e+06 -5.1892043504924136e+08 
+6.3999999999999932e+00 -1.0337260829014152e+00 +2.2947254868098770e+00 +1.5433120723486438e+01 -1.2095058247215135e+02 +1.0922401125919483e+05 +1.6450247485978093e+06 -5.1997744441740918e+08 
+6.4999999999999929e+00 -1.0337257556564652e+00 +2.2947932535169548e+00 +1.5401980141291215e+01 -1.2307505905381551e+02 +1.0947844049560167e+05 +1.6643152674064538e+06 -5.2040690626958930e+08 
+6.5999999999999925e+00 -1.0337254842203125e+00 +2.2948358090523122e+00 +1.5376572374792930e+01 -1.2437800053265912e+02 +1.0960410161688887e+05 +1.6788514756601178e+06 -5.2018414026947272e+08 
+6.6999999999999922e+00 -1.0337252697411359e+00 +2.2948549888421463e+00 +1.5356883217965663e+01 -1.2491869910702218e+02 +1.0960276061304165e+05 +1.6889681579174448e+06 -5.1932027561167353e+08 
+6.7999999999999918e+00 -1.0337251129239509e+00 +2.2948533918196445e+00 +1.5342798650716444e+01 -1.2477965239385570e+02 +1.0947845201773246e+05 +1.6951323435246502e+06 -5.1783779517854202e+08 
+6.8999999999999915e+00 -1.0337250144746319e+00 +2.2948336169477788e+00 +1.5334204755152872e+01 -1.2404336075986207e+02 +1.0923520871961305e+05 +1.6978110823877815e+06 -5.1575917506686777e+08 
+6.9999999999999911e+00 -1.0337249751000548e+00 +2.2947982631471895e+00 +1.5330987741279230e+01 -1.2279232467546805e+02 +1.0887706134326359e+05 +1.6974714293866574e+06 -5.1310688134541535e+08 
+7.0999999999999908e+00 -1.0337249955081365e+00 +2.2947499293040838e+00 +1.5333033952140408e+01 -1.2110904499078708e+02 +1.0840803815644259e+05 +1.6945804461535637e+06 -5.0990336963741958e+08 
+7.1999999999999904e+00 -1.0337250764078902e+00 +2.2946912142691005e+00 +1.5340229871296696e+01 -1.1907602297239785e+02 +1.0783216493698885e+05 +1.6896052015223829e+06 -5.0617108453056294e+08 
+7.2999999999999901e+00 -1.0337252185094414e+00 +2.2946247168492251e+00 +1.5352462124100271e+01 -1.1677576012178027e+02 +1.0715346495284481e+05 +1.6830127706472583e+06 -5.0193245949786174e+08 
+7.3999999999999897e+00 -1.0337254225240937e+00 +2.2945530358137476e+00 +1.5369617487204835e+01 -1.1429075841450532e+02 +1.0637595879025642e+05 +1.6752702366330593e+06 -4.9720991612680000e+08 
+7.4999999999999893e+00 -1.0337256891643565e+00 +2.2944787698932894e+00 +1.5391582891359603e+01 -1.1170352033241092e+02 +1.0550366430647799e+05 +1.6668446909151298e+06 -4.9202586391746980e+08 
+7.5999999999999890e+00 -1.0337260191439883e+00 +2.2944045177721248e+00 +1.5418245427206470e+01 -1.0909654869221444e+02 +1.0454059652591655e+05 +1.6582032324553384e+06 -4.8640269981829250e+08 
+7.6999999999999886e+00 -1.0337264131780828e+00 +2.2943328780918151e+00 +1.5449492357059752e+01 -1.0655234681249492e+02 +1.0349076742039263e+05 +1.6498129689136450e+06 -4.8036280720869327e+08 
+7.7999999999999883e+00 -1.0337268719830448e+00 +2.2942664494531928e+00 +1.5485211110250310e+01 -1.0415341863968787e+02 +1.0235818601205554e+05 +1.6421410176138077e+06 -4.7392855643682009e+08 
+7.8999999999999879e+00 -1.0337273962766924e+00 +2.2942078304096496e+00 +1.5525289297597777e+01 -1.0198226861110525e+02 +1.0114685809756171e+05 +1.6356545049464086e+06 -4.6712230352021825e+08 
+7.9999999999999876e+00 -1.0337279867782518e+00 +2.2941596194693039e+00 +1.5569614710791466e+01 -1.0012140176733811e+02 +9.9860786268347278e+04 +1.6308205671947275e+06 -4.5996639027955252e+08 
+8.0999999999999872e+00 -1.0337286442084472e+00 +2.2941244150910642e+00 +1.5618075332827644e+01 -9.8653323703565377e+01 +9.8503969722659385e+04 +1.6281063504783795e+06 -4.5248314348164612e+08 
+8.1999999999999869e+00 -1.0337293692895211e+00 +2.2941048156902699e+00 +1.5670559341844235e+01 -9.7660540806741693e+01 +9.7080404192153452e+04 +1.6279790123742798e+06 -4.4469487450496137e+08 
+8.2999999999999865e+00 -1.0337301627452642e+00 +2.2941034196297485e+00 +1.5726955114672030e+01 -9.7225560021571596e+01 +9.5594081887333174e+04 +1.6309057206536063e+06 -4.3662387912865430e+08 
+8.3999999999999861e+00 -1.0337310253010796e+00 +2.2941228252212023e+00 +1.5787151234182456e+01 -9.7430888991070873e+01 +9.4048991365428825e+04 +1.6373536544304632e+06 -4.2829243693391925e+08 
+8.4999999999999858e+00 -1.0337319576840176e+00 +2.2941656306513862e+00 +1.5851036486800274e+01 -9.8359032525410939e+01 +9.2449117812361088e+04 +1.6477899803270339e+06 -4.1972281340968382e+08 
+8.5999999999999854e+00 -1.0337329595684113e+00 +2.2942337022676429e+00 +1.5918465542429390e+01 -1.0006856276464092e+02 +9.0798933313682384e+04 +1.6625426896158629e+06 -4.1093977586439002e+08 
+8.6999999999999851e+00 -1.0337340261243548e+00 +2.2943258959084893e+00 +1.5989193107276549e+01 -1.0252114070783510e+02 +8.9103168344860329e+04 +1.6813834823403193e+06 -4.0196764565764648e+08 
+8.7999999999999847e+00 -1.0337351513234267e+00 +2.2944402744693395e+00 +1.6062958925246580e+01 -1.0565307416360056e+02 +8.7366175186061446e+04 +1.7039400460741557e+06 -3.9282794551402068e+08 
+8.8999999999999844e+00 -1.0337363291363517e+00 +2.2945749008154568e+00 +1.6139502638144418e+01 -1.0940066878230897e+02 +8.5592307699885001e+04 +1.7298400610193003e+06 -3.8354220453406972e+08 
+8.9999999999999840e+00 -1.0337375535327902e+00 +2.2947278378706284e+00 +1.6218563746303964e+01 -1.1370023178533116e+02 +8.3785922324719693e+04 +1.7587112205740395e+06 -3.7413196330969441e+08 
+9.0999999999999837e+00 -1.0337388184814753e+00 +2.2948971486288974e+00 +1.6299881625478672e+01 -1.1848807228883899e+02 +8.1951377752744258e+04 +1.7901812332808978e+06 -3.6461877237907481e+08 
+9.1999999999999833e+00 -1.0337401179500807e+00 +2.2950808961555573e+00 +1.6383195509719137e+01 -1.2370050134176857e+02 +8.0093035249306340e+04 +1.8238778232069458e+06 -3.5502419371217376e+08 
+9.2999999999999829e+00 -1.0337414459051582e+00 +2.2952771435782182e+00 +1.6468244484139746e+01 -1.2927383163485959e+02 +7.8215258783958096e+04 +1.8594287282764176e+06 -3.4536980130484945e+08 
+9.3999999999999826e+00 -1.0337427963122221e+00 +2.2954839541093017e+00 +1.6554767494593310e+01 -1.3514437815215274e+02 +7.6322414845508232e+04 +1.8964617041669274e+06 -3.3567718028113973e+08 
+9.4999999999999822e+00 -1.0337441631355864e+00 +2.2956993910295189e+00 +1.6642503327502748e+01 -1.4124845766367352e+02 +7.4418872817121184e+04 +1.9346045214138567e+06 -3.2596792864034009e+08 
+9.5999999999999819e+00 -1.0337455403383942e+00 +2.2959215176985528e+00 +1.6731190612449105e+01 -1.4752238906054180e+02 +7.2509004930441064e+04 +1.9734849675461766e+06 -3.1626365703554571e+08 
+9.6999999999999815e+00 -1.0337469218826194e+00 +2.2961483975635124e+00 +1.6820567823755130e+01 -1.5390249355449450e+02 +7.0597186217318129e+04 +2.0127308482326404e+06 -3.0658598847757185e+08 
+9.7999999999999812e+00 -1.0337483017289488e+00 +2.2963780941474830e+00 +1.6910373264009586e+01 -1.6032509435150877e+02 +6.8687794831225925e+04 +2.0519699855324035e+06 -2.9695655987461722e+08 
+9.8999999999999808e+00 -1.0337496738368221e+00 +2.2966086710604001e+00 +1.7000345069373203e+01 -1.6672651694316323e+02 +6.6785211937518514e+04 +2.0908302196228395e+06 -2.8739702147069848e+08 
+9.9999999999999805e+00 -1.0337510321643837e+00 +2.2968381920044960e+00 +1.7090221203977123e+01 -1.7304308927671431e+02 +6.4893821811402115e+04 +2.1289394099675049e+06 -2.7792903727498949e+08 
+1.0099999999999980e+01 -1.0337523706683875e+00 +2.2970647207659787e+00 +1.7179739446149071e+01 -1.7921114147602125e+02 +6.3018012106442999e+04 +2.1659254336846080e+06 -2.6857428634423560e+08 
