# trajectory
# s[mm] rx[mm] ry[mm] rz[mm] px[rad] py[rad] pz[rad]
0.0000000000000000e+00 +9.1013000000000002e+00 +0.0000000000000000e+00 +0.0000000000000000e+00 +0.0000000000000000e+00 +0.0000000000000000e+00 +1.0000000000000000e+00
1.0000000000000001e-01 +9.1012994833946479e+00 +0.0000000000000000e+00 +9.9999999998220804e-02 -1.0332102429239239e-05 +0.0000000000000000e+00 +9.9999999994662381e-01
2.0000000000000001e-01 +9.1012979335804367e+00 +0.0000000000000000e+00 +1.9999999998576640e-01 -2.0664177175298911e-05 +0.0000000000000000e+00 +9.9999999978649590e-01
3.0000000000000004e-01 +9.1012953505601324e+00 +0.0000000000000000e+00 +2.9999999995196164e-01 -3.0996224300534471e-05 +0.0000000000000000e+00 +9.9999999951961704e-01
4.0000000000000002e-01 +9.1012917343364936e+00 +0.0000000000000000e+00 +3.9999999988613150e-01 -4.1328243903018735e-05 +0.0000000000000000e+00 +9.9999999914598814e-01
5.0000000000000000e-01 +9.1012870849122649e+00 +0.0000000000000000e+00 +4.9999999977760101e-01 -5.1660236116538149e-05 +0.0000000000000000e+00 +9.9999999866560996e-01
5.9999999999999998e-01 +9.1012814022901782e+00 +0.0000000000000000e+00 +5.9999999961569528e-01 -6.1992201109424644e-05 +0.0000000000000000e+00 +9.9999999807848350e-01
6.9999999999999996e-01 +9.1012746864729444e+00 +0.0000000000000000e+00 +6.9999999938973945e-01 -7.2324139071745257e-05 +0.0000000000000000e+00 +9.9999999738460943e-01
7.9999999999999993e-01 +9.1012669374632580e+00 +0.0000000000000000e+00 +7.9999999908905894e-01 -8.2656050202492123e-05 +0.0000000000000000e+00 +9.9999999658398864e-01
8.9999999999999991e-01 +9.1012581552637908e+00 +0.0000000000000000e+00 +8.9999999870297898e-01 -9.2987934708414912e-05 +0.0000000000000000e+00 +9.9999999567662190e-01
9.9999999999999989e-01 +9.1012483398771966e+00 +0.0000000000000000e+00 +9.9999999822082508e-01 -1.0331979280401764e-04 +0.0000000000000000e+00 +9.9999999466251011e-01
1.0999999999999999e+00 +9.1012374913061027e+00 +0.0000000000000000e+00 +1.0999999976319228e+00 -1.1365162471155562e-04 +0.0000000000000000e+00 +9.9999999354165403e-01
1.2000000000000000e+00 +9.1012256095531185e+00 +0.0000000000000000e+00 +1.1999999969255977e+00 -1.2398343066103259e-04 +0.0000000000000000e+00 +9.9999999231405434e-01
1.3000000000000000e+00 +9.1012126946208269e+00 +0.0000000000000000e+00 +1.2999999960911754e+00 -1.3431521089019783e-04 +0.0000000000000000e+00 +9.9999999097971193e-01
1.4000000000000001e+00 +9.1011987465117894e+00 +0.0000000000000000e+00 +1.3999999951179820e+00 -1.4464696564454369e-04 +0.0000000000000000e+00 +9.9999998953862757e-01
1.5000000000000002e+00 +9.1011837652285390e+00 +0.0000000000000000e+00 +1.4999999939953430e+00 -1.5497869517730299e-04 +0.0000000000000000e+00 +9.9999998799080192e-01
1.6000000000000003e+00 +9.1011677507735858e+00 +0.0000000000000000e+00 +1.5999999927125843e+00 -1.6531039974944673e-04 +0.0000000000000000e+00 +9.9999998633623577e-01
1.7000000000000004e+00 +9.1011507031494130e+00 +0.0000000000000000e+00 +1.6999999912590320e+00 -1.7564207962968189e-04 +0.0000000000000000e+00 +9.9999998457492978e-01
1.8000000000000005e+00 +9.1011326223584739e+00 +0.0000000000000000e+00 +1.7999999896240122e+00 -1.8597373509444929e-04 +0.0000000000000000e+00 +9.9999998270688473e-01
1.9000000000000006e+00 +9.1011135084031984e+00 +0.0000000000000000e+00 +1.8999999877968510e+00 -1.9630536642792175e-04 +0.0000000000000000e+00 +9.9999998073210128e-01
2.0000000000000004e+00 +9.1010933612859830e+00 +0.0000000000000000e+00 +1.9999999857668744e+00 -2.0663697392200227e-04 +0.0000000000000000e+00 +9.9999997865058021e-01
2.1000000000000005e+00 +9.1010721810091990e+00 +0.0000000000000000e+00 +2.0999999835234089e+00 -2.1696855787632240e-04 +0.0000000000000000e+00 +9.9999997646232208e-01
2.2000000000000006e+00 +9.1010499675751824e+00 +0.0000000000000000e+00 +2.1999999810557807e+00 -2.2730011859824071e-04 +0.0000000000000000e+00 +9.9999997416732767e-01
2.3000000000000007e+00 +9.1010267209862423e+00 +0.0000000000000000e+00 +2.2999999783533163e+00 -2.3763165640284145e-04 +0.0000000000000000e+00 +9.9999997176559752e-01
2.4000000000000008e+00 +9.1010024412446544e+00 +0.0000000000000000e+00 +2.3999999754053420e+00 -2.4796317161293336e-04 +0.0000000000000000e+00 +9.9999996925713230e-01
2.5000000000000009e+00 +9.1009771283526621e+00 +0.0000000000000000e+00 +2.4999999722011848e+00 -2.5829466455904858e-04 +0.0000000000000000e+00 +9.9999996664193258e-01
2.6000000000000010e+00 +9.1009507823124736e+00 +0.0000000000000000e+00 +2.5999999687301707e+00 -2.6862613557851716e-04 +0.0000000000000000e+00 +9.9999996391999901e-01
2.7000000000000011e+00 +9.1009234031262665e+00 +0.0000000000000000e+00 +2.6999999649816266e+00 -2.7895758500529733e-04 +0.0000000000000000e+00 +9.9999996109133216e-01
2.8000000000000012e+00 +9.1008949907961814e+00 +0.0000000000000000e+00 +2.7999999609448794e+00 -2.8928901315980325e-04 +0.0000000000000000e+00 +9.9999995815593257e-01
2.9000000000000012e+00 +9.1008655453243321e+00 +0.0000000000000000e+00 +2.8999999566092556e+00 -2.9962042034797578e-04 +0.0000000000000000e+00 +9.9999995511380091e-01
3.0000000000000013e+00 +9.1008350667128006e+00 +0.0000000000000000e+00 +2.9999999519640821e+00 -3.0995180686127743e-04 +0.0000000000000000e+00 +9.9999995196493763e-01
3.1000000000000014e+00 +9.1008035549636404e+00 +0.0000000000000000e+00 +3.0999999469986856e+00 -3.2028317297668694e-04 +0.0000000000000000e+00 +9.9999994870934328e-01
3.2000000000000015e+00 +9.1007710100788763e+00 +0.0000000000000000e+00 +3.1999999417023930e+00 -3.3061451895669377e-04 +0.0000000000000000e+00 +9.9999994534701853e-01
3.3000000000000016e+00 +9.1007374320605106e+00 +0.0000000000000000e+00 +3.2999999360645313e+00 -3.4094584504929220e-04 +0.0000000000000000e+00 +9.9999994187796382e-01
3.4000000000000017e+00 +9.1007028209105201e+00 +0.0000000000000000e+00 +3.3999999300744279e+00 -3.5127715148797526e-04 +0.0000000000000000e+00 +9.9999993830217970e-01
3.5000000000000018e+00 +9.1006671766308607e+00 +0.0000000000000000e+00 +3.4999999237214094e+00 -3.6160843849172857e-04 +0.0000000000000000e+00 +9.9999993461966663e-01
3.6000000000000019e+00 +9.1006304992234632e+00 +0.0000000000000000e+00 +3.5999999169948036e+00 -3.7193970626502357e-04 +0.0000000000000000e+00 +9.9999993083042527e-01
3.7000000000000020e+00 +9.1005927886902427e+00 +0.0000000000000000e+00 +3.6999999098839371e+00 -3.8227095499781090e-04 +0.0000000000000000e+00 +9.9999992693445605e-01
3.8000000000000020e+00 +9.1005540450330926e+00 +0.0000000000000000e+00 +3.7999999023781372e+00 -3.9260218486551334e-04 +0.0000000000000000e+00 +9.9999992293175943e-01
3.9000000000000021e+00 +9.1005142682538924e+00 +0.0000000000000000e+00 +3.8999998944667316e+00 -4.0293339602901851e-04 +0.0000000000000000e+00 +9.9999991882233608e-01
4.0000000000000018e+00 +9.1004734583545055e+00 +0.0000000000000000e+00 +3.9999998861390469e+00 -4.1326458863467149e-04 +0.0000000000000000e+00 +9.9999991460618642e-01
4.1000000000000014e+00 +9.1004316153367792e+00 +0.0000000000000000e+00 +4.0999998773844109e+00 -4.2359576281426697e-04 +0.0000000000000000e+00 +9.9999991028331103e-01
4.2000000000000011e+00 +9.1003887392025522e+00 +0.0000000000000000e+00 +4.1999998681921511e+00 -4.3392691868504124e-04 +0.0000000000000000e+00 +9.9999990585371035e-01
4.3000000000000007e+00 +9.1003448299536487e+00 +0.0000000000000000e+00 +4.2999998585515948e+00 -4.4425805634966414e-04 +0.0000000000000000e+00 +9.9999990131738492e-01
4.4000000000000004e+00 +9.1002998875918859e+00 +0.0000000000000000e+00 +4.3999998484520706e+00 -4.5458917589623050e-04 +0.0000000000000000e+00 +9.9999989667433531e-01
4.5000000000000000e+00 +9.1002539121190704e+00 +0.0000000000000000e+00 +4.4999998378829051e+00 -4.6492027739825152e-04 +0.0000000000000000e+00 +9.9999989192456207e-01
4.5999999999999996e+00 +9.1002069035370052e+00 +0.0000000000000000e+00 +4.5999998268334261e+00 -4.7525136091735996e-04 +0.0000000000000000e+00 +9.9999988706806564e-01
4.6999999999999993e+00 +9.1001588618474845e+00 +0.0000000000000000e+00 +4.6999998152929612e+00 -4.8558242653315968e-04 +0.0000000000000000e+00 +9.9999988210484658e-01
4.7999999999999989e+00 +9.1001097870522916e+00 +0.0000000000000000e+00 +4.7999998032508380e+00 -4.9591347437308482e-04 +0.0000000000000000e+00 +9.9999987703490545e-01
4.8999999999999986e+00 +9.1000596791531958e+00 +0.0000000000000000e+00 +4.8999997906963850e+00 -5.0624450461512246e-04 +0.0000000000000000e+00 +9.9999987185824257e-01
4.9999999999999982e+00 +9.1000085381519469e+00 +0.0000000000000000e+00 +4.9999997776189291e+00 -5.1657551748782204e-04 +0.0000000000000000e+00 +9.9999986657485851e-01
5.0999999999999979e+00 +9.0999563640502679e+00 +0.0000000000000000e+00 +5.0999997640077988e+00 -5.2690651327030544e-04 +0.0000000000000000e+00 +9.9999986118475359e-01
5.1999999999999975e+00 +9.0999031568498516e+00 +0.0000000000000000e+00 +5.1999997498523225e+00 -5.3723749229227799e-04 +0.0000000000000000e+00 +9.9999985568792815e-01
5.2999999999999972e+00 +9.0998489165523555e+00 +0.0000000000000000e+00 +5.2999997351418271e+00 -5.4756845493403989e-04 +0.0000000000000000e+00 +9.9999985008438252e-01
5.3999999999999968e+00 +9.0997936431593960e+00 +0.0000000000000000e+00 +5.3999997198656411e+00 -5.5789940162649827e-04 +0.0000000000000000e+00 +9.9999984437411693e-01
5.4999999999999964e+00 +9.0997373366725451e+00 +0.0000000000000000e+00 +5.4999997040130930e+00 -5.6823033285118051e-04 +0.0000000000000000e+00 +9.9999983855713159e-01
5.5999999999999961e+00 +9.0996799970933235e+00 +0.0000000000000000e+00 +5.5999996875735105e+00 -5.7856124914024750e-04 +0.0000000000000000e+00 +9.9999983263342673e-01
5.6999999999999957e+00 +9.0996216244231949e+00 +0.0000000000000000e+00 +5.6999996705362213e+00 -5.8889215107650833e-04 +0.0000000000000000e+00 +9.9999982660300246e-01
5.7999999999999954e+00 +9.0995622186635643e+00 +0.0000000000000000e+00 +5.7999996528905537e+00 -5.9922303929343512e-04 +0.0000000000000000e+00 +9.9999982046585878e-01
5.8999999999999950e+00 +9.0995017798157694e+00 +0.0000000000000000e+00 +5.8999996346258357e+00 -6.0955391447517872e-04 +0.0000000000000000e+00 +9.9999981422199569e-01
5.9999999999999947e+00 +9.0994403078810784e+00 +0.0000000000000000e+00 +5.9999996157313955e+00 -6.1988477735658537e-04 +0.0000000000000000e+00 +9.9999980787141318e-01
6.0999999999999943e+00 +9.0993778028606815e+00 +0.0000000000000000e+00 +6.0999995961965610e+00 -6.3021562872321373e-04 +0.0000000000000000e+00 +9.9999980141411116e-01
6.1999999999999940e+00 +9.0993142647556891e+00 +0.0000000000000000e+00 +6.1999995760106605e+00 -6.4054646941135275e-04 +0.0000000000000000e+00 +9.9999979485008939e-01
6.2999999999999936e+00 +9.0992496935671259e+00 +0.0000000000000000e+00 +6.2999995551630219e+00 -6.5087730030804027e-04 +0.0000000000000000e+00 +9.9999978817934776e-01
6.3999999999999932e+00 +9.0991840892959228e+00 +0.0000000000000000e+00 +6.3999995336429727e+00 -6.6120812235108233e-04 +0.0000000000000000e+00 +9.9999978140188583e-01
6.4999999999999929e+00 +9.0991174519429183e+00 +0.0000000000000000e+00 +6.4999995114398414e+00 -6.7153893652907278e-04 +0.0000000000000000e+00 +9.9999977451770317e-01
6.5999999999999925e+00 +9.0990497815088460e+00 +0.0000000000000000e+00 +6.5999994885429558e+00 -6.8186974387821639e-04 +0.0000000000000000e+00 +9.9999976752679942e-01
6.6999999999999922e+00 +9.0989810779943365e+00 +0.0000000000000000e+00 +6.6999994649416434e+00 -6.9220054544716835e-04 +0.0000000000000000e+00 +9.9999976042917404e-01
6.7999999999999918e+00 +9.0989113413999156e+00 +0.0000000000000000e+00 +6.7999994406252329e+00 -7.0253134226186766e-04 +0.0000000000000000e+00 +9.9999975322482637e-01
6.8999999999999915e+00 +9.0988405717260097e+00 +0.0000000000000000e+00 +6.8999994155830517e+00 -7.1286213532234912e-04 +0.0000000000000000e+00 +9.9999974591375596e-01
6.9999999999999911e+00 +9.0987687689729437e+00 +0.0000000000000000e+00 +6.9999993898044268e+00 -7.2319292560275329e-04 +0.0000000000000000e+00 +9.9999973849596224e-01
7.0999999999999908e+00 +9.0986959331409505e+00 +0.0000000000000000e+00 +7.0999993632786866e+00 -7.3352371405133686e-04 +0.0000000000000000e+00 +9.9999973097144457e-01
7.1999999999999904e+00 +9.0986220642301650e+00 +0.0000000000000000e+00 +7.1999993359951580e+00 -7.4385450159048341e-04 +0.0000000000000000e+00 +9.9999972334020226e-01
7.2999999999999901e+00 +9.0985471622406333e+00 +0.0000000000000000e+00 +7.2999993079431693e+00 -7.5418528911671385e-04 +0.0000000000000000e+00 +9.9999971560223466e-01
7.3999999999999897e+00 +9.0984712271723129e+00 +0.0000000000000000e+00 +7.3999992791120475e+00 -7.6451607750069783e-04 +0.0000000000000000e+00 +9.9999970775754121e-01
7.4999999999999893e+00 +9.0983942590250759e+00 +0.0000000000000000e+00 +7.4999992494911201e+00 -7.7484686758726498e-04 +0.0000000000000000e+00 +9.9999969980612113e-01
7.5999999999999890e+00 +9.0983162577987109e+00 +0.0000000000000000e+00 +7.5999992190697139e+00 -7.8517766019541621e-04 +0.0000000000000000e+00 +9.9999969174797376e-01
7.6999999999999886e+00 +9.0982372234929265e+00 +0.0000000000000000e+00 +7.6999991878371565e+00 -7.9550845611833559e-04 +0.0000000000000000e+00 +9.9999968358309832e-01
7.7999999999999883e+00 +9.0981571561073515e+00 +0.0000000000000000e+00 +7.7999991557827757e+00 -8.0583925612340258e-04 +0.0000000000000000e+00 +9.9999967531149414e-01
7.8999999999999879e+00 +9.0980760556415401e+00 +0.0000000000000000e+00 +7.8999991228958981e+00 -8.1617006095220386e-04 +0.0000000000000000e+00 +9.9999966693316056e-01
7.9999999999999876e+00 +9.0979939220949753e+00 +0.0000000000000000e+00 +7.9999990891658506e+00 -8.2650087132054607e-04 +0.0000000000000000e+00 +9.9999965844809680e-01
8.0999999999999872e+00 +9.0979107554670673e+00 +0.0000000000000000e+00 +8.0999990545819607e+00 -8.3683168791846851e-04 +0.0000000000000000e+00 +9.9999964985630196e-01
8.1999999999999869e+00 +9.0978265557571607e+00 +0.0000000000000000e+00 +8.1999990191335534e+00 -8.4716251141025588e-04 +0.0000000000000000e+00 +9.9999964115777551e-01
8.2999999999999865e+00 +9.0977413229645343e+00 +0.0000000000000000e+00 +8.2999989828099583e+00 -8.5749334243445153e-04 +0.0000000000000000e+00 +9.9999963235251654e-01
8.3999999999999861e+00 +9.0976550570884029e+00 +0.0000000000000000e+00 +8.3999989456004993e+00 -8.6782418160387105e-04 +0.0000000000000000e+00 +9.9999962344052429e-01
8.4999999999999858e+00 +9.0975677581279228e+00 +0.0000000000000000e+00 +8.4999989074945042e+00 -8.7815502950561587e-04 +0.0000000000000000e+00 +9.9999961442179797e-01
8.5999999999999854e+00 +9.0974794260821916e+00 +0.0000000000000000e+00 +8.5999988684813005e+00 -8.8848588670042224e-04 +0.0000000000000000e+00 +9.9999960529633691e-01
8.6999999999999851e+00 +9.0973900609502554e+00 +0.0000000000000000e+00 +8.6999988285502141e+00 -8.9881675371536126e-04 +0.0000000000000000e+00 +9.9999959606414024e-01
8.7999999999999847e+00 +9.0972996627311051e+00 +0.0000000000000000e+00 +8.7999987876905710e+00 -9.0914763103652014e-04 +0.0000000000000000e+00 +9.9999958672520728e-01
8.8999999999999844e+00 +9.0972082314236893e+00 +0.0000000000000000e+00 +8.8999987458916969e+00 -9.1947851910831877e-04 +0.0000000000000000e+00 +9.9999957727953726e-01
8.9999999999999840e+00 +9.0971157670269118e+00 +0.0000000000000000e+00 +8.9999987031429196e+00 -9.2980941833349033e-04 +0.0000000000000000e+00 +9.9999956772712950e-01
9.0999999999999837e+00 +9.0970222695396394e+00 +0.0000000000000000e+00 +9.0999986594335649e+00 -9.4014032907306091e-04 +0.0000000000000000e+00 +9.9999955806798335e-01
9.1999999999999833e+00 +9.0969277389607033e+00 +0.0000000000000000e+00 +9.1999986147529587e+00 -9.5047125164632795e-04 +0.0000000000000000e+00 +9.9999954830209803e-01
9.2999999999999829e+00 +9.0968321752889061e+00 +0.0000000000000000e+00 +9.2999985690904268e+00 -9.6080218633083864e-04 +0.0000000000000000e+00 +9.9999953842947298e-01
9.3999999999999826e+00 +9.0967355785230257e+00 +0.0000000000000000e+00 +9.3999985224352951e+00 -9.7113313336236727e-04 +0.0000000000000000e+00 +9.9999952845010764e-01
9.4999999999999822e+00 +9.0966379486618152e+00 +0.0000000000000000e+00 +9.4999984747768895e+00 -9.8146409293489180e-04 +0.0000000000000000e+00 +9.9999951836400136e-01
9.5999999999999819e+00 +9.0965392857040150e+00 +0.0000000000000000e+00 +9.5999984261045377e+00 -9.9179506520057016e-04 +0.0000000000000000e+00 +9.9999950817115357e-01
9.6999999999999815e+00 +9.0964395896483481e+00 +0.0000000000000000e+00 +9.6999983764075637e+00 -1.0021260502697154e-03 +0.0000000000000000e+00 +9.9999949787156384e-01
9.7999999999999812e+00 +9.0963388604935318e+00 +0.0000000000000000e+00 +9.7999983256752934e+00 -1.0124570482107694e-03 +0.0000000000000000e+00 +9.9999948746523160e-01
9.8999999999999808e+00 +9.0962370982382765e+00 +0.0000000000000000e+00 +9.8999982738970527e+00 -1.0227880590502783e-03 +0.0000000000000000e+00 +9.9999947695215652e-01
9.9999999999999805e+00 +9.0961343028812927e+00 +0.0000000000000000e+00 +9.9999982210621674e+00 -1.0331190827728642e-03 +0.0000000000000000e+00 +9.9999946633233816e-01
1.0099999999999980e+01 +9.0960304744212941e+00 +0.0000000000000000e+00 +1.0099998167159963e+01 -1.0434501193211983e-03 +0.0000000000000000e+00 +9.9999945560577619e-01
1.0199999999999980e+01 +9.0959256128570036e+00 +0.0000000000000000e+00 +1.0199998112179765e+01 -1.0537811685959726e-03 +0.0000000000000000e+00 +9.9999944477247038e-01
1.0299999999999979e+01 +9.0958197181871547e+00 +0.0000000000000000e+00 +1.0299998056110899e+01 -1.0641122304558704e-03 +0.0000000000000000e+00 +9.9999943383242040e-01
1.0399999999999979e+01 +9.0957127904104986e+00 +0.0000000000000000e+00 +1.0399997998942691e+01 -1.0744433047175366e-03 +0.0000000000000000e+00 +9.9999942278562604e-01
1.0499999999999979e+01 +9.0956048295258061e+00 +0.0000000000000000e+00 +1.0499997940664466e+01 -1.0847743911555480e-03 +0.0000000000000000e+00 +9.9999941163208717e-01
1.0599999999999978e+01 +9.0954958355318709e+00 +0.0000000000000000e+00 +1.0599997881265550e+01 -1.0951054895056633e-03 +0.0000000000000000e+00 +9.9999940037180379e-01
1.0699999999999978e+01 +9.0953858084275172e+00 +0.0000000000000000e+00 +1.0699997820735268e+01 -1.1054365995009014e-03 +0.0000000000000000e+00 +9.9999938900477570e-01
1.0799999999999978e+01 +9.0952747482115903e+00 +0.0000000000000000e+00 +1.0799997759062947e+01 -1.1157677209076495e-03 +0.0000000000000000e+00 +9.9999937753100288e-01
1.0899999999999977e+01 +9.0951626548829605e+00 +0.0000000000000000e+00 +1.0899997696237911e+01 -1.1260988535289639e-03 +0.0000000000000000e+00 +9.9999936595048511e-01
1.0999999999999977e+01 +9.0950495284405157e+00 +0.0000000000000000e+00 +1.0999997632249485e+01 -1.1364299972045906e-03 +0.0000000000000000e+00 +9.9999935426322228e-01
1.1099999999999977e+01 +9.0949353688831565e+00 +0.0000000000000000e+00 +1.1099997567086996e+01 -1.1467611518109844e-03 +0.0000000000000000e+00 +9.9999934246921418e-01
1.1199999999999976e+01 +9.0948201762097938e+00 +0.0000000000000000e+00 +1.1199997500739769e+01 -1.1570923172613315e-03 +0.0000000000000000e+00 +9.9999933056846058e-01
1.1299999999999976e+01 +9.0947039504193459e+00 +0.0000000000000000e+00 +1.1299997433197131e+01 -1.1674234935055699e-03 +0.0000000000000000e+00 +9.9999931856096125e-01
1.1399999999999975e+01 +9.0945866915107345e+00 +0.0000000000000000e+00 +1.1399997364448405e+01 -1.1777546805304118e-03 +0.0000000000000000e+00 +9.9999930644671575e-01
1.1499999999999975e+01 +9.0944683994828797e+00 +0.0000000000000000e+00 +1.1499997294482917e+01 -1.1880858783593661e-03 +0.0000000000000000e+00 +9.9999929422572376e-01
1.1599999999999975e+01 +9.0943490743346995e+00 +0.0000000000000000e+00 +1.1599997223289991e+01 -1.1984170870527611e-03 +0.0000000000000000e+00 +9.9999928189798493e-01
1.1699999999999974e+01 +9.0942287160651034e+00 +0.0000000000000000e+00 +1.1699997150858955e+01 -1.2087483067077685e-03 +0.0000000000000000e+00 +9.9999926946349871e-01
1.1799999999999974e+01 +9.0941073246729882e+00 +0.0000000000000000e+00 +1.1799997077179134e+01 -1.2190795374584268e-03 +0.0000000000000000e+00 +9.9999925692226466e-01
