# trajectory
# s[mm] rx[mm] ry[mm] rz[mm] px[rad] py[rad] pz[rad]
0.0000000000000000e+00 +9.0449999999999999e+00 +0.0000000000000000e+00 +0.0000000000000000e+00 +0.0000000000000000e+00 +0.0000000000000000e+00 +1.0000000000000000e+00
-1.0000000000000001e-01 +9.0449994841804653e+00 +0.0000000000000000e+00 -9.9999999998226188e-02 +1.0316388356836792e-05 +0.0000000000000000e+00 +9.9999999994678601e-01
-2.0000000000000001e-01 +9.0449979367227922e+00 +0.0000000000000000e+00 -1.9999999998580958e-01 +2.0632762802490811e-05 +0.0000000000000000e+00 +9.9999999978714449e-01
-3.0000000000000004e-01 +9.0449953576283573e+00 +0.0000000000000000e+00 -2.9999999995210747e-01 +3.0949123646817358e-05 +0.0000000000000000e+00 +9.9999999952107577e-01
-4.0000000000000002e-01 +9.0449917468985053e+00 +0.0000000000000000e+00 -3.9999999988647716e-01 +4.1265471202745211e-05 +0.0000000000000000e+00 +9.9999999914858029e-01
-5.0000000000000000e-01 +9.0449871045345489e+00 +0.0000000000000000e+00 -4.9999999977827603e-01 +5.1581805786275913e-05 +0.0000000000000000e+00 +9.9999999866965850e-01
-5.9999999999999998e-01 +9.0449814305377689e+00 +0.0000000000000000e+00 -5.9999999961686135e-01 +6.1898127716483069e-05 +0.0000000000000000e+00 +9.9999999808431073e-01
-6.9999999999999996e-01 +9.0449747249094159e+00 +0.0000000000000000e+00 -6.9999999939159063e-01 +7.2214437315511776e-05 +0.0000000000000000e+00 +9.9999999739253731e-01
-7.9999999999999993e-01 +9.0449669876507066e+00 +0.0000000000000000e+00 -7.9999999909182129e-01 +8.2530734908578014e-05 +0.0000000000000000e+00 +9.9999999659433869e-01
-8.9999999999999991e-01 +9.0449582187628241e+00 +0.0000000000000000e+00 -8.9999999870691083e-01 +9.2847020823968147e-05 +0.0000000000000000e+00 +9.9999999568971520e-01
-9.9999999999999989e-01 +9.0449484182469195e+00 +0.0000000000000000e+00 -9.9999999822621688e-01 +1.0316329539303851e-04 +0.0000000000000000e+00 +9.9999999467866707e-01
-1.0999999999999999e+00 +9.0449375861041119e+00 +0.0000000000000000e+00 -1.0999999976390968e+00 +1.1347955895021492e-04 +0.0000000000000000e+00 +9.9999999356119462e-01
-1.2000000000000000e+00 +9.0449257223354849e+00 +0.0000000000000000e+00 -1.1999999969349084e+00 +1.2379581183299241e-04 +0.0000000000000000e+00 +9.9999999233729830e-01
-1.3000000000000000e+00 +9.0449128269420900e+00 +0.0000000000000000e+00 -1.2999999961030091e+00 +1.3411205438193486e-04 +0.0000000000000000e+00 +9.9999999100697823e-01
-1.4000000000000001e+00 +9.0448988999249416e+00 +0.0000000000000000e+00 -1.3999999951327566e+00 +1.4442828694067483e-04 +0.0000000000000000e+00 +9.9999998957023473e-01
-1.5000000000000002e+00 +9.0448839412850219e+00 +0.0000000000000000e+00 -1.4999999940135087e+00 +1.5474450985591330e-04 +0.0000000000000000e+00 +9.9999998802706813e-01
-1.6000000000000003e+00 +9.0448679510232797e+00 +0.0000000000000000e+00 -1.5999999927346229e+00 +1.6506072347544608e-04 +0.0000000000000000e+00 +9.9999998637747856e-01
-1.7000000000000004e+00 +9.0448509291406261e+00 +0.0000000000000000e+00 -1.6999999912854569e+00 +1.7537692812645531e-04 +0.0000000000000000e+00 +9.9999998462146633e-01
-1.8000000000000005e+00 +9.0448328756379439e+00 +0.0000000000000000e+00 -1.7999999896553687e+00 +1.8569312409380347e-04 +0.0000000000000000e+00 +9.9999998275903157e-01
-1.9000000000000006e+00 +9.0448137905160895e+00 +0.0000000000000000e+00 -1.8999999878337157e+00 +1.9600931161806393e-04 +0.0000000000000000e+00 +9.9999998079017460e-01
-2.0000000000000004e+00 +9.0447936737758958e+00 +0.0000000000000000e+00 -1.9999999858098561e+00 +2.0632549089552612e-04 +0.0000000000000000e+00 +9.9999997871489554e-01
-2.1000000000000005e+00 +9.0447725254181801e+00 +0.0000000000000000e+00 -2.0999999835731473e+00 +2.1664166207820099e-04 +0.0000000000000000e+00 +9.9999997653319472e-01
-2.2000000000000006e+00 +9.0447503454437470e+00 +0.0000000000000000e+00 -2.1999999811129474e+00 +2.2695782527382732e-04 +0.0000000000000000e+00 +9.9999997424507236e-01
-2.3000000000000007e+00 +9.0447271338533906e+00 +0.0000000000000000e+00 -2.2999999784186143e+00 +2.3727398054587855e-04 +0.0000000000000000e+00 +9.9999997185052858e-01
-2.4000000000000008e+00 +9.0447028906479012e+00 +0.0000000000000000e+00 -2.3999999754795058e+00 +2.4759012791357026e-04 +0.0000000000000000e+00 +9.9999996934956370e-01
-2.5000000000000009e+00 +9.0446776158280713e+00 +0.0000000000000000e+00 -2.4999999722849799e+00 +2.5790626735186831e-04 +0.0000000000000000e+00 +9.9999996674217795e-01
-2.6000000000000010e+00 +9.0446513093946965e+00 +0.0000000000000000e+00 -2.5999999688243944e+00 +2.6822239879149758e-04 +0.0000000000000000e+00 +9.9999996402837166e-01
-2.7000000000000011e+00 +9.0446239713485834e+00 +0.0000000000000000e+00 -2.6999999650871072e+00 +2.7853852211895137e-04 +0.0000000000000000e+00 +9.9999996120814505e-01
-2.8000000000000012e+00 +9.0445956016905491e+00 +0.0000000000000000e+00 -2.7999999610624760e+00 +2.8885463717650135e-04 +0.0000000000000000e+00 +9.9999995828149835e-01
-2.9000000000000012e+00 +9.0445662004214302e+00 +0.0000000000000000e+00 -2.8999999567398591e+00 +2.9917074376220826e-04 +0.0000000000000000e+00 +9.9999995524843199e-01
-3.0000000000000013e+00 +9.0445357675420865e+00 +0.0000000000000000e+00 -2.9999999521086149e+00 +3.0948684162993310e-04 +0.0000000000000000e+00 +9.9999995210894621e-01
-3.1000000000000014e+00 +9.0445043030534045e+00 +0.0000000000000000e+00 -3.0999999471581012e+00 +3.1980293048934909e-04 +0.0000000000000000e+00 +9.9999994886304144e-01
-3.2000000000000015e+00 +9.0444718069563006e+00 +0.0000000000000000e+00 -3.1999999418776759e+00 +3.3011901000595421e-04 +0.0000000000000000e+00 +9.9999994551071802e-01
-3.3000000000000016e+00 +9.0444382792517271e+00 +0.0000000000000000e+00 -3.2999999362566976e+00 +3.4043507980108435e-04 +0.0000000000000000e+00 +9.9999994205197640e-01
-3.4000000000000017e+00 +9.0444037199406786e+00 +0.0000000000000000e+00 -3.3999999302845243e+00 +3.5075113945192695e-04 +0.0000000000000000e+00 +9.9999993848681701e-01
-3.5000000000000018e+00 +9.0443681290241908e+00 +0.0000000000000000e+00 -3.4999999239505142e+00 +3.6106718849153560e-04 +0.0000000000000000e+00 +9.9999993481524041e-01
-3.6000000000000019e+00 +9.0443315065033509e+00 +0.0000000000000000e+00 -3.5999999172440251e+00 +3.7138322641104218e-04 +0.0000000000000000e+00 +9.9999993103724705e-01
-3.7000000000000020e+00 +9.0442938523792975e+00 +0.0000000000000000e+00 -3.6999999101544163e+00 +3.8169925268383869e-04 +0.0000000000000000e+00 +9.9999992715283748e-01
-3.8000000000000020e+00 +9.0442551666532207e+00 +0.0000000000000000e+00 -3.7999999026710456e+00 +3.9201526678975073e-04 +0.0000000000000000e+00 +9.9999992316201225e-01
-3.9000000000000021e+00 +9.0442154493263622e+00 +0.0000000000000000e+00 -3.8999998947832717e+00 +4.0233126821723387e-04 +0.0000000000000000e+00 +9.9999991906477192e-01
-4.0000000000000018e+00 +9.0441747004000170e+00 +0.0000000000000000e+00 -3.9999998864804529e+00 +4.1264725646337260e-04 +0.0000000000000000e+00 +9.9999991486111717e-01
-4.1000000000000014e+00 +9.0441329198755263e+00 +0.0000000000000000e+00 -4.0999998777519480e+00 +4.2296323103387844e-04 +0.0000000000000000e+00 +9.9999991055104853e-01
-4.2000000000000011e+00 +9.0440901077542826e+00 +0.0000000000000000e+00 -4.1999998685871152e+00 +4.3327919144308768e-04 +0.0000000000000000e+00 +9.9999990613456669e-01
-4.3000000000000007e+00 +9.0440462640377266e+00 +0.0000000000000000e+00 -4.2999998589753137e+00 +4.4359513721395848e-04 +0.0000000000000000e+00 +9.9999990161167229e-01
-4.4000000000000004e+00 +9.0440013887273434e+00 +0.0000000000000000e+00 -4.3999998489059022e+00 +4.5391106787806763e-04 +0.0000000000000000e+00 +9.9999989698236591e-01
-4.5000000000000000e+00 +9.0439554818246695e+00 +0.0000000000000000e+00 -4.4999998383682396e+00 +4.6422698297560660e-04 +0.0000000000000000e+00 +9.9999989224664831e-01
-4.5999999999999996e+00 +9.0439085433312822e+00 +0.0000000000000000e+00 -4.5999998273516844e+00 +4.7454288205537741e-04 +0.0000000000000000e+00 +9.9999988740452017e-01
-4.6999999999999993e+00 +9.0438605732488071e+00 +0.0000000000000000e+00 -4.6999998158455965e+00 +4.8485876467478753e-04 +0.0000000000000000e+00 +9.9999988245598226e-01
-4.7999999999999989e+00 +9.0438115715789102e+00 +0.0000000000000000e+00 -4.7999998038393343e+00 +4.9517463039984466e-04 +0.0000000000000000e+00 +9.9999987740103524e-01
-4.8999999999999986e+00 +9.0437615383233041e+00 +0.0000000000000000e+00 -4.8999997913222568e+00 +5.0549047880515063e-04 +0.0000000000000000e+00 +9.9999987223967979e-01
-4.9999999999999982e+00 +9.0437104734837401e+00 +0.0000000000000000e+00 -4.9999997782837236e+00 +5.1580630947389535e-04 +0.0000000000000000e+00 +9.9999986697191678e-01
-5.0999999999999979e+00 +9.0436583770620143e+00 +0.0000000000000000e+00 -5.0999997647130932e+00 +5.2612212199784950e-04 +0.0000000000000000e+00 +9.9999986159774690e-01
-5.1999999999999975e+00 +9.0436052490599597e+00 +0.0000000000000000e+00 -5.1999997505997255e+00 +5.3643791597735751e-04 +0.0000000000000000e+00 +9.9999985611717090e-01
-5.2999999999999972e+00 +9.0435510894794504e+00 +0.0000000000000000e+00 -5.2999997359329800e+00 +5.4675369102132932e-04 +0.0000000000000000e+00 +9.9999985053018958e-01
-5.3999999999999968e+00 +9.0434958983223996e+00 +0.0000000000000000e+00 -5.3999997207022163e+00 +5.5706944674723208e-04 +0.0000000000000000e+00 +9.9999984483680382e-01
-5.4999999999999964e+00 +9.0434396755907578e+00 +0.0000000000000000e+00 -5.4999997048967941e+00 +5.6738518278108107e-04 +0.0000000000000000e+00 +9.9999983903701428e-01
-5.5999999999999961e+00 +9.0433824212865126e+00 +0.0000000000000000e+00 -5.5999996885060730e+00 +5.7770089875820144e-04 +0.0000000000000000e+00 +9.9999983313082197e-01
-5.6999999999999957e+00 +9.0433241354116873e+00 +0.0000000000000000e+00 -5.6999996715194126e+00 +5.8801659433169737e-04 +0.0000000000000000e+00 +9.9999982711822755e-01
-5.7999999999999954e+00 +9.0432648179683373e+00 +0.0000000000000000e+00 -5.7999996539261724e+00 +5.9833226918091609e-04 +0.0000000000000000e+00 +9.9999982099923190e-01
-5.8999999999999950e+00 +9.0432044689585513e+00 +0.0000000000000000e+00 -5.8999996357157123e+00 +6.0864792301219828e-04 +0.0000000000000000e+00 +9.9999981477383582e-01
-5.9999999999999947e+00 +9.0431430883844452e+00 +0.0000000000000000e+00 -5.9999996168773926e+00 +6.1896355555885677e-04 +0.0000000000000000e+00 +9.9999980844204017e-01
-6.0999999999999943e+00 +9.0430806762481577e+00 +0.0000000000000000e+00 -6.0999995974005738e+00 +6.2927916658115366e-04 +0.0000000000000000e+00 +9.9999980200384575e-01
-6.1999999999999940e+00 +9.0430172325518541e+00 +0.0000000000000000e+00 -6.1999995772746157e+00 +6.3959475586627718e-04 +0.0000000000000000e+00 +9.9999979545925333e-01
-6.2999999999999936e+00 +9.0429527572977157e+00 +0.0000000000000000e+00 -6.2999995564888778e+00 +6.4991032322831723e-04 +0.0000000000000000e+00 +9.9999978880826368e-01
-6.3999999999999932e+00 +9.0428872504879436e+00 +0.0000000000000000e+00 -6.3999995350327215e+00 +6.6022586850824033e-04 +0.0000000000000000e+00 +9.9999978205087758e-01
-6.4999999999999929e+00 +9.0428207121247546e+00 +0.0000000000000000e+00 -6.4999995128955064e+00 +6.7054139157386315e-04 +0.0000000000000000e+00 +9.9999977518709593e-01
-6.5999999999999925e+00 +9.0427531422103744e+00 +0.0000000000000000e+00 -6.5999994900665939e+00 +6.8085689231982575e-04 +0.0000000000000000e+00 +9.9999976821691938e-01
-6.6999999999999922e+00 +9.0426845407470378e+00 +0.0000000000000000e+00 -6.6999994665353437e+00 +6.9117237066756315e-04 +0.0000000000000000e+00 +9.9999976114034861e-01
-6.7999999999999918e+00 +9.0426149077369882e+00 +0.0000000000000000e+00 -6.7999994422911172e+00 +7.0148782656527682e-04 +0.0000000000000000e+00 +9.9999975395738450e-01
-6.8999999999999915e+00 +9.0425442431824727e+00 +0.0000000000000000e+00 -6.8999994173232748e+00 +7.1180325998790458e-04 +0.0000000000000000e+00 +9.9999974666802760e-01
-6.9999999999999911e+00 +9.0424725470857386e+00 +0.0000000000000000e+00 -6.9999993916211771e+00 +7.2211867093708974e-04 +0.0000000000000000e+00 +9.9999973927227870e-01
-7.0999999999999908e+00 +9.0423998194490327e+00 +0.0000000000000000e+00 -7.0999993651741846e+00 +7.3243405944114972e-04 +0.0000000000000000e+00 +9.9999973177013846e-01
-7.1999999999999904e+00 +9.0423260602745970e+00 +0.0000000000000000e+00 -7.1999993379716587e+00 +7.4274942555504304e-04 +0.0000000000000000e+00 +9.9999972416160754e-01
-7.2999999999999901e+00 +9.0422512695646660e+00 +0.0000000000000000e+00 -7.2999993100029599e+00 +7.5306476936033598e-04 +0.0000000000000000e+00 +9.9999971644668650e-01
-7.3999999999999897e+00 +9.0421754473214655e+00 +0.0000000000000000e+00 -7.3999992812574495e+00 +7.6338009096516804e-04 +0.0000000000000000e+00 +9.9999970862537602e-01
-7.4999999999999893e+00 +9.0420985935472089e+00 +0.0000000000000000e+00 -7.4999992517244891e+00 +7.7369539050421666e-04 +0.0000000000000000e+00 +9.9999970069767663e-01
-7.5999999999999890e+00 +9.0420207082440953e+00 +0.0000000000000000e+00 -7.5999992213934391e+00 +7.8401066813757990e-04 +0.0000000000000000e+00 +9.9999969266358901e-01
-7.6999999999999886e+00 +9.0419417914143061e+00 +0.0000000000000000e+00 -7.6999991902536609e+00 +7.9432592403885511e-04 +0.0000000000000000e+00 +9.9999968452311361e-01
-7.7999999999999883e+00 +9.0418618430600066e+00 +0.0000000000000000e+00 -7.7999991582945158e+00 +8.0464115838324102e-04 +0.0000000000000000e+00 +9.9999967627625086e-01
-7.8999999999999879e+00 +9.0417808631833427e+00 +0.0000000000000000e+00 -7.8999991255053654e+00 +8.1495637134646273e-04 +0.0000000000000000e+00 +9.9999966792300143e-01
-7.9999999999999876e+00 +9.0416988517864443e+00 +0.0000000000000000e+00 -7.9999990918755701e+00 +8.2527156310477855e-04 +0.0000000000000000e+00 +9.9999965946336578e-01
-8.0999999999999872e+00 +9.0416158088714234e+00 +0.0000000000000000e+00 -8.0999990573944913e+00 +8.3558673383498771e-04 +0.0000000000000000e+00 +9.9999965089734433e-01
-8.1999999999999869e+00 +9.0415317344403725e+00 +0.0000000000000000e+00 -8.1999990220514913e+00 +8.4590188371443825e-04 +0.0000000000000000e+00 +9.9999964222493776e-01
-8.2999999999999865e+00 +9.0414466284953701e+00 +0.0000000000000000e+00 -8.2999989858359324e+00 +8.5621701292103560e-04 +0.0000000000000000e+00 +9.9999963344614640e-01
-8.3999999999999861e+00 +9.0413604910384731e+00 +0.0000000000000000e+00 -8.3999989487371742e+00 +8.6653212163325191e-04 +0.0000000000000000e+00 +9.9999962456097080e-01
-8.4999999999999858e+00 +9.0412733220717207e+00 +0.0000000000000000e+00 -8.4999989107445799e+00 +8.7684721003013536e-04 +0.0000000000000000e+00 +9.9999961556941142e-01
-8.5999999999999854e+00 +9.0411851215971382e+00 +0.0000000000000000e+00 -8.5999988718475109e+00 +8.8716227829132069e-04 +0.0000000000000000e+00 +9.9999960647146868e-01
-8.6999999999999851e+00 +9.0410958896167291e+00 +0.0000000000000000e+00 -8.6999988320353285e+00 +8.9747732659703960e-04 +0.0000000000000000e+00 +9.9999959726714316e-01
-8.7999999999999847e+00 +9.0410056261324794e+00 +0.0000000000000000e+00 -8.7999987912973943e+00 +9.0779235512813213e-04 +0.0000000000000000e+00 +9.9999958795643518e-01
-8.8999999999999844e+00 +9.0409143311463573e+00 +0.0000000000000000e+00 -8.8999987496230695e+00 +9.1810736406605815e-04 +0.0000000000000000e+00 +9.9999957853934529e-01
-8.9999999999999840e+00 +9.0408220046603134e+00 +0.0000000000000000e+00 -8.9999987070017173e+00 +9.2842235359290998e-04 +0.0000000000000000e+00 +9.9999956901587383e-01
-9.0999999999999837e+00 +9.0407286466762802e+00 +0.0000000000000000e+00 -9.0999986634226993e+00 +9.3873732389142478e-04 +0.0000000000000000e+00 +9.9999955938602136e-01
-9.1999999999999833e+00 +9.0406342571961709e+00 +0.0000000000000000e+00 -9.1999986188753766e+00 +9.4905227514499829e-04 +0.0000000000000000e+00 +9.9999954964978821e-01
-9.2999999999999829e+00 +9.0405388362218808e+00 +0.0000000000000000e+00 -9.2999985733491108e+00 +9.5936720753769821e-04 +0.0000000000000000e+00 +9.9999953980717471e-01
-9.3999999999999826e+00 +9.0404423837552859e+00 +0.0000000000000000e+00 -9.3999985268332651e+00 +9.6968212125427900e-04 +0.0000000000000000e+00 +9.9999952985818141e-01
-9.4999999999999822e+00 +9.0403448997982458e+00 +0.0000000000000000e+00 -9.4999984793172008e+00 +9.7999701648019636e-04 +0.0000000000000000e+00 +9.9999951980280866e-01
-9.5999999999999819e+00 +9.0402463843525993e+00 +0.0000000000000000e+00 -9.5999984307902810e+00 +9.9031189340270708e-04 +0.0000000000000000e+00 +9.9999950964105677e-01
-9.6999999999999815e+00 +9.0401468374201688e+00 +0.0000000000000000e+00 -9.6999983812418673e+00 +1.0006267522228091e-03 +0.0000000000000000e+00 +9.9999949937292620e-01
-9.7999999999999812e+00 +9.0400462590027519e+00 +0.0000000000000000e+00 -9.7999983306613210e+00 +1.0109415931671721e-03 +0.0000000000000000e+00 +9.9999948899841717e-01
-9.8999999999999808e+00 +9.0399446491021234e+00 +0.0000000000000000e+00 -9.8999982790380052e+00 +1.0212564164892197e-03 +0.0000000000000000e+00 +9.9999947851753002e-01
-9.9999999999999805e+00 +9.0398420077200328e+00 +0.0000000000000000e+00 -9.9999982263612814e+00 +1.0315712224691282e-03 +0.0000000000000000e+00 +9.9999946793026506e-01
-1.0099999999999980e+01 +9.0397383348581979e+00 +0.0000000000000000e+00 -1.0099998172620513e+01 +1.0418860114138236e-03 +0.0000000000000000e+00 +9.9999945723662242e-01
-1.0199999999999980e+01 +9.0396336305183063e+00 +0.0000000000000000e+00 -1.0199998117805061e+01 +1.0522007836569806e-03 +0.0000000000000000e+00 +9.9999944643660232e-01
-1.0299999999999979e+01 +9.0395278947020117e+00 +0.0000000000000000e+00 -1.0299998061904288e+01 +1.0625155395590201e-03 +0.0000000000000000e+00 +9.9999943553020487e-01
-1.0399999999999979e+01 +9.0394211274109271e+00 +0.0000000000000000e+00 -1.0399998004907557e+01 +1.0728302795071072e-03 +0.0000000000000000e+00 +9.9999942451743018e-01
-1.0499999999999979e+01 +9.0393133286466281e+00 +0.0000000000000000e+00 -1.0499997946804228e+01 +1.0831450039151501e-03 +0.0000000000000000e+00 +9.9999941339827825e-01
-1.0599999999999978e+01 +9.0392044984106477e+00 +0.0000000000000000e+00 -1.0599997887583665e+01 +1.0934597132237973e-03 +0.0000000000000000e+00 +9.9999940217274919e-01
-1.0699999999999978e+01 +9.0390946367044709e+00 +0.0000000000000000e+00 -1.0699997827235231e+01 +1.1037744079004366e-03 +0.0000000000000000e+00 +9.9999939084084277e-01
-1.0799999999999978e+01 +9.0389837435295384e+00 +0.0000000000000000e+00 -1.0799997765748287e+01 +1.1140890884391930e-03 +0.0000000000000000e+00 +9.9999937940255901e-01
-1.0899999999999977e+01 +9.0388718188872375e+00 +0.0000000000000000e+00 -1.0899997703112197e+01 +1.1244037553609272e-03 +0.0000000000000000e+00 +9.9999936785789778e-01
-1.0999999999999977e+01 +9.0387588627789022e+00 +0.0000000000000000e+00 -1.0999997639316321e+01 +1.1347184092132339e-03 +0.0000000000000000e+00 +9.9999935620685876e-01
-1.1099999999999977e+01 +9.0386448752058115e+00 +0.0000000000000000e+00 -1.1099997574350022e+01 +1.1450330505704401e-03 +0.0000000000000000e+00 +9.9999934444944183e-01
-1.1199999999999976e+01 +9.0385298561691840e+00 +0.0000000000000000e+00 -1.1199997508202662e+01 +1.1553476800336036e-03 +0.0000000000000000e+00 +9.9999933258564655e-01
-1.1299999999999976e+01 +9.0384138056701797e+00 +0.0000000000000000e+00 -1.1299997440863605e+01 +1.1656622982305115e-03 +0.0000000000000000e+00 +9.9999932061547259e-01
-1.1399999999999975e+01 +9.0382967237098910e+00 +0.0000000000000000e+00 -1.1399997372322211e+01 +1.1759769058156786e-03 +0.0000000000000000e+00 +9.9999930853891961e-01
-1.1499999999999975e+01 +9.0381786102893464e+00 +0.0000000000000000e+00 -1.1499997302567843e+01 +1.1862915034703463e-03 +0.0000000000000000e+00 +9.9999929635598706e-01
-1.1599999999999975e+01 +9.0380594654095034e+00 +0.0000000000000000e+00 -1.1599997231589862e+01 +1.1966060919026817e-03 +0.0000000000000000e+00 +9.9999928406667438e-01
-1.1699999999999974e+01 +9.0379392890712484e+00 +0.0000000000000000e+00 -1.1699997159377631e+01 +1.2069206718499917e-03 +0.0000000000000000e+00 +9.9999927167098090e-01
