# multipoles
# s[mm] polynom_b[n=0][T/m^n] polynom_b[n=1][T/m^n] polynom_b[n=2][T/m^n] polynom_b[n=3][T/m^n] polynom_b[n=4][T/m^n] polynom_b[n=5][T/m^n] polynom_b[n=6][T/m^n] 
+0.0000000000000000e+00 -1.0341665326607010e+00 +2.2821511756963608e+00 +1.8755200041713881e+01 +2.3321533862209620e+02 +2.2438040923378117e+04 +3.9597035791343072e+05 -8.4604526777122885e+07 
+1.0000000000000001e-01 -1.0341662231650075e+00 +2.2824501682646186e+00 +1.8670436075970418e+01 +2.3351666498257632e+02 +2.2947932851695394e+04 +3.7413458163667889e+05 -8.4209320425634786e+07 
+2.0000000000000001e-01 -1.0341659439530027e+00 +2.2827565785785939e+00 +1.8584106606047321e+01 +2.3366891850204541e+02 +2.3505551811670266e+04 +3.5310176999061258e+05 -8.4054736770719975e+07 
+3.0000000000000004e-01 -1.0341656985050787e+00 +2.2830709684919768e+00 +1.8496255466623243e+01 +2.3362648178967640e+02 +2.4115399261092152e+04 +3.3319533193639823e+05 -8.4173848293026403e+07 
+4.0000000000000002e-01 -1.0341654903016699e+00 +2.2833938998553807e+00 +1.8406926495028038e+01 +2.3334373678647549e+02 +2.4781976665948812e+04 +3.1473868284240895e+05 -8.4599727823631987e+07 
+5.0000000000000000e-01 -1.0341653228232268e+00 +2.2837259345257763e+00 +1.8316163528382827e+01 +2.3277506434391913e+02 +2.5509785557552426e+04 +2.9805524751816108e+05 -8.5365448849836588e+07 
+5.9999999999999998e-01 -1.0341651991467302e+00 +2.2840671463564663e+00 +1.8224077559764986e+01 +2.3189033059106404e+02 +2.6301110171896857e+04 +2.8337489981825504e+05 -8.6491807082023054e+07 
+6.9999999999999996e-01 -1.0341651207434563e+00 +2.2844156344511615e+00 +1.8131052421679083e+01 +2.3072215881441852e+02 +2.7149244876882251e+04 +2.7054879093243607e+05 -8.7949783208972782e+07 
+7.9999999999999993e-01 -1.0341650886855305e+00 +2.2847689984387811e+00 +1.8037541251337462e+01 +2.2931906812740874e+02 +2.8045205511619999e+04 +2.5933224882266048e+05 -8.9697724045428321e+07 
+8.9999999999999991e-01 -1.0341651040449849e+00 +2.2851248379152431e+00 +1.7943997178930921e+01 +2.2772957800119275e+02 +2.8980008042488480e+04 +2.4948060133041863e+05 -9.1693977100003004e+07 
+9.9999999999999989e-01 -1.0341651678938084e+00 +2.2854807524399141e+00 +1.7850873335816591e+01 +2.2600220843705776e+02 +2.9944668387524067e+04 +2.4074917488556847e+05 -9.3896889670148671e+07 
+1.0999999999999999e+00 -1.0341652813038940e+00 +2.2858343415233628e+00 +1.7758622849676634e+01 +2.2418548040656870e+02 +3.0930202494016350e+04 +2.3289329164852409e+05 -9.6264809152627468e+07 
+1.2000000000000000e+00 -1.0341654453469995e+00 +2.2861832046262243e+00 +1.7667698840357492e+01 +2.2232791595102501e+02 +3.1927626402426838e+04 +2.2566826866654758e+05 -9.8756083287500829e+07 
+1.3000000000000000e+00 -1.0341656610947600e+00 +2.2865249411443735e+00 +1.7578554424158700e+01 +2.2047803870564562e+02 +3.2927956144153970e+04 +2.1882941448233006e+05 -1.0132905959780295e+08 
+1.4000000000000001e+00 -1.0341659296186760e+00 +2.2868571504076627e+00 +1.7491642713835116e+01 +2.1868437398701559e+02 +3.3922207725832319e+04 +2.1213202841389427e+05 -1.0394208525616573e+08 
+1.5000000000000002e+00 -1.0341662519900221e+00 +2.2871774316746238e+00 +1.7407416807427769e+01 +2.1699544903987874e+02 +3.4901397332117820e+04 +2.0533139877893194e+05 -1.0655350800274387e+08 
+1.6000000000000003e+00 -1.0341666292798553e+00 +2.2874833841130111e+00 +1.7326329793193825e+01 +2.1545979367440640e+02 +3.5856541202684464e+04 +1.9818279891306025e+05 -1.0912167546329121e+08 
+1.7000000000000004e+00 -1.0341670625590338e+00 +2.2877726068056989e+00 +1.7248834751729952e+01 +2.1412594017261287e+02 +3.6778655587366622e+04 +1.9044148741866878e+05 -1.1160493490789950e+08 
+1.8000000000000005e+00 -1.0341675528981302e+00 +2.2880426987394324e+00 +1.7175384747473636e+01 +2.1304242367136837e+02 +3.7658756882323680e+04 +1.8186270570803899e+05 -1.1396163380590175e+08 
+1.9000000000000006e+00 -1.0341681013674260e+00 +2.2882912587950299e+00 +1.7106432829740889e+01 +2.1225778255705572e+02 +3.8487861599333468e+04 +1.7220167532178407e+05 -1.1615011963805266e+08 
+2.0000000000000004e+00 -1.0341687090369307e+00 +2.2885158857405630e+00 +1.7042432036782799e+01 +2.1182055870788500e+02 +3.9256986268209439e+04 +1.6121359631318550e+05 -1.1812873935581453e+08 
+2.1000000000000005e+00 -1.0341693769762830e+00 +2.2887141782259675e+00 +1.6983835384091776e+01 +2.1177929774235480e+02 +3.9957147648151098e+04 +1.4865364548650381e+05 -1.1985584033801563e+08 
+2.2000000000000006e+00 -1.0341701062547697e+00 +2.2888837347763835e+00 +1.6931095870084267e+01 +2.1218254928225230e+02 +4.0579362595865721e+04 +1.3427697457843457e+05 -1.2128976968284768e+08 
+2.3000000000000007e+00 -1.0341708979413300e+00 +2.2890221537812407e+00 +1.6884666477046810e+01 +2.1307886734970393e+02 +4.1114648033502483e+04 +1.1783870766041054e+05 -1.2238887399650204e+08 
+2.4000000000000008e+00 -1.0341717531044547e+00 +2.2891270334932132e+00 +1.6845000160394957e+01 +2.1451681047201239e+02 +4.1554021140316523e+04 +9.9093940238933603e+04 -1.2311150025550091e+08 
+2.5000000000000009e+00 -1.0341726728122675e+00 +2.2891959720081356e+00 +1.6812549860691782e+01 +2.1654494235089615e+02 +4.1888499104004579e+04 +7.7797735103496991e+04 -1.2341599454543634e+08 
+2.6000000000000010e+00 -1.0341736573012734e+00 +2.2892272713452773e+00 +1.6787648513878711e+01 +2.1920182580432893e+02 +4.2111208357907584e+04 +5.3742318101490884e+04 -1.2327003293952332e+08 
+2.7000000000000011e+00 -1.0341747035927578e+00 +2.2892221003977173e+00 +1.6770142643279179e+01 +2.2248512328361244e+02 +4.2223710533113903e+04 +2.6872076771697859e+04 -1.2267822024474858e+08 
+2.8000000000000012e+00 -1.0341758079315324e+00 +2.2891823574675465e+00 +1.6759755431620210e+01 +2.2638207669067640e+02 +4.2229677764052656e+04 -2.8298894838424089e+03 -1.2165430313181598e+08 
+2.9000000000000012e+00 -1.0341769665623866e+00 +2.2891099408259463e+00 +1.6756210050895966e+01 +2.3087992915137056e+02 +4.2132782370145127e+04 -3.5380489816530622e+04 -1.2021202879498139e+08 
+3.0000000000000013e+00 -1.0341781757300907e+00 +2.2890067487145074e+00 +1.6759229660018431e+01 +2.3596592498296320e+02 +4.1936696918951646e+04 -7.0796641815653275e+04 -1.1836514527858150e+08 
+3.1000000000000014e+00 -1.0341794316794710e+00 +2.2888746793512800e+00 +1.6768537412594473e+01 +2.4162730953069752e+02 +4.1645094085100136e+04 -1.0909527060287862e+05 -1.1612740080468951e+08 
+3.2000000000000015e+00 -1.0341807306553363e+00 +2.2887156309405476e+00 +1.6783856445309723e+01 +2.4785132890887726e+02 +4.1261646881525114e+04 -1.5029330743219965e+05 -1.1351254487545766e+08 
+3.3000000000000016e+00 -1.0341820689025423e+00 +2.2885315016674239e+00 +1.6804909883463228e+01 +2.5462523018504052e+02 +4.0790028570976705e+04 -1.9440769083169635e+05 -1.1053432787938970e+08 
+3.4000000000000017e+00 -1.0341834426660266e+00 +2.2883241897114468e+00 +1.6831420843953254e+01 +2.6193626101194326e+02 +4.0233912612555956e+04 -2.4145536457931934e+05 -1.0720650082252219e+08 
+3.5000000000000018e+00 -1.0341848481908158e+00 +2.2880955932518914e+00 +1.6863112433030807e+01 +2.6977166949319718e+02 +3.9596972719574173e+04 -2.9145327698024217e+05 -1.0354281561872530e+08 
+3.6000000000000019e+00 -1.0341862817219749e+00 +2.2878476104669345e+00 +1.6899707738800121e+01 +2.7811870423390394e+02 +3.8882883010246078e+04 -3.4441838126236858e+05 -9.9557025813337788e+07 
+3.7000000000000020e+00 -1.0341877395047943e+00 +2.2875821395361733e+00 +1.6940929851983487e+01 +2.8696461429020195e+02 +3.8095317621739836e+04 -4.0036763535791211e+05 -9.5262884741621032e+07 
+3.8000000000000020e+00 -1.0341892177845724e+00 +2.2873010786568222e+00 +1.6986501835832069e+01 +2.9629664872889776e+02 +3.7237951303061491e+04 -4.5931799945396616e+05 -9.0674148389955744e+07 
+3.9000000000000021e+00 -1.0341907128068495e+00 +2.2870063260374360e+00 +1.7036146754727231e+01 +3.0610205682477670e+02 +3.6314458866863242e+04 -5.2128643718433130e+05 -8.5804572748914912e+07 
+4.0000000000000018e+00 -1.0341922208173071e+00 +2.2866997799114333e+00 +1.7089587657975187e+01 +3.1636808769521997e+02 +3.5328515520585330e+04 -5.8628991362115077e+05 -8.0667915431674540e+07 
+4.1000000000000014e+00 -1.0341937380617916e+00 +2.2863833385338639e+00 +1.7146547581693994e+01 +3.2708199042876907e+02 +3.4283796833149449e+04 -6.5434539612260170e+05 -7.5277935499035597e+07 
+4.2000000000000011e+00 -1.0341952607863776e+00 +2.2860589001897127e+00 +1.7206749553484226e+01 +3.3823101384928856e+02 +3.3183978663351532e+04 -7.2546985299185396e+05 -6.9648393143203497e+07 
+4.3000000000000007e+00 -1.0341967852373408e+00 +2.2857283632012093e+00 +1.7269916587914942e+01 +3.4980240635188528e+02 +3.2032737251850758e+04 -7.9968025268926553e+05 -6.3793050122091770e+07 
+4.4000000000000004e+00 -1.0341983076612116e+00 +2.2853936259284322e+00 +1.7335771690492773e+01 +3.6178341587613966e+02 +3.0833749154253994e+04 -8.7699356366091000e+05 -5.7725669436216831e+07 
+4.5000000000000000e+00 -1.0341998243047754e+00 +2.2850565867834214e+00 +1.7404037855621752e+01 +3.7416128939363739e+02 +2.9590691276284826e+04 -9.5742675107812451e+05 -5.1460015452458546e+07 
+4.5999999999999996e+00 -1.0342013319069161e+00 +2.2847189984715777e+00 +1.7474424858969254e+01 +3.8691816231292870e+02 +2.8308013178321446e+04 -1.0409477277760915e+06 -4.5014670191284396e+07 
+4.6999999999999993e+00 -1.0342028289183958e+00 +2.2843821397450457e+00 +1.7546560754773701e+01 +4.0001159304072115e+02 +2.6994301804107250e+04 -1.1273033231135467e+06 -3.8434023259725243e+07 
+4.7999999999999989e+00 -1.0342043141492741e+00 +2.2840472034113213e+00 +1.7620044860953744e+01 +4.1339169031080320e+02 +2.5659470238303427e+04 -1.2161770348985950e+06 -3.1770718261571936e+07 
+4.8999999999999986e+00 -1.0342057864097767e+00 +2.2837153823641358e+00 +1.7694476505564005e+01 +4.2700855777134188e+02 +2.4313431670526214e+04 -1.3072523194924805e+06 -2.5077400613512062e+07 
+4.9999999999999982e+00 -1.0342072445104120e+00 +2.2833878695513903e+00 +1.7769455046699008e+01 +4.4081229520704096e+02 +2.2966098945286991e+04 -1.4002125991843755e+06 -1.8406715229414698e+07 
+5.0999999999999979e+00 -1.0342086872619711e+00 +2.2830658579868950e+00 +1.7844579869996434e+01 +4.5475299805723728e+02 +2.1627384634482194e+04 -1.4947412587196892e+06 -1.1811306969396679e+07 
+5.1999999999999975e+00 -1.0342101134755159e+00 +2.2827505407544395e+00 +1.7919450389377488e+01 +4.6878075718691747e+02 +2.0307201024072005e+04 -1.5905216433799684e+06 -5.3438206222628457e+06 
+5.2999999999999972e+00 -1.0342115219624011e+00 +2.2824431110072907e+00 +1.7993666048749631e+01 +4.8284565876360278e+02 +1.9015460097729316e+04 -1.6872370576093239e+06 +9.4309909333503025e+05 
+5.3999999999999968e+00 -1.0342129115342940e+00 +2.2821447619768200e+00 +1.8066826324513823e+01 +4.9689778391358800e+02 +1.7762073503209096e+04 -1.7845707624774347e+06 +6.9968076094215624e+06 
+5.4999999999999964e+00 -1.0342142810031969e+00 +2.2818566869782724e+00 +1.8138530729420815e+01 +5.1088720838445289e+02 +1.6556952484964218e+04 -1.8822059729662302e+06 +1.2764660771919195e+07 
+5.5999999999999961e+00 -1.0342156291814442e+00 +2.2815800794087000e+00 +1.8208378811055990e+01 +5.2476400251929158e+02 +1.5410007931070184e+04 -1.9798258573043148e+06 +1.8194014530983351e+07 
+5.6999999999999957e+00 -1.0342169548817368e+00 +2.2813161327569911e+00 +1.8275970156994379e+01 +5.3847823082728337e+02 +1.4331150280701919e+04 -2.0771135338113832e+06 +2.3232225326718334e+07 
+5.7999999999999954e+00 -1.0342182569171225e+00 +2.2810660406057655e+00 +1.8340904392251094e+01 +5.5197995180353939e+02 +1.3330289590261169e+04 -2.1737520692176633e+06 +2.7826649684544772e+07 
+5.8999999999999950e+00 -1.0342195341010307e+00 +2.2808309966383669e+00 +1.8402781183677796e+01 +5.6521921760610007e+02 +1.2417335455989694e+04 -2.2694244761786205e+06 +3.1924644529532336e+07 
+5.9999999999999947e+00 -1.0342207852472751e+00 +2.2806121946385485e+00 +1.8461200240116074e+01 +5.7814607394200277e+02 +1.1602197028152941e+04 -2.3638137119945963e+06 +3.5473567032437034e+07 
+6.0999999999999943e+00 -1.0342220091701122e+00 +2.2804108284987721e+00 +1.8515761320764817e+01 +5.9071055969116605e+02 +1.0894782855584384e+04 -2.4566026757635595e+06 +3.8420775298686013e+07 
+6.1999999999999940e+00 -1.0342232046841671e+00 +2.2802280922230271e+00 +1.8566064224127125e+01 +6.0286270672317289e+02 +1.0305001121401989e+04 -2.5474742067636643e+06 +4.0713627137450986e+07 
+6.2999999999999936e+00 -1.0342243706045544e+00 +2.2800651799309062e+00 +1.8611708805427707e+01 +6.1455253963128985e+02 +9.8427593056307524e+03 -2.6361110822139205e+06 +4.2299481646698475e+07 
+6.3999999999999932e+00 -1.0342255057467795e+00 +2.2799232858633975e+00 +1.8652294962909295e+01 +6.2573007545656390e+02 +9.5179644713439866e+03 -2.7221960150844231e+06 +4.3125697740546137e+07 
+6.4999999999999929e+00 -1.0342266089268790e+00 +2.2798036044269532e+00 +1.8687422660343703e+01 +6.3634532160573303e+02 +9.3405227236787778e+03 -2.8054116404763060e+06 +4.3139636979239702e+07 
+6.5999999999999925e+00 -1.0342276797742396e+00 +2.2797071233290001e+00 +1.8716837899654887e+01 +6.4635216350691780e+02 +9.3165521543665818e+03 -2.8854561649773736e+06 +4.2309015695653215e+07 
+6.6999999999999922e+00 -1.0342287211104206e+00 +2.2796336317115182e+00 +1.8740882749032671e+01 +6.5573469416776561e+02 +9.4367251894971650e+03 -2.9621772679025871e+06 +4.0684292596876353e+07 
+6.7999999999999918e+00 -1.0342297365490627e+00 +2.2795825229446929e+00 +1.8760054452748097e+01 +6.6448832764144834e+02 +9.6876802418834322e+03 -3.0354821865325859e+06 +3.8337500986515179e+07 
+6.8999999999999915e+00 -1.0342307297041065e+00 +2.2795531904155890e+00 +1.8774850333277943e+01 +6.7260848005821970e+02 +1.0056053887151464e+04 -3.1052781757191983e+06 +3.5340683303327680e+07 
+6.9999999999999911e+00 -1.0342317041896860e+00 +2.2795450276131310e+00 +1.8785767772506524e+01 +6.8009056651091839e+02 +1.0528481362046363e+04 -3.1714724904367137e+06 +3.1765888474652875e+07 
+7.0999999999999908e+00 -1.0342326636201395e+00 +2.2795574281140536e+00 +1.8793304213560216e+01 +6.8693000158717575e+02 +1.1091596519830919e+04 -3.2339723893487267e+06 +2.7685172151224691e+07 
+7.1999999999999904e+00 -1.0342336116100579e+00 +2.2795897855938958e+00 +1.8797957168484615e+01 +6.9312219914497280e+02 +1.1732031674885991e+04 -3.2926851338935224e+06 +2.3170597458233636e+07 
+7.2999999999999901e+00 -1.0342345517742551e+00 +2.2796414938259972e+00 +1.8800224216282395e+01 +6.9866257246249711e+02 +1.2436417623964342e+04 -3.3475179896086105e+06 +1.8294234930862058e+07 
+7.3999999999999897e+00 -1.0342354877277582e+00 +2.2797119466836686e+00 +1.8800603002828833e+01 +7.0354653428149766e+02 +1.3191383640828652e+04 -3.3983782268120376e+06 +1.3128162546784660e+07 
+7.4999999999999893e+00 -1.0342364230858212e+00 +2.2798005381458157e+00 +1.8799591244038698e+01 +7.0776949673783713e+02 +1.3983557402636490e+04 -3.4451731205732636e+06 +7.7444661059633335e+06 
+7.5999999999999890e+00 -1.0342373614639406e+00 +2.2799066622953719e+00 +1.8797686729151142e+01 +7.1132687153851043e+02 +1.4799564917096866e+04 -3.4878099522424033e+06 +2.2152395932283821e+06 
+7.6999999999999886e+00 -1.0342383064778542e+00 +2.2800297133262322e+00 +1.8795387322657799e+01 +7.1421406984345697e+02 +1.5626030471421873e+04 -3.5261960091118994e+06 -3.3874145485095633e+06 
+7.7999999999999883e+00 -1.0342392617435323e+00 +2.2801690855403796e+00 +1.8793190963896581e+01 +7.1642650248369989e+02 +1.6449576630177882e+04 -3.5602385861892481e+06 -8.9913853904190790e+06 
+7.8999999999999879e+00 -1.0342402308771654e+00 +2.2803241733537960e+00 +1.8791595666836528e+01 +7.1795957987262352e+02 +1.7256824232823885e+04 -3.5898449860327397e+06 -1.4524553498665858e+07 
+7.9999999999999876e+00 -1.0342412174952318e+00 +2.2804943712996812e+00 +1.8791099530764747e+01 +7.1880871204380242e+02 +1.8034392170860599e+04 -3.6149225194581756e+06 -1.9914789829341985e+07 
+8.0999999999999872e+00 -1.0342422252144232e+00 +2.2806790740256409e+00 +1.8792200732127657e+01 +7.1896930881545200e+02 +1.8768897533969033e+04 -3.6353785068633715e+06 -2.5089956410591781e+07 
+8.1999999999999869e+00 -1.0342432576516822e+00 +2.2808776763029046e+00 +1.8795397529756702e+01 +7.1843677966202620e+02 +1.9446955506977614e+04 -3.6511202779764282e+06 -2.9977905851454731e+07 
+8.2999999999999865e+00 -1.0342443184242052e+00 +2.2810895730227676e+00 +1.8801188268027840e+01 +7.1720653390473933e+02 +2.0055179285813920e+04 -3.6620551733462838e+06 -3.4506480885216147e+07 
+8.3999999999999861e+00 -1.0342454111494552e+00 +2.2813141592036867e+00 +1.8810071379026180e+01 +7.1527398061442489e+02 +2.0580180034585686e+04 -3.6680905441933149e+06 -3.8603514172233440e+07 
+8.4999999999999858e+00 -1.0342465394451892e+00 +2.2815508298687619e+00 +1.8822545374527071e+01 +7.1263453507581926e+02 +2.1008567478658159e+04 -3.6691337920150454e+06 -4.2196832089214183e+07 
+8.5999999999999854e+00 -1.0342477054298502e+00 +2.2817988603293191e+00 +1.8838961360215624e+01 +7.0929628049352630e+02 +2.1330734198098544e+04 -3.6651828039686307e+06 -4.5234312561566323e+07 
+8.6999999999999851e+00 -1.0342489051718504e+00 +2.2820574179917261e+00 +1.8859080539994331e+01 +7.0530124039990108e+02 +2.1551263895359742e+04 -3.6565025729738344e+06 -4.7736639031979963e+07 
+8.7999999999999847e+00 -1.0342501332209788e+00 +2.2823257249679876e+00 +1.8882515386553120e+01 +7.0069642039946029e+02 +2.1678129157749561e+04 -3.6434060572593524e+06 -4.9741280479456306e+07 
+8.8999999999999844e+00 -1.0342513841264420e+00 +2.2826030032132656e+00 +1.8908878262260462e+01 +6.9552883343038684e+02 +2.1719304759271228e+04 -3.6262062822925197e+06 -5.1285715600260355e+07 
+8.9999999999999840e+00 -1.0342526524368092e+00 +2.2828884745201146e+00 +1.8937781412963233e+01 +6.8984549952351847e+02 +2.1682767797737059e+04 -3.6052163319936083e+06 -5.2407434122895181e+07 
+9.0999999999999837e+00 -1.0342539326999496e+00 +2.2831813605135416e+00 +1.8968836959400903e+01 +6.8369344597274733e+02 +2.1576497862581895e+04 -3.5807493501128573e+06 -5.3143937605262682e+07 
+9.1999999999999833e+00 -1.0342552194630781e+00 +2.2834808826386395e+00 +1.9001656900934108e+01 +6.7711970779955357e+02 +2.1408476965105034e+04 -3.5531185435466878e+06 -5.3532739083231933e+07 
+9.2999999999999829e+00 -1.0342565072726508e+00 +2.2837862621607039e+00 +1.9035853101742081e+01 +6.7017132778223663e+02 +2.1186689806307644e+04 -3.5226371829298567e+06 -5.3611364347749516e+07 
+9.3999999999999826e+00 -1.0342577906743893e+00 +2.2840967201623075e+00 +1.9071037292697813e+01 +6.6289535659086505e+02 +2.0919123741092415e+04 -3.4896186038627550e+06 -5.3417351755648866e+07 
+9.4999999999999822e+00 -1.0342590642132892e+00 +2.2844114775280664e+00 +1.9106821070295069e+01 +6.5533885333101159e+02 +2.0613768807986831e+04 -3.4543762106966581e+06 -5.2988252379971333e+07 
+9.5999999999999819e+00 -1.0342603224334930e+00 +2.2847297549498280e+00 +1.9142815880837208e+01 +6.4754888541207174e+02 +2.0278618024602529e+04 -3.4172234761248976e+06 -5.2361631384506412e+07 
+9.6999999999999815e+00 -1.0342615598784137e+00 +2.2850507729124092e+00 +1.9178633033518182e+01 +6.3957252904078177e+02 +1.9921667148659624e+04 -3.3784739446044052e+06 -5.1575066897003777e+07 
+9.7999999999999812e+00 -1.0342627710905679e+00 +2.2853737516916257e+00 +1.9213883678690383e+01 +6.3145686934692037e+02 +1.9550915093597927e+04 -3.3384412335958718e+06 -5.0666151976284906e+07 
+9.8999999999999808e+00 -1.0342639506116929e+00 +2.2856979113494953e+00 +1.9248178821867224e+01 +6.2324900056317449e+02 +1.9174363657771049e+04 -3.2974390350388894e+06 -4.9672493293074749e+07 
+9.9999999999999805e+00 -1.0342650929825774e+00 +2.2860224717273030e+00 +1.9281129299763901e+01 +6.1499602630610411e+02 +1.8800017998063384e+04 -3.2557811175373560e+06 -4.8631713418858267e+07 
+1.0099999999999980e+01 -1.0342661927431454e+00 +2.2863466524375706e+00 +1.9312345791233195e+01 +6.0674505984717996e+02 +1.8435886409087540e+04 -3.2137813283544499e+06 -4.7581449720062464e+07 
