# field on trajectory
# s[mm] rx[mm] ry[mm] rz[mm] bx[T] by[T] bz[T]
-0.0000000000000000e+00 +9.1076201166355002e+00 +0.0000000000000000e+00 -0.0000000000000000e+00 +1.1495922268262364e-02 -1.0335702937432902e+00 -5.8815104884127944e-02
-1.0005104645227200e-01 +9.1076196006322601e+00 +0.0000000000000000e+00 -1.0005104645049701e-01 +1.1496063159637008e-02 -1.0335727034181568e+00 -5.8814739054223082e-02
-2.0010209290454301e-01 +9.1076180526189905e+00 +0.0000000000000000e+00 -2.0010209289035000e-01 +1.1496204657455341e-02 -1.0335750889134940e+00 -5.8814401479194346e-02
-3.0015313935681498e-01 +9.1076154725992300e+00 +0.0000000000000000e+00 -3.0015313930891202e-01 +1.1496346650307963e-02 -1.0335774485574571e+00 -5.8814092228712575e-02
-4.0020418580908601e-01 +9.1076118605712200e+00 +0.0000000000000000e+00 -4.0020418569554000e-01 +1.1496489026787677e-02 -1.0335797806780185e+00 -5.8813811372454110e-02
-5.0025523226135804e-01 +9.1076072165331805e+00 +0.0000000000000000e+00 -5.0025523203958799e-01 +1.1496631675491678e-02 -1.0335820836029408e+00 -5.8813558980098594e-02
-6.0030627871362996e-01 +9.1076015404886608e+00 +0.0000000000000000e+00 -6.0030627833041095e-01 +1.1496774485023818e-02 -1.0335843556597513e+00 -5.8813335121326846e-02
-7.0035732516590099e-01 +9.1075948324376501e+00 +0.0000000000000000e+00 -7.0035732455736299e-01 +1.1496917343997210e-02 -1.0335865951757484e+00 -5.8813139865820346e-02
-8.0040837161817302e-01 +9.1075870923766207e+00 +0.0000000000000000e+00 -8.0040837070980198e-01 +1.1497060141036571e-02 -1.0335888004779847e+00 -5.8812973283259427e-02
-9.0045941807044405e-01 +9.1075783203073204e+00 +0.0000000000000000e+00 -9.0045941677707997e-01 +1.1497202764780407e-02 -1.0335909698932397e+00 -5.8812835443320999e-02
-1.0005104645227201e+00 +9.1075685162297706e+00 +0.0000000000000000e+00 -1.0005104627485499e+00 +1.1497345103883510e-02 -1.0335931017480122e+00 -5.8812726415677453e-02
-1.1005615109749900e+00 +9.1075576801457405e+00 +0.0000000000000000e+00 -1.1005615086135800e+00 +1.1497487047019292e-02 -1.0335951943685060e+00 -5.8812646269994939e-02
-1.2006125574272599e+00 +9.1075458120516792e+00 +0.0000000000000000e+00 -1.2006125543615100e+00 +1.1497628482882315e-02 -1.0335972460806282e+00 -5.8812595075932450e-02
-1.3006636038795301e+00 +9.1075329119511395e+00 +0.0000000000000000e+00 -1.3006635999817000e+00 +1.1497769300190329e-02 -1.0335992552099473e+00 -5.8812572903138800e-02
-1.4007146503318000e+00 +9.1075189798405596e+00 +0.0000000000000000e+00 -1.4007146454635000e+00 +1.1497909387687025e-02 -1.0336012200817113e+00 -5.8812579821252764e-02
-1.5007656967840699e+00 +9.1075040157234994e+00 +0.0000000000000000e+00 -1.5007656907962801e+00 +1.1498048634144071e-02 -1.0336031390208040e+00 -5.8812615899899806e-02
-1.6008167432363500e+00 +9.1074880195981898e+00 +0.0000000000000000e+00 -1.6008167359693799e+00 +1.1498186986009478e-02 -1.0336050107256991e+00 -5.8812681171148025e-02
-1.7008677896886200e+00 +9.1074709914646199e+00 +0.0000000000000000e+00 -1.7008677809721600e+00 +1.1498324615105793e-02 -1.0336068353564718e+00 -5.8812775520285292e-02
-1.8009188361408901e+00 +9.1074529313228005e+00 +0.0000000000000000e+00 -1.8009188257939699e+00 +1.1498461748326333e-02 -1.0336086134304241e+00 -5.8812898796731412e-02
-1.9009698825931600e+00 +9.1074338391727103e+00 +0.0000000000000000e+00 -1.9009698704241800e+00 +1.1498598612573680e-02 -1.0336103454650121e+00 -5.8813050849897477e-02
-2.0010209290454299e+00 +9.1074137150161505e+00 +0.0000000000000000e+00 -2.0010209148521301e+00 +1.1498735434758409e-02 -1.0336120319778961e+00 -5.8813231529185148e-02
-2.1010719754977001e+00 +9.1073925588495506e+00 +0.0000000000000000e+00 -2.1010719590671898e+00 +1.1498872441798173e-02 -1.0336136734870180e+00 -5.8813440683987341e-02
-2.2011230219499698e+00 +9.1073703706746993e+00 +0.0000000000000000e+00 -2.2011230030586999e+00 +1.1499009860616183e-02 -1.0336152705106267e+00 -5.8813678163686475e-02
-2.3011740684022501e+00 +9.1073471504933696e+00 +0.0000000000000000e+00 -2.3011740468160200e+00 +1.1499147918140216e-02 -1.0336168235673486e+00 -5.8813943817654937e-02
-2.4012251148545198e+00 +9.1073228983037797e+00 +0.0000000000000000e+00 -2.4012250903285000e+00 +1.1499286841301526e-02 -1.0336183331762543e+00 -5.8814237495255037e-02
-2.5012761613067900e+00 +9.1072976141041497e+00 +0.0000000000000000e+00 -2.5012761335854998e+00 +1.1499426857033581e-02 -1.0336197998569034e+00 -5.8814559045838287e-02
-2.6013272077590601e+00 +9.1072712978980501e+00 +0.0000000000000000e+00 -2.6013271765763899e+00 +1.1499568192270746e-02 -1.0336212241293878e+00 -5.8814908318744509e-02
-2.7013782542113298e+00 +9.1072439496836903e+00 +0.0000000000000000e+00 -2.7013782192905000e+00 +1.1499711073947396e-02 -1.0336226065144154e+00 -5.8815285163302637e-02
-2.8014293006636000e+00 +9.1072155694610704e+00 +0.0000000000000000e+00 -2.8014292617172001e+00 +1.1499855728996570e-02 -1.0336239475333464e+00 -5.8815689428829664e-02
-2.9014803471158799e+00 +9.1071861572302009e+00 +0.0000000000000000e+00 -2.9014803038458301e+00 +1.1500002384348817e-02 -1.0336252477082553e+00 -5.8816120964630458e-02
-3.0015313935681500e+00 +9.1071557129910694e+00 +0.0000000000000000e+00 -3.0015313456657702e+00 +1.1500151266931066e-02 -1.0336265075619864e+00 -5.8816579619997429e-02
-3.1015824400204202e+00 +9.1071242367454595e+00 +0.0000000000000000e+00 -3.1015823871663502e+00 +1.1500302603665365e-02 -1.0336277276182047e+00 -5.8817065244210001e-02
-3.2016334864726899e+00 +9.1070917284915893e+00 +0.0000000000000000e+00 -3.2016334283369399e+00 +1.1500456621467904e-02 -1.0336289084014656e+00 -5.8817577686534901e-02
-3.3016845329249600e+00 +9.1070581882277004e+00 +0.0000000000000000e+00 -3.3016844691668901e+00 +1.1500613547247698e-02 -1.0336300504372626e+00 -5.8818116796225381e-02
-3.4017355793772301e+00 +9.1070236159573206e+00 +0.0000000000000000e+00 -3.4017355096455599e+00 +1.1500773607905315e-02 -1.0336311542520700e+00 -5.8818682422520294e-02
-3.5017866258295101e+00 +9.1069880116786806e+00 +0.0000000000000000e+00 -3.5017865497623002e+00 +1.1500937030331428e-02 -1.0336322203734243e+00 -5.8819274414644351e-02
-3.6018376722817802e+00 +9.1069513753917892e+00 +0.0000000000000000e+00 -3.6018375895064700e+00 +1.1501103939410857e-02 -1.0336332495587646e+00 -5.8819892500400602e-02
-3.7018887187340499e+00 +9.1069137070966395e+00 +0.0000000000000000e+00 -3.7018886288674100e+00 +1.1501274073300545e-02 -1.0336342434336836e+00 -5.8820535947276362e-02
-3.8019397651863200e+00 +9.1068750067950095e+00 +0.0000000000000000e+00 -3.8019396678344899e+00 +1.1501447078489126e-02 -1.0336352038291861e+00 -5.8821203913686539e-02
-3.9019908116385902e+00 +9.1068352744833394e+00 +0.0000000000000000e+00 -3.9019907063970600e+00 +1.1501622601426184e-02 -1.0336361325759984e+00 -5.8821895558049897e-02
-4.0020418580908599e+00 +9.1067945101634198e+00 +0.0000000000000000e+00 -4.0020417445444796e+00 +1.1501800288519210e-02 -1.0336370315045051e+00 -5.8822610038788782e-02
-4.1020929045431300e+00 +9.1067527138370199e+00 +0.0000000000000000e+00 -4.1020927822660997e+00 +1.1501979786130998e-02 -1.0336379024447162e+00 -5.8823346514330396e-02
-4.2021439509954099e+00 +9.1067098855023705e+00 +0.0000000000000000e+00 -4.2021438195512797e+00 +1.1502160740577040e-02 -1.0336387472262345e+00 -5.8824104143108173e-02
-4.3021949974476801e+00 +9.1066660251594502e+00 +0.0000000000000000e+00 -4.3021948563893604e+00 +1.1502342798122588e-02 -1.0336395676782029e+00 -5.8824882083561895e-02
-4.4022460438999502e+00 +9.1066211328065094e+00 +0.0000000000000000e+00 -4.4022458927697201e+00 +1.1502525604980053e-02 -1.0336403656292712e+00 -5.8825679494139069e-02
-4.5022970903522204e+00 +9.1065752084488594e+00 +0.0000000000000000e+00 -4.5022969286816901e+00 +1.1502708807305990e-02 -1.0336411429075305e+00 -5.8826495533294623e-02
-4.6023481368044896e+00 +9.1065282520811692e+00 +0.0000000000000000e+00 -4.6023479641146396e+00 +1.1502892051198860e-02 -1.0336419013405169e+00 -5.8827329359493821e-02
-4.7023991832567598e+00 +9.1064802637070095e+00 +0.0000000000000000e+00 -4.7023989990579196e+00 +1.1503074982695727e-02 -1.0336426427551209e+00 -5.8828180131210862e-02
-4.8024502297090397e+00 +9.1064312433245895e+00 +0.0000000000000000e+00 -4.8024500335008904e+00 +1.1503257247769934e-02 -1.0336433689775812e+00 -5.8829047006931375e-02
-4.9025012761613098e+00 +9.1063811909321402e+00 +0.0000000000000000e+00 -4.9025010674329002e+00 +1.1503438492328178e-02 -1.0336440818334294e+00 -5.8829929145152553e-02
-5.0025523226135800e+00 +9.1063301065332105e+00 +0.0000000000000000e+00 -5.0025521008432996e+00 +1.1503618362207632e-02 -1.0336447831474356e+00 -5.8830825704383492e-02
-5.1026033690658501e+00 +9.1062779901260207e+00 +0.0000000000000000e+00 -5.1026031337214599e+00 +1.1503796503173491e-02 -1.0336454747435926e+00 -5.8831735843147173e-02
-5.2026544155181202e+00 +9.1062248417123506e+00 +0.0000000000000000e+00 -5.2026541660567203e+00 +1.1503972560915968e-02 -1.0336461584450523e+00 -5.8832658719980307e-02
-5.3027054619703904e+00 +9.1061706612886404e+00 +0.0000000000000000e+00 -5.3027051978384501e+00 +1.1504146181047786e-02 -1.0336468360741040e+00 -5.8833593493435150e-02
-5.4027565084226703e+00 +9.1061154488584606e+00 +0.0000000000000000e+00 -5.4027562290559903e+00 +1.1504317009101102e-02 -1.0336475094521069e+00 -5.8834539322078980e-02
-5.5028075548749404e+00 +9.1060592044200206e+00 +0.0000000000000000e+00 -5.5028072596986997e+00 +1.1504484690527693e-02 -1.0336481803994582e+00 -5.8835495364495602e-02
-5.6028586013272097e+00 +9.1060019279733204e+00 +0.0000000000000000e+00 -5.6028582897559396e+00 +1.1504648999565570e-02 -1.0336488499966707e+00 -5.8836460743994942e-02
-5.7029096477794798e+00 +9.1059436195183707e+00 +0.0000000000000000e+00 -5.7029093192170599e+00 +1.1504810184332165e-02 -1.0336495166064945e+00 -5.8837434454128569e-02
-5.8029606942317500e+00 +9.1058842790551608e+00 +0.0000000000000000e+00 -5.8029603480714202e+00 +1.1504968601921605e-02 -1.0336501779672993e+00 -5.8838415458646980e-02
-5.9030117406840201e+00 +9.1058239065854707e+00 +0.0000000000000000e+00 -5.9030113763083696e+00 +1.1505124609513457e-02 -1.0336508318175932e+00 -5.8839402721324922e-02
-6.0030627871363000e+00 +9.1057625021075204e+00 +0.0000000000000000e+00 -6.0030624039172604e+00 +1.1505278564377618e-02 -1.0336514758960473e+00 -5.8840395205963084e-02
-6.1031138335885702e+00 +9.1057000656213205e+00 +0.0000000000000000e+00 -6.1031134308874604e+00 +1.1505430823878926e-02 -1.0336521079414895e+00 -5.8841391876388378e-02
-6.2031648800408403e+00 +9.1056365971268605e+00 +0.0000000000000000e+00 -6.2031644572083096e+00 +1.1505581745481967e-02 -1.0336527256929264e+00 -5.8842391696455436e-02
-6.3032159264931096e+00 +9.1055720966241402e+00 +0.0000000000000000e+00 -6.3032154828691800e+00 +1.1505731686755814e-02 -1.0336533268895485e+00 -5.8843393630047300e-02
-6.4032669729453797e+00 +9.1055065641149504e+00 +0.0000000000000000e+00 -6.4032665078594100e+00 +1.1505881005378768e-02 -1.0336539092707404e+00 -5.8844396641076650e-02
-6.5033180193976499e+00 +9.1054399995957205e+00 +0.0000000000000000e+00 -6.5033175321683601e+00 +1.1506030059143276e-02 -1.0336544705761086e+00 -5.8845399693487371e-02
-6.6033690658499298e+00 +9.1053724030699996e+00 +0.0000000000000000e+00 -6.6033685557853898e+00 +1.1506179205960382e-02 -1.0336550085454612e+00 -5.8846401751254294e-02
-6.7034201123021999e+00 +9.1053037745378091e+00 +0.0000000000000000e+00 -6.7034195786998501e+00 +1.1506328803864754e-02 -1.0336555209188467e+00 -5.8847401778385489e-02
-6.8034711587544701e+00 +9.1052341139955892e+00 +0.0000000000000000e+00 -6.8034706009011003e+00 +1.1506479211019469e-02 -1.0336560054365620e+00 -5.8848398738923141e-02
-6.9035222052067402e+00 +9.1051634214468908e+00 +0.0000000000000000e+00 -6.9035216223784897e+00 +1.1506630785720486e-02 -1.0336564598391429e+00 -5.8849391596943697e-02
-7.0035732516590103e+00 +9.1050916968899305e+00 +0.0000000000000000e+00 -7.0035726431213803e+00 +1.1506783886401743e-02 -1.0336568818673995e+00 -5.8850379316559995e-02
-7.1036242981112796e+00 +9.1050189403247099e+00 +0.0000000000000000e+00 -7.1036236631191203e+00 +1.1506938871639751e-02 -1.0336572692624146e+00 -5.8851360861921748e-02
-7.2036753445635497e+00 +9.1049451517530091e+00 +0.0000000000000000e+00 -7.2036746823610702e+00 +1.1507096100158350e-02 -1.0336576197655520e+00 -5.8852335197216499e-02
-7.3037263910158297e+00 +9.1048703311712806e+00 +0.0000000000000000e+00 -7.3037257008365799e+00 +1.1507255930833703e-02 -1.0336579311184872e+00 -5.8853301286671510e-02
-7.4037774374680998e+00 +9.1047944785830701e+00 +0.0000000000000000e+00 -7.4037767185350001e+00 +1.1507418722698701e-02 -1.0336582010631863e+00 -5.8854258094553406e-02
-7.5038284839203699e+00 +9.1047175939865994e+00 +0.0000000000000000e+00 -7.5038277354457001e+00 +1.1507584834941841e-02 -1.0336584273419813e+00 -5.8855204585180586e-02
-7.6038795303726401e+00 +9.1046396773836609e+00 +0.0000000000000000e+00 -7.6038787515580202e+00 +1.1507754501726411e-02 -1.0336586083596373e+00 -5.8856139921887006e-02
-7.7039305768249102e+00 +9.1045607287706805e+00 +0.0000000000000000e+00 -7.7039297668613296e+00 +1.1507927510734969e-02 -1.0336587448829557e+00 -5.8857063977718296e-02
-7.8039816232771804e+00 +9.1044807481512198e+00 +0.0000000000000000e+00 -7.8039807813449800e+00 +1.1508103550031129e-02 -1.0336588382053744e+00 -5.8857976783786389e-02
-7.9040326697294496e+00 +9.1043997355235007e+00 +0.0000000000000000e+00 -7.9040317949983097e+00 +1.1508282307556957e-02 -1.0336588896206498e+00 -5.8858878371077950e-02
-8.0040837161817304e+00 +9.1043176908892995e+00 +0.0000000000000000e+00 -8.0040828078106898e+00 +1.1508463471128003e-02 -1.0336589004228429e+00 -5.8859768770449024e-02
-8.1041347626340006e+00 +9.1042346142468507e+00 +0.0000000000000000e+00 -8.1041338197714801e+00 +1.1508646728428763e-02 -1.0336588719063471e+00 -5.8860648012621350e-02
-8.2041858090862707e+00 +9.1041505055961398e+00 +0.0000000000000000e+00 -8.2041848308700196e+00 +1.1508831767007805e-02 -1.0336588053658844e+00 -5.8861516128177603e-02
-8.3042368555385409e+00 +9.1040653649371706e+00 +0.0000000000000000e+00 -8.3042358410956805e+00 +1.1509018274273081e-02 -1.0336587020965189e+00 -5.8862373147557066e-02
-8.4042879019908092e+00 +9.1039791922699393e+00 +0.0000000000000000e+00 -8.4042868504377992e+00 +1.1509205937487181e-02 -1.0336585633936637e+00 -5.8863219101051398e-02
-8.5043389484430794e+00 +9.1038919875980202e+00 +0.0000000000000000e+00 -8.5043378588857408e+00 +1.1509394443762517e-02 -1.0336583905530856e+00 -5.8864054018799780e-02
-8.6043899948953602e+00 +9.1038037509160592e+00 +0.0000000000000000e+00 -8.6043888664288701e+00 +1.1509583480056890e-02 -1.0336581848709396e+00 -5.8864877930785951e-02
-8.7044410413476303e+00 +9.1037144822276108e+00 +0.0000000000000000e+00 -8.7044398730565202e+00 +1.1509772733168286e-02 -1.0336579476437400e+00 -5.8865690866831889e-02
-8.8044920877999004e+00 +9.1036241815309200e+00 +0.0000000000000000e+00 -8.8044908787580596e+00 +1.1509961889730490e-02 -1.0336576801683985e+00 -5.8866492856594996e-02
-8.9045431342521706e+00 +9.1035328488259601e+00 +0.0000000000000000e+00 -8.9045418835228496e+00 +1.1510150636208158e-02 -1.0336573837422200e+00 -5.8867283929562926e-02
-9.0045941807044407e+00 +9.1034404841127508e+00 +0.0000000000000000e+00 -9.0045928873402303e+00 +1.1510338658892092e-02 -1.0336570596629151e+00 -5.8868064115049364e-02
-9.1046452271567109e+00 +9.1033470873930593e+00 +0.0000000000000000e+00 -9.1046438901995597e+00 +1.1510525643894457e-02 -1.0336567092286044e+00 -5.8868833442189503e-02
-9.2046962736089899e+00 +9.1032526586651095e+00 +0.0000000000000000e+00 -9.2046948920902096e+00 +1.1510711277144139e-02 -1.0336563337378404e+00 -5.8869591939936225e-02
-9.3047473200612600e+00 +9.1031571979306793e+00 +0.0000000000000000e+00 -9.3047458930015097e+00 +1.1510895244381782e-02 -1.0336559344895990e+00 -5.8870339637054861e-02
-9.4047983665135302e+00 +9.1030607051879997e+00 +0.0000000000000000e+00 -9.4047968929228301e+00 +1.1511077231155246e-02 -1.0336555127833074e+00 -5.8871076562119651e-02
-9.5048494129658003e+00 +9.1029631804370599e+00 +0.0000000000000000e+00 -9.5048478918435304e+00 +1.1511256922822297e-02 -1.0336550699187874e+00 -5.8871802743495266e-02
-9.6049004594180705e+00 +9.1028646236796291e+00 +0.0000000000000000e+00 -9.6048988897529508e+00 +1.1511434082019115e-02 -1.0336546066758137e+00 -5.8872518072707547e-02
-9.7049515058703406e+00 +9.1027650349139595e+00 +0.0000000000000000e+00 -9.7049498866404598e+00 +1.1511608739407901e-02 -1.0336541220333975e+00 -5.8873221968448707e-02
-9.8050025523226108e+00 +9.1026644141418007e+00 +0.0000000000000000e+00 -9.8050008824953991e+00 +1.1511780983755127e-02 -1.0336536145811122e+00 -5.8873913747416948e-02
-9.9050535987748898e+00 +9.1025627613596107e+00 +0.0000000000000000e+00 -9.9050518773071392e+00 +1.1511950904021592e-02 -1.0336530829083097e+00 -5.8874592726538451e-02
-1.0005104645227201e+01 +9.1024600765709298e+00 +0.0000000000000000e+00 -1.0005102871065001e+01 +1.1512118589367681e-02 -1.0336525256040829e+00 -5.8875258222972751e-02
-1.0105155691679400e+01 +9.1023563597757793e+00 +0.0000000000000000e+00 -1.0105153863758400e+01 +1.1512284129159254e-02 -1.0336519412572820e+00 -5.8875909554120642e-02
-1.0205206738131700e+01 +9.1022516109723703e+00 +0.0000000000000000e+00 -1.0205204855376600e+01 +1.1512447612973238e-02 -1.0336513284565019e+00 -5.8876546037630678e-02
-1.0305257784584001e+01 +9.1021458301607101e+00 +0.0000000000000000e+00 -1.0305255845909100e+01 +1.1512609130603105e-02 -1.0336506857900642e+00 -5.8877166991405487e-02
-1.0405308831036200e+01 +9.1020390173425607e+00 +0.0000000000000000e+00 -1.0405306835345099e+01 +1.1512768772064547e-02 -1.0336500118460112e+00 -5.8877771733608628e-02
-1.0505359877488500e+01 +9.1019311725161600e+00 +0.0000000000000000e+00 -1.0505357823674100e+01 +1.1512926627601170e-02 -1.0336493052121041e+00 -5.8878359582671569e-02
-1.0605410923940800e+01 +9.1018222956832808e+00 +0.0000000000000000e+00 -1.0605408810885301e+01 +1.1513082787690015e-02 -1.0336485644758042e+00 -5.8878929857300054e-02
-1.0705461970393101e+01 +9.1017123868421397e+00 +0.0000000000000000e+00 -1.0705459796968199e+01 +1.1513237343047284e-02 -1.0336477882242761e+00 -5.8879481876481267e-02
-1.0805513016845300e+01 +9.1016014459927401e+00 +0.0000000000000000e+00 -1.0805510781912000e+01 +1.1513390384633929e-02 -1.0336469750443678e+00 -5.8880014959490148e-02
-1.0905564063297600e+01 +9.1014894731368603e+00 +0.0000000000000000e+00 -1.0905561765706199e+01 +1.1513542003661221e-02 -1.0336461235226031e+00 -5.8880528425896181e-02
-1.1005615109749900e+01 +9.1013764682745109e+00 +0.0000000000000000e+00 -1.1005612748340100e+01 +1.1513692291596524e-02 -1.0336452322451792e+00 -5.8881021595570335e-02
-1.1105666156202100e+01 +9.1012624314038906e+00 +0.0000000000000000e+00 -1.1105663729803000e+01 +1.1513841340168944e-02 -1.0336442997979611e+00 -5.8881493788691959e-02
-1.1205717202654400e+01 +9.1011473625250208e+00 +0.0000000000000000e+00 -1.1205714710084401e+01 +1.1513989241374858e-02 -1.0336433247664587e+00 -5.8881944325755046e-02
-1.1305768249106700e+01 +9.1010312616396707e+00 +0.0000000000000000e+00 -1.1305765689173500e+01 +1.1514136087483619e-02 -1.0336423057358259e+00 -5.8882372527575041e-02
-1.1405819295559001e+01 +9.1009141287460693e+00 +0.0000000000000000e+00 -1.1405816667059700e+01 +1.1514281971043316e-02 -1.0336412412908582e+00 -5.8882777715296132e-02
-1.1505870342011200e+01 +9.1007959638459806e+00 +0.0000000000000000e+00 -1.1505867643732399e+01 +1.1514426984879348e-02 -1.0336401300159439e+00 -5.8883159210431121e-02
-1.1605921388463500e+01 +9.1006767669376405e+00 +0.0000000000000000e+00 -1.1605918619181001e+01 +1.1514571181354646e-02 -1.0336389703481392e+00 -5.8883516533507332e-02
-1.1705972434915800e+01 +9.1005565380228095e+00 +0.0000000000000000e+00 -1.1705969593394700e+01 +1.1514714476121285e-02 -1.0336377602307736e+00 -5.8883849872160138e-02
