# multipoles
# s[mm] polynom_b[n=0][T/m^n] polynom_b[n=1][T/m^n] polynom_b[n=2][T/m^n] polynom_b[n=3][T/m^n] polynom_b[n=4][T/m^n] polynom_b[n=5][T/m^n] polynom_b[n=6][T/m^n] 
+0.0000000000000000e+00 -1.0341665326607010e+00 +2.2821511756963608e+00 +1.8755200041713881e+01 +2.3321533862209620e+02 +2.2438040923378117e+04 +3.9597035791343072e+05 -8.4604526777122885e+07 
-1.0000000000000001e-01 -1.0341668689597203e+00 +2.2818590390393734e+00 +1.8838354667188803e+01 +2.3281055562341581e+02 +2.1971374661660568e+04 +4.1828569876941713e+05 -8.5207284090154544e+07 
-2.0000000000000001e-01 -1.0341672285816819e+00 +2.2815731964699131e+00 +1.8919856108745389e+01 +2.3234793140465331e+02 +2.1543432906542042e+04 +4.4075721011646942e+05 -8.5984521870037362e+07 
-3.0000000000000004e-01 -1.0341676080462292e+00 +2.2812930861970937e+00 +1.8999660518273817e+01 +2.3187308009166335e+02 +2.1149714653676459e+04 +4.6306150623345433e+05 -8.6903170627066284e+07 
-4.0000000000000002e-01 -1.0341680038729071e+00 +2.2810181464581074e+00 +1.9077724026978348e+01 +2.3143161479647401e+02 +2.0785719361533254e+04 +4.8487520759144746e+05 -8.7930163307861909e+07 
-5.0000000000000000e-01 -1.0341684125812529e+00 +2.2807478155331626e+00 +1.9154002755303861e+01 +2.3106914731412152e+02 +2.0446946763944306e+04 +5.0587494208562787e+05 -8.9032434378029734e+07 
-5.9999999999999998e-01 -1.0341688306907280e+00 +2.2804815317496918e+00 +1.9228452803000856e+01 +2.3083128817185448e+02 +2.0128897064178647e+04 +5.2573734410618560e+05 -9.0176920736203030e+07 
-6.9999999999999996e-01 -1.0341692547207129e+00 +2.2802187334888844e+00 +1.9301030246488398e+01 +2.3076364654539324e+02 +1.9827070986881092e+04 +5.4413905454918405e+05 -9.1330561936362907e+07 
-7.9999999999999993e-01 -1.0341696811904233e+00 +2.2799588591909177e+00 +1.9371691128206006e+01 +2.3091183026672806e+02 +1.9536969980570942e+04 +5.6075672018101171e+05 -9.2460301125970244e+07 
-8.9999999999999991e-01 -1.0341701066190609e+00 +2.2797013473676397e+00 +1.9440391473243590e+01 +2.3132144559757435e+02 +1.9254095904190046e+04 +5.7526699437135039e+05 -9.3533083534186214e+07 
-9.9999999999999989e-01 -1.0341705275255881e+00 +2.2794456366052880e+00 +1.9507087259849573e+01 +2.3203809728530510e+02 +1.8973951593072161e+04 +5.8734653623991110e+05 -9.4515859153759271e+07 
-1.0999999999999999e+00 -1.0341709404288473e+00 +2.2791911655724455e+00 +1.9571734433420659e+01 +2.3310738847600771e+02 +1.8692040592520825e+04 +5.9667201058278186e+05 -9.5375581445241988e+07 
-1.2000000000000000e+00 -1.0341713418475333e+00 +2.2789373730284579e+00 +1.9634288901188050e+01 +2.3457492060381514e+02 +1.8403867262410939e+04 +6.0292008798263164e+05 -9.6079207815518603e+07 
-1.3000000000000000e+00 -1.0341717283000889e+00 +2.2786836978281055e+00 +1.9694706518055611e+01 +2.3648629340780136e+02 +1.8104937047296826e+04 +6.0576744411291811e+05 -9.6593700880253047e+07 
-1.4000000000000001e+00 -1.0341720963047782e+00 +2.2784295789315459e+00 +1.9752943094813901e+01 +2.3888710477716197e+02 +1.7790756321479006e+04 +6.0489076010121685e+05 -9.6886027702648357e+07 
-1.5000000000000002e+00 -1.0341724423796628e+00 +2.2781744554087044e+00 +1.9808954392448658e+01 +2.4182295076760627e+02 +1.7456832507554362e+04 +5.9996672186217597e+05 -9.6923160359924451e+07 
-1.6000000000000003e+00 -1.0341727627677753e+00 +2.2779181371344794e+00 +1.9862596963701733e+01 +2.4532123588310776e+02 +1.7101868466676104e+04 +5.9078772468136181e+05 -9.6690556444417611e+07 
-1.7000000000000004e+00 -1.0341730525649899e+00 +2.2776620043449372e+00 +1.9913316803687199e+01 +2.4933284045641281e+02 +1.6737830337748597e+04 +5.7763226976217725e+05 -9.6250488818673342e+07 
-1.8000000000000005e+00 -1.0341733065681959e+00 +2.2774078526376247e+00 +1.9960453647688720e+01 +2.5378853323123693e+02 +1.6380126738179277e+04 +5.6090645397560857e+05 -9.5685189042569831e+07 
-1.9000000000000006e+00 -1.0341735195743855e+00 +2.2771574776555639e+00 +2.0003347230786368e+01 +2.5861908205171278e+02 +1.6044166429543900e+04 +5.4101637796442909e+05 -9.5076889761724085e+07 
-2.0000000000000004e+00 -1.0341736863806146e+00 +2.2769126750989979e+00 +2.0041337281675119e+01 +2.6375525352073191e+02 +1.5745358449561310e+04 +5.1836814830711164e+05 -9.4507825394519553e+07 
-2.1000000000000005e+00 -1.0341738017841806e+00 +2.2766752407135695e+00 +2.0073763546725718e+01 +2.6912781327817612e+02 +1.5499111654157068e+04 +4.9336787623280264e+05 -9.4060229970066488e+07 
-2.2000000000000006e+00 -1.0341738605824522e+00 +2.2764469702872474e+00 +2.0099965769163305e+01 +2.7466752606709605e+02 +1.5320835119051484e+04 +4.6642167743856303e+05 -9.3816339077279866e+07 
-2.3000000000000007e+00 -1.0341738575730748e+00 +2.2762296596473979e+00 +2.0119283714780021e+01 +2.8030515576617518e+02 +1.5225937662697950e+04 +4.3793567220352992e+05 -9.3858387644948870e+07 
-2.4000000000000008e+00 -1.0341737875539305e+00 +2.2760251046618585e+00 +2.0131057167773097e+01 +2.8597146531028568e+02 +1.5229827931173852e+04 +4.0831598612691963e+05 -9.4268610384774446e+07 
-2.5000000000000009e+00 -1.0341736453231285e+00 +2.2758351012271771e+00 +2.0134625929811143e+01 +2.9159721701541912e+02 +1.5347914420935345e+04 +3.7796874843615654e+05 -9.5129241927976802e+07 
-2.6000000000000010e+00 -1.0341734256791308e+00 +2.2756614452680544e+00 +2.0129329836810896e+01 +2.9711317251927159e+02 +1.5595605168474192e+04 +3.4730009268634103e+05 -9.6522515398265496e+07 
-2.7000000000000011e+00 -1.0341731234207272e+00 +2.2755059327410900e+00 +2.0114508755837992e+01 +3.0245009265237832e+02 +1.5988307813095171e+04 +3.1671615771332366e+05 -9.8530662734912694e+07 
-2.8000000000000012e+00 -1.0341727333470230e+00 +2.2753703596168324e+00 +2.0089502584651875e+01 +3.0753873790874832e+02 +1.6541429617518279e+04 +2.8662308518769057e+05 -1.0123591485083827e+08 
-2.9000000000000012e+00 -1.0341722502575663e+00 +2.2752565218889416e+00 +2.0053651267013962e+01 +3.1230986814110031e+02 +1.7270377182062319e+04 +2.5742702163646283e+05 -1.0472050029866841e+08 
-3.0000000000000013e+00 -1.0341716689523137e+00 +2.2751662155667081e+00 +2.0006294790241238e+01 +3.1669424272971588e+02 +1.8190556495300581e+04 +2.2953411775080091e+05 -1.0906664554918776e+08 
-3.1000000000000014e+00 -1.0341709842316509e+00 +2.2751012366674597e+00 +1.9946773187667770e+01 +3.2062262077360282e+02 +1.9317372897006375e+04 +2.0335052749553532e+05 -1.1435657485940866e+08 
-3.2000000000000015e+00 -1.0341701908965075e+00 +2.2750633812193448e+00 +1.9874426553730462e+01 +3.2402576094564694e+02 +2.0666230797152493e+04 +1.7928240928080250e+05 -1.2067250897167850e+08 
-3.3000000000000016e+00 -1.0341692837482754e+00 +2.2750544452526187e+00 +1.9788595034107750e+01 +3.2683442172839966e+02 +2.2252533870235795e+04 +1.5773592478763231e+05 -1.2809666607624179e+08 
-3.4000000000000017e+00 -1.0341682575889068e+00 +2.2750762247956438e+00 +1.9688618838520398e+01 +3.2897936146776789e+02 +2.4091684820731643e+04 +1.3911723897248451e+05 -1.3671126074038199e+08 
-3.5000000000000018e+00 -1.0341671072209668e+00 +2.2751305158825912e+00 +1.9573838248111500e+01 +3.3039133808647529e+02 +2.6199085244390826e+04 +1.2383252243492514e+05 -1.4659850323604906e+08 
-3.6000000000000019e+00 -1.0341658299372958e+00 +2.2752186807250645e+00 +1.9443939576090607e+01 +3.3101819973696507e+02 +2.8582932964328771e+04 +1.1218968117946554e+05 -1.5780423953145841e+08 
-3.7000000000000020e+00 -1.0341644331677098e+00 +2.2753400276410418e+00 +1.9300038838754450e+01 +3.3088690585241579e+02 +3.1221302385965791e+04 +1.0403659817171798e+05 -1.7022170828392109e+08 
-3.8000000000000020e+00 -1.0341629269213344e+00 +2.2754932669210373e+00 +1.9143621887186669e+01 +3.3004708010871821e+02 +3.4084377694667666e+04 +9.9088245396423357e+04 -1.8370401229401928e+08 
-3.9000000000000021e+00 -1.0341613212072374e+00 +2.2756771087640764e+00 +1.8976174553802696e+01 +3.2854835044072786e+02 +3.7142343393266310e+04 +9.7059563073203812e+04 -1.9810425551999271e+08 
-4.0000000000000018e+00 -1.0341596260344301e+00 +2.2758902632981282e+00 +1.8799182650838965e+01 +3.2644034822649775e+02 +4.0365384364356265e+04 +9.7665464632008516e+04 -2.1327554345267490e+08 
-4.1000000000000014e+00 -1.0341578514117993e+00 +2.2761314405607038e+00 +1.8614131960573616e+01 +3.2377270895687860e+02 +4.3723686053611833e+04 +1.0062083231041821e+05 -2.2907098395761177e+08 
-4.2000000000000011e+00 -1.0341560073481355e+00 +2.2763993505003204e+00 +1.8422508239467113e+01 +3.2059507222359048e+02 +4.7187434373669537e+04 +1.0564051695828597e+05 -2.4534368674938205e+08 
-4.3000000000000007e+00 -1.0341541038520807e+00 +2.2766927029717912e+00 +1.8225797211711040e+01 +3.1695708194880888e+02 +5.0726815818470423e+04 +1.1243933624149705e+05 -2.6194676389239410e+08 
-4.4000000000000004e+00 -1.0341521509320946e+00 +2.2770102077217271e+00 +1.8025484563852345e+01 +3.1290838685707422e+02 +5.4312017562895657e+04 +1.2073207157100097e+05 -2.7873333024721730e+08 
-4.5000000000000000e+00 -1.0341501585965258e+00 +2.2773505743864080e+00 +1.7823055954628813e+01 +3.0849864059605954e+02 +5.7913227254304176e+04 +1.3023346704421713e+05 -2.9555650239655507e+08 
-4.5999999999999996e+00 -1.0341481368534606e+00 +2.2777125124846389e+00 +1.7619996995401564e+01 +3.0377750203772302e+02 +6.1500633382578257e+04 +1.4065822723165917e+05 -3.1226940038229156e+08 
-4.6999999999999993e+00 -1.0341460957108510e+00 +2.2780947314119229e+00 +1.7417793266273058e+01 +2.9879463547915276e+02 +6.5044424961615907e+04 +1.5172101573642055e+05 -3.2872514613455123e+08 
-4.7999999999999989e+00 -1.0341440451763748e+00 +2.2784959404285372e+00 +1.7217930298053943e+01 +2.9359971108938242e+02 +6.8514791861438483e+04 +1.6313645212361470e+05 -3.4477686499942923e+08 
-4.8999999999999986e+00 -1.0341419952574744e+00 +2.2789148486584989e+00 +1.7021893577555407e+01 +2.8824240496887978e+02 +7.1881924698234201e+04 +1.7461911129978023e+05 -3.6027768517266750e+08 
-4.9999999999999982e+00 -1.0341399559613638e+00 +2.2793501650816870e+00 +1.6831168548128133e+01 +2.8277239946786432e+02 +7.5116014813568007e+04 +1.8588352120631718e+05 -3.7508073754841405e+08 
-5.0999999999999979e+00 -1.0341379372949420e+00 +2.2798005985233303e+00 +1.6647240598241630e+01 +2.7723938356018800e+02 +7.8187254484636549e+04 +1.9664416028759084e+05 -3.8903915668136156e+08 
-5.1999999999999975e+00 -1.0341359492648345e+00 +2.2802648576524485e+00 +1.6471595067699415e+01 +2.7169305292974389e+02 +8.1065836788372500e+04 +2.0661545665769279e+05 -4.0200608006797588e+08 
-5.2999999999999972e+00 -1.0341340018773444e+00 +2.2807416509685163e+00 +1.6305717240061622e+01 +2.6618311045349043e+02 +8.3721955746057560e+04 +2.1551178484693597e+05 -4.1383464881794423e+08 
-5.3999999999999968e+00 -1.0341321051384660e+00 +2.2812296868021358e+00 +1.6151092344531556e+01 +2.6075926622555551e+02 +8.6125806272985530e+04 +2.2304746534172262e+05 -4.2437800735179472e+08 
-5.4999999999999964e+00 -1.0341302690538232e+00 +2.2817276732946756e+00 +1.6009205547423338e+01 +2.5547123821954224e+02 +8.8247584331342659e+04 +2.2893675909007338e+05 -4.3348930419114250e+08 
-5.5999999999999961e+00 -1.0341285028320841e+00 +2.2822344271365202e+00 +1.5881295947133495e+01 +2.5035987691903617e+02 +9.0062830150806869e+04 +2.3295016640674428e+05 -4.4104893469196373e+08 
-5.6999999999999957e+00 -1.0341268123126339e+00 +2.2827496512084737e+00 +1.5767581327564708e+01 +2.4541676563718332e+02 +9.1569707004842363e+04 +2.3516713751655206e+05 -4.4705343311082506e+08 
-5.7999999999999954e+00 -1.0341252024428345e+00 +2.2832733906468401e+00 +1.5668012323981708e+01 +2.4061737245555702e+02 +9.2772417785394326e+04 +2.3576746130239277e+05 -4.5153058108963603e+08 
-5.8999999999999950e+00 -1.0341236781702761e+00 +2.2838056904995523e+00 +1.5582539607803639e+01 +2.3593716638730606e+02 +9.3675164804788263e+04 +2.3493092642412003e+05 -4.5450815798821032e+08 
-5.9999999999999947e+00 -1.0341222444427487e+00 +2.2843465956606019e+00 +1.5511113891805536e+01 +2.3135161993488703e+02 +9.4282149545239998e+04 +2.3283730520819177e+05 -4.5601393924634284e+08 
-6.0999999999999943e+00 -1.0341209062082992e+00 +2.2848961508689722e+00 +1.5453685938618813e+01 +2.2683620906181056e+02 +9.4597572493864354e+04 +2.2966635409723318e+05 -4.5607569560361868e+08 
-6.1999999999999940e+00 -1.0341196684152032e+00 +2.2854544007017048e+00 +1.5410206558637102e+01 +2.2236641329398827e+02 +9.4625633175096082e+04 +2.2559781347114185e+05 -4.5472119324517113e+08 
-6.2999999999999936e+00 -1.0341185360119698e+00 +2.2860213895736798e+00 +1.5380626610803953e+01 +2.1791771566250290e+02 +9.4370530140836214e+04 +2.2081140828244333e+05 -4.5197819378182119e+08 
-6.3999999999999932e+00 -1.0341175139473771e+00 +2.2865971617230723e+00 +1.5364897009346732e+01 +2.1346560302850409e+02 +9.3836460829389704e+04 +2.1548684656856279e+05 -4.4787445355434930e+08 
-6.4999999999999929e+00 -1.0341166071705017e+00 +2.2871817612202991e+00 +1.5362968728212735e+01 +2.0898556575029556e+02 +9.3027621481752722e+04 +2.0980382171481301e+05 -4.4243772325036263e+08 
-6.5999999999999925e+00 -1.0341158206306291e+00 +2.2877752319553277e+00 +1.5374792790715329e+01 +2.0445309797667488e+02 +9.1948207335636835e+04 +2.0394201108879509e+05 -4.3569574883136296e+08 
-6.6999999999999922e+00 -1.0341151592773929e+00 +2.2883776176344899e+00 +1.5400320288848786e+01 +1.9984369763728122e+02 +9.0602412250407258e+04 +1.9808107650789991e+05 -4.2767626974035001e+08 
-6.7999999999999918e+00 -1.0341146280607110e+00 +2.2889889617761039e+00 +1.5439502376193190e+01 +1.9513286650866593e+02 +8.8994428839648113e+04 +1.9240066415970004e+05 -4.1840701953681630e+08 
-6.8999999999999915e+00 -1.0341142319307604e+00 +2.2896093077085999e+00 +1.5492290265179035e+01 +1.9029611018006352e+02 +8.7128448527045810e+04 +1.8708040515942013e+05 -4.0791572618827128e+08 
-6.9999999999999911e+00 -1.0341139758380840e+00 +2.2902386985605103e+00 +1.5558635243284405e+01 +1.8530893826232386e+02 +8.5008661219227200e+04 +1.8229991469993646e+05 -3.9623011046964234e+08 
-7.0999999999999908e+00 -1.0341138647334975e+00 +2.2908771772649796e+00 +1.5638488660585388e+01 +1.8014686417440026e+02 +8.2639255555784315e+04 +1.7823879365869027e+05 -3.8337788720487320e+08 
-7.1999999999999904e+00 -1.0341139035682085e+00 +2.2915247865422996e+00 +1.5731801948064879e+01 +1.7478540557442676e+02 +8.0024418540680796e+04 +1.7507662641122320e+05 -3.6938676346892774e+08 
-7.2999999999999901e+00 -1.0341140972936882e+00 +2.2921815689113574e+00 +1.5838526600468263e+01 +1.6920008394218155e+02 +7.7168335878896978e+04 +1.7299298364180073e+05 -3.5428444022869915e+08 
-7.3999999999999897e+00 -1.0341144508618252e+00 +2.2928475666703068e+00 +1.5958614198559051e+01 +1.6336642505406436e+02 +7.4075191541786553e+04 +1.7216741993539807e+05 -3.3809861026021230e+08 
-7.4999999999999893e+00 -1.0341149692247946e+00 +2.2935228218689487e+00 +1.6092016387304110e+01 +1.5725995984280235e+02 +7.0749168251630472e+04 +1.7277947320770746e+05 -3.2085696027801824e+08 
-7.5999999999999890e+00 -1.0341156553423352e+00 +2.2942069670281149e+00 +1.6238488087705164e+01 +1.5086802583728175e+02 +6.7198081842434869e+04 +1.7494899615816100e+05 -3.0260343791622901e+08 
-7.6999999999999886e+00 -1.0341165040983591e+00 +2.2948981982418939e+00 +1.6397017799466248e+01 +1.4421963484001498e+02 +6.3443557758845185e+04 +1.7857878261530920e+05 -2.8344326591559601e+08 
-7.7999999999999883e+00 -1.0341175083272247e+00 +2.2955943971450661e+00 +1.6566405952119165e+01 +1.3735303835117699e+02 +5.9510532046996632e+04 +1.8352181845571540e+05 -2.6349620486571947e+08 
-7.8999999999999879e+00 -1.0341186608626285e+00 +2.2962934456122217e+00 +1.6745452936943366e+01 +1.3030647656551994e+02 +5.5423941097537347e+04 +1.8963116868889093e+05 -2.4288201620194140e+08 
-7.9999999999999876e+00 -1.0341199545374664e+00 +2.2969932257701413e+00 +1.6932959090698613e+01 +1.2311817763861966e+02 +5.1208721965673853e+04 +1.9675998383020295e+05 -2.2172046387282589e+08 
-8.0999999999999872e+00 -1.0341213821839148e+00 +2.2976916200046671e+00 +1.7127724707272030e+01 +1.1582635732593295e+02 +4.6889812136023182e+04 +2.0476150253367639e+05 -2.0013131319710916e+08 
-8.1999999999999869e+00 -1.0341229366333911e+00 +2.2983865109751114e+00 +1.7328550035146833e+01 +1.0846921845275973e+02 +4.2492149552887298e+04 +2.1348905505786792e+05 -1.7823433096884122e+08 
-8.2999999999999865e+00 -1.0341246107164870e+00 +2.2990757816238450e+00 +1.7534235268993342e+01 +1.0108495045710966e+02 +3.8040672779393528e+04 +2.2279606652789065e+05 -1.5614928622726068e+08 
-8.3999999999999861e+00 -1.0341263972629535e+00 +2.2997573151830735e+00 +1.7743580550021292e+01 +9.3711729063188301e+01 +3.3560320972359652e+04 +2.3253605926325268e+05 -1.3399595009536736e+08 
-8.4999999999999858e+00 -1.0341282891016925e+00 +2.3004289951932515e+00 +1.7955385966263073e+01 +8.6387715601436639e+01 +2.9076033865703444e+04 +2.4256265722793402e+05 -1.1189409568365760e+08 
-8.5999999999999854e+00 -1.0341302790607421e+00 +2.3010887055057676e+00 +1.8168451551793041e+01 +7.9151056783566531e+01 +2.4612751776615696e+04 +2.5272958783101971e+05 -8.9963498106221452e+07 
-8.6999999999999851e+00 -1.0341323599672259e+00 +2.3017343302959499e+00 +1.8381577281852824e+01 +7.2039884176008655e+01 +2.0195415685143926e+04 +2.6289068548543326e+05 -6.8323934836811140e+07 
-8.7999999999999847e+00 -1.0341345246473386e+00 +2.3023637540754112e+00 +1.8593563072950435e+01 +6.5092313704982445e+01 +1.5848967217462223e+04 +2.7289989495832822e+05 -4.7095185597998746e+07 
-8.8999999999999844e+00 -1.0341367659263137e+00 +2.3029748617015091e+00 +1.8803208778896909e+01 +5.8346445224874721e+01 +1.1598348719615396e+04 +2.8261127439537906e+05 -2.6397032721689567e+07 
-8.9999999999999840e+00 -1.0341390766284231e+00 +2.3035655383860458e+00 +1.9009314194235856e+01 +5.1840362131568774e+01 +7.4685031629326995e+03 +2.9187899802696862e+05 -6.3492606278616292e+06 
-9.0999999999999837e+00 -1.0341414495768930e+00 +2.3041336697089658e+00 +1.9210679042809044e+01 +4.5612130811660492e+01 +3.4843743711146412e+03 +3.0055735988776141e+05 +1.2928343054605858e+07 
-9.1999999999999833e+00 -1.0341438775939809e+00 +2.3046771416258225e+00 +1.9406102990065065e+01 +3.9699800288197615e+01 -3.2909323950942269e+02 +3.0850077633770765e+05 +3.1315988783963177e+07 
-9.2999999999999829e+00 -1.0341463535008475e+00 +2.3051938404806220e+00 +1.9594385628581506e+01 +3.4141401688527843e+01 -3.9469543958791255e+03 +3.1556378968416108e+05 +4.8693883867849156e+07 
-9.3999999999999826e+00 -1.0341488701175765e+00 +2.3056816530159310e+00 +1.9774326481126383e+01 +2.8974947822439205e+01 -7.3442630296218804e+03 +3.2160107108825963e+05 +6.4942232751127653e+07 
-9.4999999999999822e+00 -1.0341514202632980e+00 +2.3061384665376314e+00 +1.9944725046218263e+01 +2.4238428959858197e+01 -1.0496073320752756e+04 +3.2646743227716617e+05 +7.9941241392636165e+07 
-9.5999999999999819e+00 -1.0341539972067777e+00 +2.3065628585038387e+00 +2.0104667178904656e+01 +1.9958442467146668e+01 -1.3383842571313546e+04 +3.3005413336247602e+05 +9.3602204338599667e+07 
-9.6999999999999815e+00 -1.0341565958709180e+00 +2.3069552696715752e+00 +2.0254296000281009e+01 +1.6141390955551792e+01 -1.6013266391970274e+04 +3.3227207763609645e+05 +1.0595630463568154e+08 
-9.7999999999999812e+00 -1.0341592115833362e+00 +2.3073163856882153e+00 +2.0394007105112948e+01 +1.2795221903473303e+01 -1.8396017867648778e+04 +3.3300276761053357e+05 +1.1706490123102063e+08 
-9.8999999999999808e+00 -1.0341618396716823e+00 +2.3076468919627788e+00 +2.0524196071774849e+01 +9.9278973685263043e+00 -2.0543770051900494e+04 +3.3212760257685126e+05 +1.2698935402908124e+08 
-9.9999999999999805e+00 -1.0341644754633483e+00 +2.3079474738811210e+00 +2.0645258399409666e+01 +7.5473852377005235e+00 -2.2468194230448633e+04 +3.2952793066277605e+05 +1.3579101436701474e+08 
-1.0099999999999980e+01 -1.0341671142855411e+00 +2.3082188167972948e+00 +2.0757589514583227e+01 +5.6616596527327605e+00 -2.4180960035561373e+04 +3.2508504579203995e+05 +1.4353122554655349e+08 
