# field on trajectory
# s[mm] rx[mm] ry[mm] rz[mm] bx[T] by[T] bz[T]
0.0000000000000000e+00 +9.1013000000000002e+00 +0.0000000000000000e+00 +0.0000000000000000e+00 +3.7383551676686423e-02 -7.0149739947471978e-01 +3.9021439870583689e-03
1.0000000000000001e-01 +9.1012994847486617e+00 +0.0000000000000000e+00 +9.9999999998230102e-02 +3.7382964015615479e-02 -7.0149716499961123e-01 +3.9021982348284544e-03
2.0000000000000001e-01 +9.1012979389948718e+00 +0.0000000000000000e+00 +1.9999999998584087e-01 +3.7382388129347889e-02 -7.0149694026236831e-01 +3.9022541793426327e-03
3.0000000000000004e-01 +9.1012953627389610e+00 +0.0000000000000000e+00 +2.9999999995221294e-01 +3.7381824272037498e-02 -7.0149672506124439e-01 +3.9023116924483845e-03
4.0000000000000002e-01 +9.1012917559812472e+00 +0.0000000000000000e+00 +3.9999999988672696e-01 +3.7381272697843068e-02 -7.0149651919452860e-01 +3.9023706459878115e-03
5.0000000000000000e-01 +9.1012871187220323e+00 +0.0000000000000000e+00 +4.9999999977876364e-01 +3.7380733660927125e-02 -7.0149632246054283e-01 +3.9024309117943815e-03
5.9999999999999998e-01 +9.1012814509616060e+00 +0.0000000000000000e+00 +5.9999999961770367e-01 +3.7380207415454614e-02 -7.0149613465763760e-01 +3.9024923616896600e-03
6.9999999999999996e-01 +9.1012747527002436e+00 +0.0000000000000000e+00 +6.9999999939292767e-01 +3.7379694215591550e-02 -7.0149595558418620e-01 +3.9025548674800504e-03
7.9999999999999993e-01 +9.1012670239382096e+00 +0.0000000000000000e+00 +7.9999999909381636e-01 +3.7379194315503898e-02 -7.0149578503858223e-01 +3.9026183009535438e-03
8.9999999999999991e-01 +9.1012582646757565e+00 +0.0000000000000000e+00 +8.9999999870975045e-01 +3.7378707969356072e-02 -7.0149562281923339e-01 +3.9026825338764394e-03
9.9999999999999989e-01 +9.1012484749131222e+00 +0.0000000000000000e+00 +9.9999999823011065e-01 +3.7378235431309838e-02 -7.0149546872455903e-01 +3.9027474379900997e-03
1.0999999999999999e+00 +9.1012376546505358e+00 +0.0000000000000000e+00 +1.0999999976442778e+00 +3.7377776955522884e-02 -7.0149532255298352e-01 +3.9028128850076772e-03
1.2000000000000000e+00 +9.1012258038882106e+00 +0.0000000000000000e+00 +1.1999999969416324e+00 +3.7377332796147612e-02 -7.0149518410293366e-01 +3.9028787466108654e-03
1.3000000000000000e+00 +9.1012129226263525e+00 +0.0000000000000000e+00 +1.2999999961115554e+00 +3.7376903207329802e-02 -7.0149505317283367e-01 +3.9029448944466220e-03
1.4000000000000001e+00 +9.1011990108651570e+00 +0.0000000000000000e+00 +1.3999999951434274e+00 +3.7376488443207366e-02 -7.0149492956110082e-01 +3.9030112001239231e-03
1.5000000000000002e+00 +9.1011840686048053e+00 +0.0000000000000000e+00 +1.4999999940266293e+00 +3.7376088757909015e-02 -7.0149481306614081e-01 +3.9030775352104931e-03
1.6000000000000003e+00 +9.1011680958454697e+00 +0.0000000000000000e+00 +1.5999999927505417e+00 +3.7375704405553024e-02 -7.0149470348634413e-01 +3.9031437712295433e-03
1.7000000000000004e+00 +9.1011510925873136e+00 +0.0000000000000000e+00 +1.6999999913045454e+00 +3.7375335640245852e-02 -7.0149460062008051e-01 +3.9032097796565125e-03
1.8000000000000005e+00 +9.1011330588304897e+00 +0.0000000000000000e+00 +1.7999999896780210e+00 +3.7374982716080966e-02 -7.0149450426569582e-01 +3.9032754319158077e-03
1.9000000000000006e+00 +9.1011139945751420e+00 +0.0000000000000000e+00 +1.8999999878603493e+00 +3.7374645887137452e-02 -7.0149441422150638e-01 +3.9033405993775384e-03
2.0000000000000004e+00 +9.1010938998214055e+00 +0.0000000000000000e+00 +1.9999999858409112e+00 +3.7374325407478794e-02 -7.0149433028579600e-01 +3.9034051533542559e-03
2.1000000000000005e+00 +9.1010727745694044e+00 +0.0000000000000000e+00 +2.0999999836090875e+00 +3.7374021467472020e-02 -7.0149425234904905e-01 +3.9034689811872029e-03
2.2000000000000006e+00 +9.1010506188192561e+00 +0.0000000000000000e+00 +2.1999999811542588e+00 +3.7373734002756169e-02 -7.0149418067068336e-01 +3.9035320345393483e-03
2.3000000000000007e+00 +9.1010274325710672e+00 +0.0000000000000000e+00 +2.2999999784658058e+00 +3.7373462885295673e-02 -7.0149411560236385e-01 +3.9035942811764678e-03
2.4000000000000008e+00 +9.1010032158249370e+00 +0.0000000000000000e+00 +2.3999999755331092e+00 +3.7373207987063471e-02 -7.0149405749577110e-01 +3.9036556888904918e-03
2.5000000000000009e+00 +9.1009779685809526e+00 +0.0000000000000000e+00 +2.4999999723455502e+00 +3.7372969180042778e-02 -7.0149400670260331e-01 +3.9037162255059227e-03
2.6000000000000010e+00 +9.1009516908391923e+00 +0.0000000000000000e+00 +2.5999999688925088e+00 +3.7372746336228564e-02 -7.0149396357457916e-01 +3.9037758588862425e-03
2.7000000000000011e+00 +9.1009243825997199e+00 +0.0000000000000000e+00 +2.6999999651633666e+00 +3.7372539327629392e-02 -7.0149392846343961e-01 +3.9038345569403334e-03
2.8000000000000012e+00 +9.1008960438625923e+00 +0.0000000000000000e+00 +2.7999999611475039e+00 +3.7372348026268876e-02 -7.0149390172095005e-01 +3.9038922876288916e-03
2.9000000000000012e+00 +9.1008666746278504e+00 +0.0000000000000000e+00 +2.8999999568343018e+00 +3.7372172304187420e-02 -7.0149388369890242e-01 +3.9039490189708374e-03
3.0000000000000013e+00 +9.1008362748955243e+00 +0.0000000000000000e+00 +2.9999999522131406e+00 +3.7372012033443897e-02 -7.0149387474911806e-01 +3.9040047190497446e-03
3.1000000000000014e+00 +9.1008048446656300e+00 +0.0000000000000000e+00 +3.0999999472734014e+00 +3.7371867086117207e-02 -7.0149387522344953e-01 +3.9040593560202368e-03
3.2000000000000015e+00 +9.1007723839381693e+00 +0.0000000000000000e+00 +3.1999999420044647e+00 +3.7371737334308014e-02 -7.0149388547378300e-01 +3.9041128981144209e-03
3.3000000000000016e+00 +9.1007388927131316e+00 +0.0000000000000000e+00 +3.2999999363957113e+00 +3.7371622650140261e-02 -7.0149390585204019e-01 +3.9041653136482886e-03
3.4000000000000017e+00 +9.1007043709904902e+00 +0.0000000000000000e+00 +3.3999999304365218e+00 +3.7371522905762983e-02 -7.0149393671018090e-01 +3.9042165710281452e-03
3.5000000000000018e+00 +9.1006688187702043e+00 +0.0000000000000000e+00 +3.4999999241162771e+00 +3.7371437973351816e-02 -7.0149397840020566e-01 +3.9042666387570165e-03
3.6000000000000019e+00 +9.1006322360522152e+00 +0.0000000000000000e+00 +3.5999999174243582e+00 +3.7371367725110689e-02 -7.0149403127415699e-01 +3.9043154854410699e-03
3.7000000000000020e+00 +9.1005946228364500e+00 +0.0000000000000000e+00 +3.6999999103501455e+00 +3.7371312033273485e-02 -7.0149409568412224e-01 +3.9043630797960319e-03
3.8000000000000020e+00 +9.1005559791228166e+00 +0.0000000000000000e+00 +3.7999999028830196e+00 +3.7371270770105651e-02 -7.0149417198223629e-01 +3.9044093906536021e-03
3.9000000000000021e+00 +9.1005163049112081e+00 +0.0000000000000000e+00 +3.8999998950123613e+00 +3.7371243807905921e-02 -7.0149426052068264e-01 +3.9044543869678717e-03
4.0000000000000018e+00 +9.1004756002014986e+00 +0.0000000000000000e+00 +3.9999998867275517e+00 +3.7371231019007835e-02 -7.0149436165169654e-01 +3.9044980378217450e-03
4.1000000000000014e+00 +9.1004338649935441e+00 +0.0000000000000000e+00 +4.0999998780179707e+00 +3.7371232252783722e-02 -7.0149447558607303e-01 +3.9045403758748713e-03
4.2000000000000011e+00 +9.1003910992871813e+00 +0.0000000000000000e+00 +4.1999998688729994e+00 +3.7371247266634863e-02 -7.0149460196866242e-01 +3.9045816876352312e-03
4.3000000000000007e+00 +9.1003473030822288e+00 +0.0000000000000000e+00 +4.2999998592820186e+00 +3.7371275794954195e-02 -7.0149474030281134e-01 +3.9046223230301842e-03
4.4000000000000004e+00 +9.1003024763784879e+00 +0.0000000000000000e+00 +4.3999998492344083e+00 +3.7371317572118340e-02 -7.0149489009185340e-01 +3.9046626319455247e-03
4.5000000000000000e+00 +9.1002566191757435e+00 +0.0000000000000000e+00 +4.4999998387195497e+00 +3.7371372332486094e-02 -7.0149505083910291e-01 +3.9047029642209959e-03
4.5999999999999996e+00 +9.1002097314737647e+00 +0.0000000000000000e+00 +4.5999998277268235e+00 +3.7371439810396867e-02 -7.0149522204785719e-01 +3.9047436696458184e-03
4.6999999999999993e+00 +9.1001618132723063e+00 +0.0000000000000000e+00 +4.6999998162456098e+00 +3.7371519740169071e-02 -7.0149540322139115e-01 +3.9047850979542077e-03
4.7999999999999989e+00 +9.1001128645711056e+00 +0.0000000000000000e+00 +4.7999998042652896e+00 +3.7371611856098608e-02 -7.0149559386295723e-01 +3.9048275988209005e-03
4.8999999999999986e+00 +9.1000628853698888e+00 +0.0000000000000000e+00 +4.8999997917752438e+00 +3.7371715892457309e-02 -7.0149579347578339e-01 +3.9048715218566706e-03
4.9999999999999982e+00 +9.1000118756683666e+00 +0.0000000000000000e+00 +4.9999997787648525e+00 +3.7371831583491277e-02 -7.0149600156307090e-01 +3.9049172166038589e-03
5.0999999999999979e+00 +9.0999598354662403e+00 +0.0000000000000000e+00 +5.0999997652234956e+00 +3.7371958663419469e-02 -7.0149621762799141e-01 +3.9049650325318794e-03
5.1999999999999975e+00 +9.0999067647631975e+00 +0.0000000000000000e+00 +5.1999997511405542e+00 +3.7372096866432059e-02 -7.0149644117368659e-01 +3.9050153190327555e-03
5.2999999999999972e+00 +9.0998526635589148e+00 +0.0000000000000000e+00 +5.2999997365054092e+00 +3.7372245926688870e-02 -7.0149667170326613e-01 +3.9050684254166280e-03
5.3999999999999968e+00 +9.0997975318530600e+00 +0.0000000000000000e+00 +5.3999997213074407e+00 +3.7372405578317808e-02 -7.0149690871980319e-01 +3.9051247009072800e-03
5.4999999999999964e+00 +9.0997413696452920e+00 +0.0000000000000000e+00 +5.4999997055360295e+00 +3.7372575555413325e-02 -7.0149715172633631e-01 +3.9051844946376519e-03
5.5999999999999961e+00 +9.0996841769352574e+00 +0.0000000000000000e+00 +5.5999996891805557e+00 +3.7372755592034887e-02 -7.0149740022586504e-01 +3.9052481556453669e-03
5.6999999999999957e+00 +9.0996259537225992e+00 +0.0000000000000000e+00 +5.6999996722303994e+00 +3.7372945422205296e-02 -7.0149765372134787e-01 +3.9053160328682422e-03
5.7999999999999954e+00 +9.0995667000069513e+00 +0.0000000000000000e+00 +5.7999996546749415e+00 +3.7373144779909280e-02 -7.0149791171570197e-01 +3.9053884751398056e-03
5.8999999999999950e+00 +9.0995064157879408e+00 +0.0000000000000000e+00 +5.8999996365035621e+00 +3.7373353399091827e-02 -7.0149817371179957e-01 +3.9054658311848205e-03
5.9999999999999947e+00 +9.0994451010651876e+00 +0.0000000000000000e+00 +5.9999996177056421e+00 +3.7373571013656640e-02 -7.0149843921246668e-01 +3.9055484496147938e-03
6.0999999999999943e+00 +9.0993827558383096e+00 +0.0000000000000000e+00 +6.0999995982705615e+00 +3.7373797323510219e-02 -7.0149870785955570e-01 +3.9056365311224044e-03
6.1999999999999940e+00 +9.0993193801069197e+00 +0.0000000000000000e+00 +6.1999995781877004e+00 +3.7374031892713266e-02 -7.0149897985116327e-01 +3.9057296851188823e-03
6.2999999999999936e+00 +9.0992549738706234e+00 +0.0000000000000000e+00 +6.2999995574464398e+00 +3.7374274251375399e-02 -7.0149925552438974e-01 +3.9058273732299250e-03
6.3999999999999932e+00 +9.0991895371290230e+00 +0.0000000000000000e+00 +6.3999995360361597e+00 +3.7374523929615135e-02 -7.0149953521625685e-01 +3.9059290571147004e-03
6.4999999999999929e+00 +9.0991230698817152e+00 +0.0000000000000000e+00 +6.4999995139462401e+00 +3.7374780457560638e-02 -7.0149981926370342e-01 +3.9060341984677050e-03
6.5999999999999925e+00 +9.0990555721282895e+00 +0.0000000000000000e+00 +6.5999994911660611e+00 +3.7375043365350309e-02 -7.0150010800358464e-01 +3.9061422590206231e-03
6.6999999999999922e+00 +9.0989870438683287e+00 +0.0000000000000000e+00 +6.6999994676850037e+00 +3.7375312183133294e-02 -7.0150040177266804e-01 +3.9062527005441824e-03
6.7999999999999918e+00 +9.0989174851014081e+00 +0.0000000000000000e+00 +6.7999994434924478e+00 +3.7375586441070231e-02 -7.0150070090762984e-01 +3.9063649848500113e-03
6.8999999999999915e+00 +9.0988468958270960e+00 +0.0000000000000000e+00 +6.8999994185777735e+00 +3.7375865669333777e-02 -7.0150100574505370e-01 +3.9064785737925063e-03
6.9999999999999911e+00 +9.0987752760449521e+00 +0.0000000000000000e+00 +6.9999993929303619e+00 +3.7376149398109307e-02 -7.0150131662142556e-01 +3.9065929292706834e-03
7.0999999999999908e+00 +9.0987026257545267e+00 +0.0000000000000000e+00 +7.0999993665395928e+00 +3.7376437157595394e-02 -7.0150163387313347e-01 +3.9067075132300415e-03
7.1999999999999904e+00 +9.0986289449553617e+00 +0.0000000000000000e+00 +7.1999993393948456e+00 +3.7376728478004571e-02 -7.0150195783646230e-01 +3.9068217876644194e-03
7.2999999999999901e+00 +9.0985542336469898e+00 +0.0000000000000000e+00 +7.2999993114855011e+00 +3.7377022889563849e-02 -7.0150228884759214e-01 +3.9069352146178654e-03
7.3999999999999897e+00 +9.0984784918289314e+00 +0.0000000000000000e+00 +7.3999992828009393e+00 +3.7377319922515362e-02 -7.0150262724259449e-01 +3.9070472561864899e-03
7.4999999999999893e+00 +9.0984017195006981e+00 +0.0000000000000000e+00 +7.4999992533305404e+00 +3.7377619107116962e-02 -7.0150297335743006e-01 +3.9071573745203285e-03
7.5999999999999890e+00 +9.0983239166617906e+00 +0.0000000000000000e+00 +7.5999992230636844e+00 +3.7377919973642912e-02 -7.0150332752794542e-01 +3.9072650318252135e-03
7.6999999999999886e+00 +9.0982450833116957e+00 +0.0000000000000000e+00 +7.6999991919897512e+00 +3.7378222052384377e-02 -7.0150369008987057e-01 +3.9073696903646257e-03
7.7999999999999883e+00 +9.0981652194498892e+00 +0.0000000000000000e+00 +7.7999991600981220e+00 +3.7378524873650135e-02 -7.0150406137881449e-01 +3.9074708124615665e-03
7.8999999999999879e+00 +9.0980843250758330e+00 +0.0000000000000000e+00 +7.8999991273781758e+00 +3.7378827967767161e-02 -7.0150444173026449e-01 +3.9075678605004181e-03
7.9999999999999876e+00 +9.0980024001889781e+00 +0.0000000000000000e+00 +7.9999990938192926e+00 +3.7379130865081218e-02 -7.0150483147958120e-01 +3.9076602969288056e-03
8.0999999999999872e+00 +9.0979194447887615e+00 +0.0000000000000000e+00 +8.0999990594108517e+00 +3.7379433206080503e-02 -7.0150523084110739e-01 +3.9077477380914478e-03
8.1999999999999869e+00 +9.0978354588746040e+00 +0.0000000000000000e+00 +8.1999990241422349e+00 +3.7379735071769532e-02 -7.0150563954556833e-01 +3.9078304157141421e-03
8.2999999999999865e+00 +9.0977504424459141e+00 +0.0000000000000000e+00 +8.2999989880028195e+00 +3.7380036653281601e-02 -7.0150605720289516e-01 +3.9079087153466446e-03
8.3999999999999861e+00 +9.0976643955020879e+00 +0.0000000000000000e+00 +8.3999989509819883e+00 +3.7380338141747883e-02 -7.0150648342314892e-01 +3.9079830225138903e-03
8.4999999999999858e+00 +9.0975773180425090e+00 +0.0000000000000000e+00 +8.4999989130691187e+00 +3.7380639728297346e-02 -7.0150691781652308e-01 +3.9080537227150301e-03
8.5999999999999854e+00 +9.0974892100665485e+00 +0.0000000000000000e+00 +8.5999988742535916e+00 +3.7380941604056729e-02 -7.0150735999334968e-01 +3.9081212014224747e-03
8.6999999999999851e+00 +9.0974000715735652e+00 +0.0000000000000000e+00 +8.6999988345247861e+00 +3.7381243960150329e-02 -7.0150780956410430e-01 +3.9081858440809377e-03
8.7999999999999847e+00 +9.0973099025629089e+00 +0.0000000000000000e+00 +8.7999987938720832e+00 +3.7381546987700062e-02 -7.0150826613941109e-01 +3.9082480361064733e-03
8.8999999999999844e+00 +9.0972187030339171e+00 +0.0000000000000000e+00 +8.8999987522848620e+00 +3.7381850877825251e-02 -7.0150872933004693e-01 +3.9083081628855229e-03
8.9999999999999840e+00 +9.0971264729859218e+00 +0.0000000000000000e+00 +8.9999987097525018e+00 +3.7382155821642601e-02 -7.0150919874694728e-01 +3.9083666097739509e-03
9.0999999999999837e+00 +9.0970332124182409e+00 +0.0000000000000000e+00 +9.0999986662643817e+00 +3.7382462010266126e-02 -7.0150967400121045e-01 +3.9084237620960862e-03
9.1999999999999833e+00 +9.0969389213301870e+00 +0.0000000000000000e+00 +9.1999986218098826e+00 +3.7382769634807002e-02 -7.0151015470410338e-01 +3.9084800051437637e-03
9.2999999999999829e+00 +9.0968435997210637e+00 +0.0000000000000000e+00 +9.2999985763783837e+00 +3.7383078886373489e-02 -7.0151064046706546e-01 +3.9085357241753571e-03
9.3999999999999826e+00 +9.0967472475901676e+00 +0.0000000000000000e+00 +9.3999985299592641e+00 +3.7383389956070850e-02 -7.0151113090171457e-01 +3.9085913044148270e-03
9.4999999999999822e+00 +9.0966498649367900e+00 +0.0000000000000000e+00 +9.4999984825419048e+00 +3.7383703035001305e-02 -7.0151162561985125e-01 +3.9086471310507487e-03
9.5999999999999819e+00 +9.0965514517602131e+00 +0.0000000000000000e+00 +9.5999984341156832e+00 +3.7384018314263849e-02 -7.0151212423346454e-01 +3.9087035892353553e-03
9.6999999999999815e+00 +9.0964520080597158e+00 +0.0000000000000000e+00 +9.6999983846699802e+00 +3.7384335984954185e-02 -7.0151262635473566e-01 +3.9087610640835746e-03
9.7999999999999812e+00 +9.0963515338345697e+00 +0.0000000000000000e+00 +9.7999983341941750e+00 +3.7384656238164671e-02 -7.0151313159604445e-01 +3.9088199406720628e-03
9.8999999999999808e+00 +9.0962500290840449e+00 +0.0000000000000000e+00 +9.8999982826776467e+00 +3.7384979264984186e-02 -7.0151363956997315e-01 +3.9088806040382439e-03
9.9999999999999805e+00 +9.0961474938074058e+00 +0.0000000000000000e+00 +9.9999982301097763e+00 +3.7385305256498032e-02 -7.0151414988931227e-01 +3.9089434391793394e-03
1.0099999999999980e+01 +9.0960439280039118e+00 +0.0000000000000000e+00 +1.0099998176479941e+01 +3.7385634311059610e-02 -7.0151466201991808e-01 +3.9090087377126976e-03
1.0199999999999980e+01 +9.0959393316728239e+00 +0.0000000000000000e+00 +1.0199998121777522e+01 +3.7385966156083826e-02 -7.0151517483915293e-01 +3.9090764178354243e-03
1.0299999999999979e+01 +9.0958337048133995e+00 +0.0000000000000000e+00 +1.0299998065991897e+01 +3.7386300426237522e-02 -7.0151568707718770e-01 +3.9091463043432967e-03
1.0399999999999979e+01 +9.0957270474248961e+00 +0.0000000000000000e+00 +1.0399998009112446e+01 +3.7386636756176796e-02 -7.0151619746413740e-01 +3.9092182219773305e-03
1.0499999999999979e+01 +9.0956193595065766e+00 +0.0000000000000000e+00 +1.0499997951128549e+01 +3.7386974780546645e-02 -7.0151670473006167e-01 +3.9092919954225739e-03
1.0599999999999978e+01 +9.0955106410577073e+00 +0.0000000000000000e+00 +1.0599997892029583e+01 +3.7387314133980935e-02 -7.0151720760496206e-01 +3.9093674493069028e-03
1.0699999999999978e+01 +9.0954008920775617e+00 +0.0000000000000000e+00 +1.0699997831804929e+01 +3.7387654451101988e-02 -7.0151770481877962e-01 +3.9094444081998157e-03
1.0799999999999978e+01 +9.0952901125654204e+00 +0.0000000000000000e+00 +1.0799997770443966e+01 +3.7387995366520453e-02 -7.0151819510139424e-01 +3.9095226966112291e-03
1.0899999999999977e+01 +9.0951783025205764e+00 +0.0000000000000000e+00 +1.0899997707936073e+01 +3.7388336514835092e-02 -7.0151867718262217e-01 +3.9096021389902766e-03
1.0999999999999977e+01 +9.0950654619423315e+00 +0.0000000000000000e+00 +1.0999997644270630e+01 +3.7388677530632464e-02 -7.0151914979221408e-01 +3.9096825597241050e-03
1.1099999999999977e+01 +9.0949515908300054e+00 +0.0000000000000000e+00 +1.1099997579437016e+01 +3.7389018048486808e-02 -7.0151961165985455e-01 +3.9097637831366711e-03
1.1199999999999976e+01 +9.0948366891829302e+00 +0.0000000000000000e+00 +1.1199997513424609e+01 +3.7389357702959751e-02 -7.0152006151515856e-01 +3.9098456334875414e-03
1.1299999999999976e+01 +9.0947207570004593e+00 +0.0000000000000000e+00 +1.1299997446222790e+01 +3.7389696128600082e-02 -7.0152049808767047e-01 +3.9099279349706847e-03
1.1399999999999975e+01 +9.0946037942819622e+00 +0.0000000000000000e+00 +1.1399997377820936e+01 +3.7390032959943587e-02 -7.0152092010686184e-01 +3.9100105117132796e-03
1.1499999999999975e+01 +9.0944858010268330e+00 +0.0000000000000000e+00 +1.1499997308208428e+01 +3.7390367831512797e-02 -7.0152132630213138e-01 +3.9100931877745059e-03
1.1599999999999975e+01 +9.0943667772344874e+00 +0.0000000000000000e+00 +1.1599997237374644e+01 +3.7390700377816735e-02 -7.0152171540280028e-01 +3.9101757871443472e-03
1.1699999999999974e+01 +9.0942467229043658e+00 +0.0000000000000000e+00 +1.1699997165308964e+01 +3.7391030233350796e-02 -7.0152208613811251e-01 +3.9102581337423946e-03
1.1799999999999974e+01 +9.0941256380359370e+00 +0.0000000000000000e+00 +1.1799997092000769e+01 +3.7391357032596384e-02 -7.0152243723723218e-01 +3.9103400514166392e-03
