# field on trajectory
# s[mm] rx[mm] ry[mm] rz[mm] bx[T] by[T] bz[T]
0.0000000000000000e+00 +9.1013000000000002e+00 +0.0000000000000000e+00 +0.0000000000000000e+00 +1.1372613846435150e-02 -1.0320321217775319e+00 -5.9016085359588896e-02
1.0000000000000001e-01 +9.1012994842959856e+00 +0.0000000000000000e+00 +9.9999999998226993e-02 +1.1372556911003823e-02 -1.0320296313151132e+00 -5.9016185021970098e-02
2.0000000000000001e-01 +9.1012979371855707e+00 +0.0000000000000000e+00 +1.9999999998581597e-01 +1.1372493216932386e-02 -1.0320273327087071e+00 -5.9016283409903711e-02
3.0000000000000004e-01 +9.1012953586710523e+00 +0.0000000000000000e+00 +2.9999999995212900e-01 +1.1372422550992014e-02 -1.0320252319798757e+00 -5.9016380475191602e-02
4.0000000000000002e-01 +9.1012917487545302e+00 +0.0000000000000000e+00 +3.9999999988652823e-01 +1.1372344699976956e-02 -1.0320233351506660e+00 -5.9016476169661485e-02
5.0000000000000000e-01 +9.1012871074378996e+00 +0.0000000000000000e+00 +4.9999999977837589e-01 +1.1372259450707897e-02 -1.0320216482434972e+00 -5.9016570445166922e-02
5.9999999999999998e-01 +9.1012814347228463e+00 +0.0000000000000000e+00 +5.9999999961703421e-01 +1.1372166775868147e-02 -1.0320201750290574e+00 -5.9016663384762726e-02
6.9999999999999996e-01 +9.1012747306108448e+00 +0.0000000000000000e+00 +6.9999999939186530e-01 +1.1372067391499239e-02 -1.0320189102702202e+00 -5.9016755596226600e-02
7.9999999999999993e-01 +9.1012669951031580e+00 +0.0000000000000000e+00 +7.9999999909223163e-01 +1.1371962199491593e-02 -1.0320178464778582e+00 -5.9016847818522136e-02
8.9999999999999991e-01 +9.1012582282008516e+00 +0.0000000000000000e+00 +8.9999999870749547e-01 +1.1371852101746691e-02 -1.0320169761627005e+00 -5.9016940790617235e-02
9.9999999999999989e-01 +9.1012484299047980e+00 +0.0000000000000000e+00 +9.9999999822701924e-01 +1.1371738000173184e-02 -1.0320162918352056e+00 -5.9017035251478694e-02
1.0999999999999999e+00 +9.1012376002156827e+00 +0.0000000000000000e+00 +1.0999999976401651e+00 +1.1371620796683076e-02 -1.0320157860054291e+00 -5.9017131940066754e-02
1.2000000000000000e+00 +9.1012257391340121e+00 +0.0000000000000000e+00 +1.1999999969362956e+00 +1.1371501393187848e-02 -1.0320154511828974e+00 -5.9017231595329740e-02
1.3000000000000000e+00 +9.1012128466601236e+00 +0.0000000000000000e+00 +1.2999999961047728e+00 +1.1371380691594626e-02 -1.0320152798764792e+00 -5.9017334956198708e-02
1.4000000000000001e+00 +9.1011989227941896e+00 +0.0000000000000000e+00 +1.3999999951349593e+00 +1.1371259593802297e-02 -1.0320152645942535e+00 -5.9017442761581905e-02
1.5000000000000002e+00 +9.1011839675362278e+00 +0.0000000000000000e+00 +1.4999999940162174e+00 +1.1371139001697719e-02 -1.0320153978433866e+00 -5.9017555750359489e-02
1.6000000000000003e+00 +9.1011679808861068e+00 +0.0000000000000000e+00 +1.5999999927379092e+00 +1.1371019817151806e-02 -1.0320156721299973e+00 -5.9017674661378174e-02
1.7000000000000004e+00 +9.1011509628435547e+00 +0.0000000000000000e+00 +1.6999999912893970e+00 +1.1370902942015709e-02 -1.0320160799590319e+00 -5.9017800233445675e-02
1.8000000000000005e+00 +9.1011329134081667e+00 +0.0000000000000000e+00 +1.7999999896600432e+00 +1.1370789278116964e-02 -1.0320166138341362e+00 -5.9017933205325404e-02
1.9000000000000006e+00 +9.1011138325794114e+00 +0.0000000000000000e+00 +1.8999999878392098e+00 +1.1370679727255624e-02 -1.0320172662575215e+00 -5.9018074315731077e-02
2.0000000000000004e+00 +9.1010937203566407e+00 +0.0000000000000000e+00 +1.9999999858162589e+00 +1.1370575191200412e-02 -1.0320180297298420e+00 -5.9018224303321251e-02
2.1000000000000005e+00 +9.1010725767390923e+00 +0.0000000000000000e+00 +2.0999999835805530e+00 +1.1370476571684872e-02 -1.0320188967500628e+00 -5.9018383906694005e-02
2.2000000000000006e+00 +9.1010504017259048e+00 +0.0000000000000000e+00 +2.1999999811214535e+00 +1.1370384770403516e-02 -1.0320198598153312e+00 -5.9018553864381491e-02
2.3000000000000007e+00 +9.1010271953161173e+00 +0.0000000000000000e+00 +2.2999999784283229e+00 +1.1370300689007951e-02 -1.0320209114208501e+00 -5.9018734914844495e-02
2.4000000000000008e+00 +9.1010029575086833e+00 +0.0000000000000000e+00 +2.3999999754905232e+00 +1.1370225229103033e-02 -1.0320220440597454e+00 -5.9018927796467072e-02
2.5000000000000009e+00 +9.1009776883024731e+00 +0.0000000000000000e+00 +2.4999999722974162e+00 +1.1370159292243030e-02 -1.0320232502229412e+00 -5.9019133247551203e-02
2.6000000000000010e+00 +9.1009513876962842e+00 +0.0000000000000000e+00 +2.5999999688383637e+00 +1.1370103478443900e-02 -1.0320245223055720e+00 -5.9019351680253025e-02
2.7000000000000011e+00 +9.1009240556888482e+00 +0.0000000000000000e+00 +2.6999999651027271e+00 +1.1370057181755606e-02 -1.0320258523273314e+00 -5.9019582202420172e-02
2.8000000000000012e+00 +9.1008956922788400e+00 +0.0000000000000000e+00 +2.7999999610798687e+00 +1.1370019494763850e-02 -1.0320272322142878e+00 -5.9019823595795981e-02
2.9000000000000012e+00 +9.1008662974648846e+00 +0.0000000000000000e+00 +2.8999999567591499e+00 +1.1369989510085344e-02 -1.0320286538926544e+00 -5.9020074642082546e-02
3.0000000000000013e+00 +9.1008358712455664e+00 +0.0000000000000000e+00 +2.9999999521299325e+00 +1.1369966320372080e-02 -1.0320301092888944e+00 -5.9020334122940533e-02
3.1000000000000014e+00 +9.1008044136194322e+00 +0.0000000000000000e+00 +3.0999999471815780e+00 +1.1369949018315537e-02 -1.0320315903298356e+00 -5.9020600819988882e-02
3.2000000000000015e+00 +9.1007719245850076e+00 +0.0000000000000000e+00 +3.1999999419034477e+00 +1.1369936696650929e-02 -1.0320330889427738e+00 -5.9020873514804638e-02
3.3000000000000016e+00 +9.1007384041407988e+00 +0.0000000000000000e+00 +3.2999999362849035e+00 +1.1369928448161419e-02 -1.0320345970555880e+00 -5.9021150988922806e-02
3.4000000000000017e+00 +9.1007038522853030e+00 +0.0000000000000000e+00 +3.3999999303153063e+00 +1.1369923365682402e-02 -1.0320361065968471e+00 -5.9021432023836168e-02
3.5000000000000018e+00 +9.1006682690170138e+00 +0.0000000000000000e+00 +3.4999999239840180e+00 +1.1369920542105670e-02 -1.0320376094959214e+00 -5.9021715400994976e-02
3.6000000000000019e+00 +9.1006316543344354e+00 +0.0000000000000000e+00 +3.5999999172803996e+00 +1.1369919070383719e-02 -1.0320390976830913e+00 -5.9021999901806815e-02
3.7000000000000020e+00 +9.1005940082360866e+00 +0.0000000000000000e+00 +3.6999999101938124e+00 +1.1369918043533933e-02 -1.0320405630896567e+00 -5.9022284307636549e-02
3.8000000000000020e+00 +9.1005553307205052e+00 +0.0000000000000000e+00 +3.7999999027136178e+00 +1.1369916554642845e-02 -1.0320419976480475e+00 -5.9022567399805832e-02
3.9000000000000021e+00 +9.1005156217862631e+00 +0.0000000000000000e+00 +3.8999998948291767e+00 +1.1369913696870380e-02 -1.0320433932919337e+00 -5.9022847959593214e-02
4.0000000000000018e+00 +9.1004748814319694e+00 +0.0000000000000000e+00 +3.9999998865298507e+00 +1.1369908563454063e-02 -1.0320447419563348e+00 -5.9023124768233723e-02
4.1000000000000014e+00 +9.1004331096562829e+00 +0.0000000000000000e+00 +4.0999998778050006e+00 +1.1369900247713297e-02 -1.0320460355777281e+00 -5.9023396606918840e-02
4.2000000000000011e+00 +9.1003903064579159e+00 +0.0000000000000000e+00 +4.1999998686439879e+00 +1.1369887843053574e-02 -1.0320472660941626e+00 -5.9023662256796172e-02
4.3000000000000007e+00 +9.1003464718356426e+00 +0.0000000000000000e+00 +4.2999998590361734e+00 +1.1369870442970727e-02 -1.0320484254453643e+00 -5.9023920498969394e-02
4.4000000000000004e+00 +9.1003016057883102e+00 +0.0000000000000000e+00 +4.3999998489709187e+00 +1.1369847141055168e-02 -1.0320495055728491e+00 -5.9024170114497919e-02
4.5000000000000000e+00 +9.1002557083148439e+00 +0.0000000000000000e+00 +4.4999998384375841e+00 +1.1369817030996123e-02 -1.0320504984200298e+00 -5.9024409884396799e-02
4.5999999999999996e+00 +9.1002087794142579e+00 +0.0000000000000000e+00 +4.5999998274255320e+00 +1.1369779475085006e-02 -1.0320513978015164e+00 -5.9024638817511417e-02
4.6999999999999993e+00 +9.1001608190856587e+00 +0.0000000000000000e+00 +4.6999998159241230e+00 +1.1369734909663325e-02 -1.0320522050102039e+00 -5.9024856834150055e-02
4.7999999999999989e+00 +9.1001118273282433e+00 +0.0000000000000000e+00 +4.7999998039227174e+00 +1.1369684039519760e-02 -1.0320529232086819e+00 -5.9025064082463767e-02
4.8999999999999986e+00 +9.1000618041412995e+00 +0.0000000000000000e+00 +4.8999997914106768e+00 +1.1369627569368939e-02 -1.0320535555598971e+00 -5.9025260710570814e-02
4.9999999999999982e+00 +9.1000107495242002e+00 +0.0000000000000000e+00 +4.9999997783773633e+00 +1.1369566203846191e-02 -1.0320541052271595e+00 -5.9025446866556835e-02
5.0999999999999979e+00 +9.0999586634764000e+00 +0.0000000000000000e+00 +5.0999997648121376e+00 +1.1369500647502268e-02 -1.0320545753741543e+00 -5.9025622698475458e-02
5.1999999999999975e+00 +9.0999055459974354e+00 +0.0000000000000000e+00 +5.1999997507043600e+00 +1.1369431604798145e-02 -1.0320549691649556e+00 -5.9025788354348685e-02
5.2999999999999972e+00 +9.0998513970869190e+00 +0.0000000000000000e+00 +5.2999997360433930e+00 +1.1369359780099704e-02 -1.0320552897640314e+00 -5.9025943982167227e-02
5.3999999999999968e+00 +9.0997962167445348e+00 +0.0000000000000000e+00 +5.3999997208185979e+00 +1.1369285877672507e-02 -1.0320555403362577e+00 -5.9026089729891068e-02
5.4999999999999964e+00 +9.0997400049700392e+00 +0.0000000000000000e+00 +5.4999997050193352e+00 +1.1369210601676566e-02 -1.0320557240469292e+00 -5.9026225745449766e-02
5.5999999999999961e+00 +9.0996827617632530e+00 +0.0000000000000000e+00 +5.5999996886349672e+00 +1.1369134656161019e-02 -1.0320558440617691e+00 -5.9026352176742916e-02
5.6999999999999957e+00 +9.0996244871240624e+00 +0.0000000000000000e+00 +5.6999996716548544e+00 +1.1369058745058971e-02 -1.0320559035469403e+00 -5.9026469171640686e-02
5.7999999999999954e+00 +9.0995651810524141e+00 +0.0000000000000000e+00 +5.7999996540683592e+00 +1.1368983572182143e-02 -1.0320559056690544e+00 -5.9026576877984037e-02
5.8999999999999950e+00 +9.0995048435483117e+00 +0.0000000000000000e+00 +5.8999996358648419e+00 +1.1368909841215687e-02 -1.0320558535951856e+00 -5.9026675443585315e-02
5.9999999999999947e+00 +9.0994434746118138e+00 +0.0000000000000000e+00 +5.9999996170336649e+00 +1.1368838255712891e-02 -1.0320557504928762e+00 -5.9026765016228597e-02
6.0999999999999943e+00 +9.0993810742430306e+00 +0.0000000000000000e+00 +6.0999995975641896e+00 +1.1368769519089937e-02 -1.0320555995301539e+00 -5.9026845743670175e-02
6.1999999999999940e+00 +9.0993176424421183e+00 +0.0000000000000000e+00 +6.1999995774457775e+00 +1.1368704334620658e-02 -1.0320554038755358e+00 -5.9026917773638922e-02
6.2999999999999936e+00 +9.0992531792092777e+00 +0.0000000000000000e+00 +6.2999995566677898e+00 +1.1368643405431249e-02 -1.0320551666980440e+00 -5.9026981253836812e-02
6.3999999999999932e+00 +9.0991876845447539e+00 +0.0000000000000000e+00 +6.3999995352195889e+00 +1.1368587434495049e-02 -1.0320548911672127e+00 -5.9027036331939196e-02
6.4999999999999929e+00 +9.0991211584488294e+00 +0.0000000000000000e+00 +6.4999995130905361e+00 +1.1368537124627251e-02 -1.0320545804531018e+00 -5.9027083155595392e-02
6.5999999999999925e+00 +9.0990536009218204e+00 +0.0000000000000000e+00 +6.5999994902699930e+00 +1.1368492958644122e-02 -1.0320542370983363e+00 -5.9027121867016877e-02
6.6999999999999922e+00 +9.0989850119640785e+00 +0.0000000000000000e+00 +6.6999994667473217e+00 +1.1368454539919725e-02 -1.0320538611340819e+00 -5.9027152586829570e-02
6.7999999999999918e+00 +9.0989153915759857e+00 +0.0000000000000000e+00 +6.7999994425118837e+00 +1.1368421252040581e-02 -1.0320534519638123e+00 -5.9027175430469932e-02
6.8999999999999915e+00 +9.0988447397579595e+00 +0.0000000000000000e+00 +6.8999994175530404e+00 +1.1368392478671517e-02 -1.0320530089912718e+00 -5.9027190513629577e-02
6.9999999999999911e+00 +9.0987730565104492e+00 +0.0000000000000000e+00 +6.9999993918601540e+00 +1.1368367603559590e-02 -1.0320525316204781e+00 -5.9027197952265416e-02
7.0999999999999908e+00 +9.0987003418339398e+00 +0.0000000000000000e+00 +7.0999993654225859e+00 +1.1368346010538041e-02 -1.0320520192557205e+00 -5.9027197862610174e-02
7.1999999999999904e+00 +9.0986265957289501e+00 +0.0000000000000000e+00 +7.1999993382296985e+00 +1.1368327083530248e-02 -1.0320514713015616e+00 -5.9027190361182723e-02
7.2999999999999901e+00 +9.0985518181960376e+00 +0.0000000000000000e+00 +7.2999993102708540e+00 +1.1368310206553640e-02 -1.0320508871628360e+00 -5.9027175564798515e-02
7.3999999999999897e+00 +9.0984760092357924e+00 +0.0000000000000000e+00 +7.3999992815354148e+00 +1.1368294763723672e-02 -1.0320502662446509e+00 -5.9027153590579931e-02
7.4999999999999893e+00 +9.0983991688488448e+00 +0.0000000000000000e+00 +7.4999992520127421e+00 +1.1368280139257742e-02 -1.0320496079523873e+00 -5.9027124555966613e-02
7.5999999999999890e+00 +9.0983212970358593e+00 +0.0000000000000000e+00 +7.5999992216921983e+00 +1.1368265717479153e-02 -1.0320489116916993e+00 -5.9027088578726003e-02
7.6999999999999886e+00 +9.0982423937975412e+00 +0.0000000000000000e+00 +7.6999991905631449e+00 +1.1368250882821044e-02 -1.0320481768685130e+00 -5.9027045776963542e-02
7.7999999999999883e+00 +9.0981624591346328e+00 +0.0000000000000000e+00 +7.7999991586149449e+00 +1.1368235019830348e-02 -1.0320474028890301e+00 -5.9026996269133158e-02
7.8999999999999879e+00 +9.0980814930479159e+00 +0.0000000000000000e+00 +7.8999991258369606e+00 +1.1368217513171720e-02 -1.0320465891597241e+00 -5.9026940174047610e-02
7.9999999999999876e+00 +9.0979994955382129e+00 +0.0000000000000000e+00 +7.9999990922185535e+00 +1.1368197747631486e-02 -1.0320457350873435e+00 -5.9026877610888859e-02
8.0999999999999872e+00 +9.0979164666063870e+00 +0.0000000000000000e+00 +8.0999990577490859e+00 +1.1368175108121601e-02 -1.0320448400789113e+00 -5.9026808699218447e-02
8.1999999999999869e+00 +9.0978324062533389e+00 +0.0000000000000000e+00 +8.1999990224179218e+00 +1.1368148979683579e-02 -1.0320439035417242e+00 -5.9026733558987909e-02
8.2999999999999865e+00 +9.0977473144800154e+00 +0.0000000000000000e+00 +8.2999989862144226e+00 +1.1368118747492438e-02 -1.0320429248833527e+00 -5.9026652310549037e-02
8.3999999999999861e+00 +9.0976611912874041e+00 +0.0000000000000000e+00 +8.3999989491279514e+00 +1.1368083796860655e-02 -1.0320419035116437e+00 -5.9026565074664382e-02
8.4999999999999858e+00 +9.0975740366765336e+00 +0.0000000000000000e+00 +8.4999989111478698e+00 +1.1368043513242117e-02 -1.0320408388347186e+00 -5.9026471972517543e-02
8.5999999999999854e+00 +9.0974858506484786e+00 +0.0000000000000000e+00 +8.5999988722635408e+00 +1.1367997460899896e-02 -1.0320397304799647e+00 -5.9026373113975739e-02
8.6999999999999851e+00 +9.0973966332043563e+00 +0.0000000000000000e+00 +8.6999988324643276e+00 +1.1367945918864007e-02 -1.0320385789508910e+00 -5.9026268562194159e-02
8.7999999999999847e+00 +9.0973063843453250e+00 +0.0000000000000000e+00 +8.7999987917395934e+00 +1.1367889344822697e-02 -1.0320373849698785e+00 -5.9026158368582091e-02
8.8999999999999844e+00 +9.0972151040725890e+00 +0.0000000000000000e+00 +8.8999987500786997e+00 +1.1367828196430535e-02 -1.0320361492591266e+00 -5.9026042584508324e-02
8.9999999999999840e+00 +9.0971227923873936e+00 +0.0000000000000000e+00 +8.9999987074710113e+00 +1.1367762931307018e-02 -1.0320348725406376e+00 -5.9025921261297416e-02
9.0999999999999837e+00 +9.0970294492910231e+00 +0.0000000000000000e+00 +9.0999986639058896e+00 +1.1367694007035217e-02 -1.0320335555362072e+00 -5.9025794450226349e-02
9.1999999999999833e+00 +9.0969350747848043e+00 +0.0000000000000000e+00 +9.1999986193726997e+00 +1.1367621881160415e-02 -1.0320321989674126e+00 -5.9025662202520854e-02
9.2999999999999829e+00 +9.0968396688701016e+00 +0.0000000000000000e+00 +9.2999985738608029e+00 +1.1367547011188684e-02 -1.0320308035555972e+00 -5.9025524569351763e-02
9.3999999999999826e+00 +9.0967432315483201e+00 +0.0000000000000000e+00 +9.3999985273595641e+00 +1.1367469854585564e-02 -1.0320293700218586e+00 -5.9025381601831524e-02
9.4999999999999822e+00 +9.0966457628209039e+00 +0.0000000000000000e+00 +9.4999984798583448e+00 +1.1367390868774642e-02 -1.0320278990870380e+00 -5.9025233351010620e-02
9.5999999999999819e+00 +9.0965472626893327e+00 +0.0000000000000000e+00 +9.5999984313465099e+00 +1.1367310511136224e-02 -1.0320263914717076e+00 -5.9025079867874045e-02
9.6999999999999815e+00 +9.0964477311551235e+00 +0.0000000000000000e+00 +9.6999983818134226e+00 +1.1367229239005881e-02 -1.0320248478961542e+00 -5.9024921203337563e-02
9.7999999999999812e+00 +9.0963471682198289e+00 +0.0000000000000000e+00 +9.7999983312484460e+00 +1.1367147509673145e-02 -1.0320232690803719e+00 -5.9024757408244366e-02
9.8999999999999808e+00 +9.0962455738850387e+00 +0.0000000000000000e+00 +9.8999982796409451e+00 +1.1367065780380081e-02 -1.0320216557440463e+00 -5.9024588533361302e-02
9.9999999999999805e+00 +9.0961429481523766e+00 +0.0000000000000000e+00 +9.9999982269802832e+00 +1.1366984508319926e-02 -1.0320200086065430e+00 -5.9024414629375507e-02
1.0099999999999980e+01 +9.0960392910234980e+00 +0.0000000000000000e+00 +1.0099998173255823e+01 +1.1366904150635702e-02 -1.0320183283868971e+00 -5.9024235746890696e-02
1.0199999999999980e+01 +9.0959346025000922e+00 +0.0000000000000000e+00 +1.0199998118456930e+01 +1.1366825164418818e-02 -1.0320166158037942e+00 -5.9024051936423606e-02
1.0299999999999979e+01 +9.0958288825838842e+00 +0.0000000000000000e+00 +1.0299998062572968e+01 +1.1366748006707698e-02 -1.0320148715755677e+00 -5.9023863248400511e-02
1.0399999999999979e+01 +9.0957221312766272e+00 +0.0000000000000000e+00 +1.0399998005593300e+01 +1.1366673134486407e-02 -1.0320130964201768e+00 -5.9023669733153615e-02
1.0499999999999979e+01 +9.0956143485801064e+00 +0.0000000000000000e+00 +1.0499997947507291e+01 +1.1366601004683232e-02 -1.0320112910552011e+00 -5.9023471440917505e-02
1.0599999999999978e+01 +9.0955055344961373e+00 +0.0000000000000000e+00 +1.0599997888304305e+01 +1.1366531971024043e-02 -1.0320094564364055e+00 -5.9023268370724309e-02
1.0699999999999978e+01 +9.0953956890265655e+00 +0.0000000000000000e+00 +1.0699997827973707e+01 +1.1366465974575912e-02 -1.0320075944736244e+00 -5.9023060316965775e-02
1.0799999999999978e+01 +9.0952848121732632e+00 +0.0000000000000000e+00 +1.0799997766504863e+01 +1.1366402853205393e-02 -1.0320057073151441e+00 -5.9022847022488431e-02
1.0899999999999977e+01 +9.0951729039381277e+00 +0.0000000000000000e+00 +1.0899997703887134e+01 +1.1366342444737136e-02 -1.0320037971091016e+00 -5.9022628229660097e-02
1.0999999999999977e+01 +9.0950599643230792e+00 +0.0000000000000000e+00 +1.0999997640109887e+01 +1.1366284586952968e-02 -1.0320018660034849e+00 -5.9022403680357903e-02
1.1099999999999977e+01 +9.0949459933300609e+00 +0.0000000000000000e+00 +1.1099997575162487e+01 +1.1366229117591012e-02 -1.0319999161461220e+00 -5.9022173115956249e-02
1.1199999999999976e+01 +9.0948309909610323e+00 +0.0000000000000000e+00 +1.1199997509034297e+01 +1.1366175874344729e-02 -1.0319979496846776e+00 -5.9021936277314981e-02
1.1299999999999976e+01 +9.0947149572179722e+00 +0.0000000000000000e+00 +1.1299997441714684e+01 +1.1366124694862053e-02 -1.0319959687666456e+00 -5.9021692904767213e-02
1.1399999999999975e+01 +9.0945978921028701e+00 +0.0000000000000000e+00 +1.1399997373193012e+01 +1.1366075416744458e-02 -1.0319939755393406e+00 -5.9021442738107485e-02
1.1499999999999975e+01 +9.0944797956177332e+00 +0.0000000000000000e+00 +1.1499997303458645e+01 +1.1366027877546071e-02 -1.0319919721498960e+00 -5.9021185516579790e-02
1.1599999999999975e+01 +9.0943606677645743e+00 +0.0000000000000000e+00 +1.1599997232500950e+01 +1.1365981914772758e-02 -1.0319899607452532e+00 -5.9020920978865535e-02
1.1699999999999974e+01 +9.0942405085454165e+00 +0.0000000000000000e+00 +1.1699997160309291e+01 +1.1365937365881207e-02 -1.0319879434721573e+00 -5.9020648863071533e-02
1.1799999999999974e+01 +9.0941193179622868e+00 +0.0000000000000000e+00 +1.1799997086873034e+01 +1.1365894068278072e-02 -1.0319859224771506e+00 -5.9020368906718100e-02
