# trajectory
# s[mm] rx[mm] ry[mm] rz[mm] px[rad] py[rad] pz[rad]
0.0000000000000000e+00 +9.1463000000000001e+00 +0.0000000000000000e+00 +0.0000000000000000e+00 +0.0000000000000000e+00 +0.0000000000000000e+00 +1.0000000000000000e+00
1.0000000000000001e-01 +9.1462994836981739e+00 +0.0000000000000000e+00 +9.9999999998222872e-02 -1.0326029072067742e-05 +0.0000000000000000e+00 +9.9999999994668654e-01
2.0000000000000001e-01 +9.1462979347956690e+00 +0.0000000000000000e+00 +1.9999999998578311e-01 -2.0652013652017760e-05 +0.0000000000000000e+00 +9.9999999978674714e-01
3.0000000000000004e-01 +9.1462953532969156e+00 +0.0000000000000000e+00 +2.9999999995201815e-01 -3.0977954081272047e-05 +0.0000000000000000e+00 +9.9999999952018315e-01
4.0000000000000002e-01 +9.1462917392063119e+00 +0.0000000000000000e+00 +3.9999999988626567e-01 -4.1303850727314408e-05 +0.0000000000000000e+00 +9.9999999914699589e-01
5.0000000000000000e-01 +9.1462870925282171e+00 +0.0000000000000000e+00 +4.9999999977786330e-01 -5.1629703983691880e-05 +0.0000000000000000e+00 +9.9999999866718681e-01
5.9999999999999998e-01 +9.1462814132669479e+00 +0.0000000000000000e+00 +5.9999999961614903e-01 -6.1955514270350330e-05 +0.0000000000000000e+00 +9.9999999808075712e-01
6.9999999999999996e-01 +9.1462747014267798e+00 +0.0000000000000000e+00 +6.9999999939046076e-01 -7.2281282037313027e-05 +0.0000000000000000e+00 +9.9999999738770817e-01
7.9999999999999993e-01 +9.1462669570119406e+00 +0.0000000000000000e+00 +7.9999999909013675e-01 -8.2607007768357874e-05 +0.0000000000000000e+00 +9.9999999658804117e-01
8.9999999999999991e-01 +9.1462581800266101e+00 +0.0000000000000000e+00 +8.9999999870451508e-01 -9.2932691981350012e-05 +0.0000000000000000e+00 +9.9999999568175746e-01
9.9999999999999989e-01 +9.1462483704749111e+00 +0.0000000000000000e+00 +9.9999999822293428e-01 -1.0325833522823927e-04 +0.0000000000000000e+00 +9.9999999466885814e-01
1.0999999999999999e+00 +9.1462375283609116e+00 +0.0000000000000000e+00 +1.0999999976347328e+00 -1.1358393809505670e-04 +0.0000000000000000e+00 +9.9999999354934455e-01
1.2000000000000000e+00 +9.1462256536886173e+00 +0.0000000000000000e+00 +1.1999999969292494e+00 -1.2390950120191025e-04 +0.0000000000000000e+00 +9.9999999232321779e-01
1.3000000000000000e+00 +9.1462127464619734e+00 +0.0000000000000000e+00 +1.2999999960958226e+00 -1.3423502520297953e-04 +0.0000000000000000e+00 +9.9999999099047898e-01
1.4000000000000001e+00 +9.1461988066848559e+00 +0.0000000000000000e+00 +1.3999999951237914e+00 -1.4456051078650981e-04 +0.0000000000000000e+00 +9.9999998955112934e-01
1.5000000000000002e+00 +9.1461838343610715e+00 +0.0000000000000000e+00 +1.4999999940024948e+00 -1.5488595867480496e-04 +0.0000000000000000e+00 +9.9999998800516987e-01
1.6000000000000003e+00 +9.1461678294943525e+00 +0.0000000000000000e+00 +1.5999999927212718e+00 -1.6521136962421976e-04 +0.0000000000000000e+00 +9.9999998635260157e-01
1.7000000000000004e+00 +9.1461507920883527e+00 +0.0000000000000000e+00 +1.6999999912694614e+00 -1.7553674442515109e-04 +0.0000000000000000e+00 +9.9999998459342554e-01
1.8000000000000005e+00 +9.1461327221466462e+00 +0.0000000000000000e+00 +1.7999999896364032e+00 -1.8586208390202849e-04 +0.0000000000000000e+00 +9.9999998272764268e-01
1.9000000000000006e+00 +9.1461136196727217e+00 +0.0000000000000000e+00 +1.8999999878114364e+00 -1.9618738891330362e-04 +0.0000000000000000e+00 +9.9999998075525398e-01
2.0000000000000004e+00 +9.1460934846699828e+00 +0.0000000000000000e+00 +1.9999999857839006e+00 -2.0651266035143898e-04 +0.0000000000000000e+00 +9.9999997867626023e-01
2.1000000000000005e+00 +9.1460723171417406e+00 +0.0000000000000000e+00 +2.0999999835431349e+00 -2.1683789914289580e-04 +0.0000000000000000e+00 +9.9999997649066241e-01
2.2000000000000006e+00 +9.1460501170912103e+00 +0.0000000000000000e+00 +2.1999999810784794e+00 -2.2716310624812088e-04 +0.0000000000000000e+00 +9.9999997419846121e-01
2.3000000000000007e+00 +9.1460268845215129e+00 +0.0000000000000000e+00 +2.2999999783792737e+00 -2.3748828266153274e-04 +0.0000000000000000e+00 +9.9999997179965738e-01
2.4000000000000008e+00 +9.1460026194356665e+00 +0.0000000000000000e+00 +2.3999999754348575e+00 -2.4781342941150678e-04 +0.0000000000000000e+00 +9.9999996929425161e-01
2.5000000000000009e+00 +9.1459773218365843e+00 +0.0000000000000000e+00 +2.4999999722345705e+00 -2.5813854756035973e-04 +0.0000000000000000e+00 +9.9999996668224456e-01
2.6000000000000010e+00 +9.1459509917270712e+00 +0.0000000000000000e+00 +2.5999999687677531e+00 -2.6846363820462433e-04 +0.0000000000000000e+00 +9.9999996396363677e-01
2.7000000000000011e+00 +9.1459236291098218e+00 +0.0000000000000000e+00 +2.6999999650237445e+00 -2.7878870247824054e-04 +0.0000000000000000e+00 +9.9999996113842882e-01
2.8000000000000012e+00 +9.1458952339874156e+00 +0.0000000000000000e+00 +2.7999999609918853e+00 -2.8911374155575367e-04 +0.0000000000000000e+00 +9.9999995820662124e-01
2.9000000000000012e+00 +9.1458658063623108e+00 +0.0000000000000000e+00 +2.8999999566615156e+00 -2.9943875665260230e-04 +0.0000000000000000e+00 +9.9999995516821438e-01
3.0000000000000013e+00 +9.1458353462368436e+00 +0.0000000000000000e+00 +2.9999999520219749e+00 -3.0976374902511565e-04 +0.0000000000000000e+00 +9.9999995202320857e-01
3.1000000000000014e+00 +9.1458038536132200e+00 +0.0000000000000000e+00 +3.0999999470626038e+00 -3.2008871997051116e-04 +0.0000000000000000e+00 +9.9999994877160414e-01
3.2000000000000015e+00 +9.1457713284935185e+00 +0.0000000000000000e+00 +3.1999999417727425e+00 -3.3041367082689289e-04 +0.0000000000000000e+00 +9.9999994541340131e-01
3.3000000000000016e+00 +9.1457377708796788e+00 +0.0000000000000000e+00 +3.2999999361417309e+00 -3.4073860297325010e-04 +0.0000000000000000e+00 +9.9999994194860031e-01
3.4000000000000017e+00 +9.1457031807735003e+00 +0.0000000000000000e+00 +3.3999999301589092e+00 -3.5106351782945665e-04 +0.0000000000000000e+00 +9.9999993837720114e-01
3.5000000000000018e+00 +9.1456675581766405e+00 +0.0000000000000000e+00 +3.4999999238136179e+00 -3.6138841685627067e-04 +0.0000000000000000e+00 +9.9999993469920379e-01
3.6000000000000019e+00 +9.1456309030906073e+00 +0.0000000000000000e+00 +3.5999999170951966e+00 -3.7171330155533476e-04 +0.0000000000000000e+00 +9.9999993091460815e-01
3.7000000000000020e+00 +9.1455932155167563e+00 +0.0000000000000000e+00 +3.6999999099929859e+00 -3.8203817346917703e-04 +0.0000000000000000e+00 +9.9999992702341411e-01
3.8000000000000020e+00 +9.1455544954562864e+00 +0.0000000000000000e+00 +3.7999999024963258e+00 -3.9236303418121202e-04 +0.0000000000000000e+00 +9.9999992302562146e-01
3.9000000000000021e+00 +9.1455147429102386e+00 +0.0000000000000000e+00 +3.8999998945945569e+00 -4.0268788531574274e-04 +0.0000000000000000e+00 +9.9999991892122997e-01
4.0000000000000018e+00 +9.1454739578794868e+00 +0.0000000000000000e+00 +3.9999998862770187e+00 -4.1301272853796290e-04 +0.0000000000000000e+00 +9.9999991471023919e-01
4.1000000000000014e+00 +9.1454321403647381e+00 +0.0000000000000000e+00 +4.0999998775330511e+00 -4.2333756555395970e-04 +0.0000000000000000e+00 +9.9999991039264857e-01
4.2000000000000011e+00 +9.1453892903665253e+00 +0.0000000000000000e+00 +4.1999998683519948e+00 -4.3366239811071710e-04 +0.0000000000000000e+00 +9.9999990596845756e-01
4.3000000000000007e+00 +9.1453454078852054e+00 +0.0000000000000000e+00 +4.2999998587231891e+00 -4.4398722799611978e-04 +0.0000000000000000e+00 +9.9999990143766559e-01
4.4000000000000004e+00 +9.1453004929209545e+00 +0.0000000000000000e+00 +4.3999998486359742e+00 -4.5431205703895717e-04 +0.0000000000000000e+00 +9.9999989680027190e-01
4.5000000000000000e+00 +9.1452545454737635e+00 +0.0000000000000000e+00 +4.4999998380796900e+00 -4.6463688710892862e-04 +0.0000000000000000e+00 +9.9999989205627560e-01
4.5999999999999996e+00 +9.1452075655434353e+00 +0.0000000000000000e+00 +4.5999998270436757e+00 -4.7496172011170771e-04 +0.0000000000000000e+00 +9.9999988720567567e-01
4.6999999999999993e+00 +9.1451595531295808e+00 +0.0000000000000000e+00 +4.6999998155172715e+00 -4.8528655793459645e-04 +0.0000000000000000e+00 +9.9999988224847125e-01
4.7999999999999989e+00 +9.1451105082316264e+00 +0.0000000000000000e+00 +4.7999998034898166e+00 -4.9561140239216947e-04 +0.0000000000000000e+00 +9.9999987718466121e-01
4.8999999999999986e+00 +9.1450604308488224e+00 +0.0000000000000000e+00 +4.8999997909506501e+00 -5.0593625522132076e-04 +0.0000000000000000e+00 +9.9999987201424445e-01
4.9999999999999982e+00 +9.1450093209802468e+00 +0.0000000000000000e+00 +4.9999997778891121e+00 -5.1626111808125057e-04 +0.0000000000000000e+00 +9.9999986673721997e-01
5.0999999999999979e+00 +9.1449571786248178e+00 +0.0000000000000000e+00 +5.0999997642945409e+00 -5.2658599255345142e-04 +0.0000000000000000e+00 +9.9999986135358643e-01
5.1999999999999975e+00 +9.1449040037812992e+00 +0.0000000000000000e+00 +5.1999997501562758e+00 -5.3691088014169437e-04 +0.0000000000000000e+00 +9.9999985586334283e-01
5.2999999999999972e+00 +9.1448497964483053e+00 +0.0000000000000000e+00 +5.2999997354636559e+00 -5.4723578227201407e-04 +0.0000000000000000e+00 +9.9999985026648797e-01
5.3999999999999968e+00 +9.1447945566243156e+00 +0.0000000000000000e+00 +5.3999997202060195e+00 -5.5756070029269386e-04 +0.0000000000000000e+00 +9.9999984456302049e-01
5.4999999999999964e+00 +9.1447382843076745e+00 +0.0000000000000000e+00 +5.4999997043727058e+00 -5.6788563547425001e-04 +0.0000000000000000e+00 +9.9999983875293930e-01
5.5999999999999961e+00 +9.1446809794966075e+00 +0.0000000000000000e+00 +5.5999996879530531e+00 -5.7821058900941547e-04 +0.0000000000000000e+00 +9.9999983283624316e-01
5.6999999999999957e+00 +9.1446226421892227e+00 +0.0000000000000000e+00 +5.6999996709364007e+00 -5.8853556201312360e-04 +0.0000000000000000e+00 +9.9999982681293087e-01
5.7999999999999954e+00 +9.1445632723835217e+00 +0.0000000000000000e+00 +5.7999996533120859e+00 -5.9886055552249063e-04 +0.0000000000000000e+00 +9.9999982068300119e-01
5.8999999999999950e+00 +9.1445028700774031e+00 +0.0000000000000000e+00 +5.8999996350694470e+00 -6.0918557049679839e-04 +0.0000000000000000e+00 +9.9999981444645292e-01
5.9999999999999947e+00 +9.1444414352686767e+00 +0.0000000000000000e+00 +5.9999996161978224e+00 -6.1951060781747602e-04 +0.0000000000000000e+00 +9.9999980810328482e-01
6.0999999999999943e+00 +9.1443789679550669e+00 +0.0000000000000000e+00 +6.0999995966865503e+00 -6.2983566828808148e-04 +0.0000000000000000e+00 +9.9999980165349567e-01
6.1999999999999940e+00 +9.1443154681342218e+00 +0.0000000000000000e+00 +6.1999995765249682e+00 -6.4016075263428245e-04 +0.0000000000000000e+00 +9.9999979509708425e-01
6.2999999999999936e+00 +9.1442509358037221e+00 +0.0000000000000000e+00 +6.2999995557024135e+00 -6.5048586150383671e-04 +0.0000000000000000e+00 +9.9999978843404946e-01
6.3999999999999932e+00 +9.1441853709610843e+00 +0.0000000000000000e+00 +6.3999995342082237e+00 -6.6081099546657219e-04 +0.0000000000000000e+00 +9.9999978166439019e-01
6.4999999999999929e+00 +9.1441187736037755e+00 +0.0000000000000000e+00 +6.4999995120317369e+00 -6.7113615501436616e-04 +0.0000000000000000e+00 +9.9999977478810520e-01
6.5999999999999925e+00 +9.1440511437292145e+00 +0.0000000000000000e+00 +6.5999994891622906e+00 -6.8146134056513302e-04 +0.0000000000000000e+00 +9.9999976780519351e-01
6.6999999999999922e+00 +9.1439824813347830e+00 +0.0000000000000000e+00 +6.6999994655892214e+00 -6.9178655250690634e-04 +0.0000000000000000e+00 +9.9999976071565411e-01
6.7999999999999918e+00 +9.1439127864178200e+00 +0.0000000000000000e+00 +6.7999994413018667e+00 -7.0211179124195873e-04 +0.0000000000000000e+00 +9.9999975351948578e-01
6.8999999999999915e+00 +9.1438420589756273e+00 +0.0000000000000000e+00 +6.8999994162895639e+00 -7.1243705719085612e-04 +0.0000000000000000e+00 +9.9999974621668741e-01
6.9999999999999911e+00 +9.1437702990054603e+00 +0.0000000000000000e+00 +6.9999993905416495e+00 -7.2276235079250654e-04 +0.0000000000000000e+00 +9.9999973880725790e-01
7.0999999999999908e+00 +9.1436975065045321e+00 +0.0000000000000000e+00 +7.0999993640474610e+00 -7.3308767250421106e-04 +0.0000000000000000e+00 +9.9999973129119601e-01
7.1999999999999904e+00 +9.1436236814700074e+00 +0.0000000000000000e+00 +7.1999993367963349e+00 -7.4341302280171674e-04 +0.0000000000000000e+00 +9.9999972366850054e-01
7.2999999999999901e+00 +9.1435488238990033e+00 +0.0000000000000000e+00 +7.2999993087776067e+00 -7.5373840217927144e-04 +0.0000000000000000e+00 +9.9999971593917014e-01
7.3999999999999897e+00 +9.1434729337885852e+00 +0.0000000000000000e+00 +7.3999992799806140e+00 -7.6406381114968078e-04 +0.0000000000000000e+00 +9.9999970810320360e-01
7.4999999999999893e+00 +9.1433960111357688e+00 +0.0000000000000000e+00 +7.4999992503946924e+00 -7.7438925024436722e-04 +0.0000000000000000e+00 +9.9999970016059958e-01
7.5999999999999890e+00 +9.1433180559375131e+00 +0.0000000000000000e+00 +7.5999992200091793e+00 -7.8471472001343120e-04 +0.0000000000000000e+00 +9.9999969211135664e-01
7.6999999999999886e+00 +9.1432390681907236e+00 +0.0000000000000000e+00 +7.6999991888134094e+00 -7.9504022102571379e-04 +0.0000000000000000e+00 +9.9999968395547345e-01
7.7999999999999883e+00 +9.1431590478922473e+00 +0.0000000000000000e+00 +7.7999991567967193e+00 -8.0536575386886214e-04 +0.0000000000000000e+00 +9.9999967569294856e-01
7.8999999999999879e+00 +9.1430779950388690e+00 +0.0000000000000000e+00 +7.8999991239484446e+00 -8.1569131914939637e-04 +0.0000000000000000e+00 +9.9999966732378054e-01
7.9999999999999876e+00 +9.1429959096273148e+00 +0.0000000000000000e+00 +7.9999990902579210e+00 -8.2601691749277875e-04 +0.0000000000000000e+00 +9.9999965884796771e-01
8.0999999999999872e+00 +9.1429127916542470e+00 +0.0000000000000000e+00 +8.0999990557144841e+00 -8.3634254954348505e-04 +0.0000000000000000e+00 +9.9999965026550863e-01
8.1999999999999869e+00 +9.1428286411162603e+00 +0.0000000000000000e+00 +8.1999990203074677e+00 -8.4666821596507760e-04 +0.0000000000000000e+00 +9.9999964157640164e-01
8.2999999999999865e+00 +9.1427434580098854e+00 +0.0000000000000000e+00 +8.2999989840262085e+00 -8.5699391744028033e-04 +0.0000000000000000e+00 +9.9999963278064519e-01
8.3999999999999861e+00 +9.1426572423315804e+00 +0.0000000000000000e+00 +8.3999989468600411e+00 -8.6731965467105648e-04 +0.0000000000000000e+00 +9.9999962387823749e-01
8.4999999999999858e+00 +9.1425699940777356e+00 +0.0000000000000000e+00 +8.4999989087983003e+00 -8.7764542837868737e-04 +0.0000000000000000e+00 +9.9999961486917677e-01
8.5999999999999854e+00 +9.1424817132446652e+00 +0.0000000000000000e+00 +8.5999988698303209e+00 -8.8797123930120720e-04 +0.0000000000000000e+00 +9.9999960575346125e-01
8.6999999999999851e+00 +9.1423923998286103e+00 +0.0000000000000000e+00 +8.6999988299454376e+00 -8.9829708816435423e-04 +0.0000000000000000e+00 +9.9999959653108916e-01
8.7999999999999847e+00 +9.1423020538257447e+00 +0.0000000000000000e+00 +8.7999987891329834e+00 -9.0862297565245834e-04 +0.0000000000000000e+00 +9.9999958720205873e-01
8.8999999999999844e+00 +9.1422106752321710e+00 +0.0000000000000000e+00 +8.8999987473822930e+00 -9.1894890240576366e-04 +0.0000000000000000e+00 +9.9999957776636816e-01
8.9999999999999840e+00 +9.1421182640439351e+00 +0.0000000000000000e+00 +8.9999987046827012e+00 -9.2927486902039515e-04 +0.0000000000000000e+00 +9.9999956822401559e-01
9.0999999999999837e+00 +9.1420248202570207e+00 +0.0000000000000000e+00 +9.0999986610235410e+00 -9.3960087604832347e-04 +0.0000000000000000e+00 +9.9999955857499934e-01
9.1999999999999833e+00 +9.1419303438673616e+00 +0.0000000000000000e+00 +9.1999986163941454e+00 -9.4992692399732865e-04 +0.0000000000000000e+00 +9.9999954881931763e-01
9.2999999999999829e+00 +9.1418348348708420e+00 +0.0000000000000000e+00 +9.2999985707838491e+00 -9.6025301333096285e-04 +0.0000000000000000e+00 +9.9999953895696880e-01
9.3999999999999826e+00 +9.1417382932633018e+00 +0.0000000000000000e+00 +9.3999985241819832e+00 -9.7057914446851100e-04 +0.0000000000000000e+00 +9.9999952898795108e-01
9.4999999999999822e+00 +9.1416407190405415e+00 +0.0000000000000000e+00 +9.4999984765778827e+00 -9.8090531778495071e-04 +0.0000000000000000e+00 +9.9999951891226291e-01
9.5999999999999819e+00 +9.1415421121983265e+00 +0.0000000000000000e+00 +9.5999984279608803e+00 -9.9123153361091042e-04 +0.0000000000000000e+00 +9.9999950872990262e-01
9.6999999999999815e+00 +9.1414424727323915e+00 +0.0000000000000000e+00 +9.6999983783203074e+00 -1.0015577922326269e-03 +0.0000000000000000e+00 +9.9999949844086855e-01
9.7999999999999812e+00 +9.1413418006384450e+00 +0.0000000000000000e+00 +9.7999983276454969e+00 -1.0118840938919001e-03 +0.0000000000000000e+00 +9.9999948804515915e-01
9.8999999999999808e+00 +9.1412400959121722e+00 +0.0000000000000000e+00 +9.8999982759257819e+00 -1.0222104387860485e-03 +0.0000000000000000e+00 +9.9999947754277285e-01
9.9999999999999805e+00 +9.1411373585492424e+00 +0.0000000000000000e+00 +9.9999982231504951e+00 -1.0325368270678612e-03 +0.0000000000000000e+00 +9.9999946693370823e-01
1.0099999999999980e+01 +9.1410335885453087e+00 +0.0000000000000000e+00 +1.0099998169308968e+01 -1.0428632588455498e-03 +0.0000000000000000e+00 +9.9999945621796371e-01
1.0199999999999980e+01 +9.1409287858960209e+00 +0.0000000000000000e+00 +1.0199998114390532e+01 -1.0531897341826992e-03 +0.0000000000000000e+00 +9.9999944539553798e-01
1.0299999999999979e+01 +9.1408229505970198e+00 +0.0000000000000000e+00 +1.0299998058384519e+01 -1.0635162530982156e-03 +0.0000000000000000e+00 +9.9999943446642969e-01
1.0399999999999979e+01 +9.1407160826439497e+00 +0.0000000000000000e+00 +1.0399998001280261e+01 -1.0738428155662751e-03 +0.0000000000000000e+00 +9.9999942343063741e-01
1.0499999999999979e+01 +9.1406081820324570e+00 +0.0000000000000000e+00 +1.0499997943067090e+01 -1.0841694215162692e-03 +0.0000000000000000e+00 +9.9999941228815992e-01
1.0599999999999978e+01 +9.1404992487582000e+00 +0.0000000000000000e+00 +1.0599997883734337e+01 -1.0944960708340870e-03 +0.0000000000000000e+00 +9.9999940103899598e-01
1.0699999999999978e+01 +9.1403892828168498e+00 +0.0000000000000000e+00 +1.0699997823271334e+01 -1.1048227633767714e-03 +0.0000000000000000e+00 +9.9999938968314439e-01
1.0799999999999978e+01 +9.1402782842040899e+00 +0.0000000000000000e+00 +1.0799997761667409e+01 -1.1151494989871972e-03 +0.0000000000000000e+00 +9.9999937822060403e-01
1.0899999999999977e+01 +9.1401662529156233e+00 +0.0000000000000000e+00 +1.0899997698911898e+01 -1.1254762774953898e-03 +0.0000000000000000e+00 +9.9999936665137368e-01
1.0999999999999977e+01 +9.1400531889471672e+00 +0.0000000000000000e+00 +1.0999997634994129e+01 -1.1358030987185066e-03 +0.0000000000000000e+00 +9.9999935497545234e-01
1.1099999999999977e+01 +9.1399390922944619e+00 +0.0000000000000000e+00 +1.1099997569903433e+01 -1.1461299624608186e-03 +0.0000000000000000e+00 +9.9999934319283879e-01
1.1199999999999976e+01 +9.1398239629532654e+00 +0.0000000000000000e+00 +1.1199997503629140e+01 -1.1564568685136908e-03 +0.0000000000000000e+00 +9.9999933130353191e-01
1.1299999999999976e+01 +9.1397078009193571e+00 +0.0000000000000000e+00 +1.1299997436160583e+01 -1.1667838166555637e-03 +0.0000000000000000e+00 +9.9999931930753083e-01
1.1399999999999975e+01 +9.1395906061885395e+00 +0.0000000000000000e+00 +1.1399997367487090e+01 -1.1771108066519326e-03 +0.0000000000000000e+00 +9.9999930720483432e-01
1.1499999999999975e+01 +9.1394723787566399e+00 +0.0000000000000000e+00 +1.1499997297597993e+01 -1.1874378382553277e-03 +0.0000000000000000e+00 +9.9999929499544149e-01
1.1599999999999975e+01 +9.1393531186195105e+00 +0.0000000000000000e+00 +1.1599997226482621e+01 -1.1977649112052931e-03 +0.0000000000000000e+00 +9.9999928267935134e-01
1.1699999999999974e+01 +9.1392328257730302e+00 +0.0000000000000000e+00 +1.1699997154130306e+01 -1.2080920252283661e-03 +0.0000000000000000e+00 +9.9999927025656288e-01
1.1799999999999974e+01 +9.1391115002131063e+00 +0.0000000000000000e+00 +1.1799997080530378e+01 -1.2184191800380555e-03 +0.0000000000000000e+00 +9.9999925772707521e-01
