# multipoles
# s[mm] polynom_b[n=0][T/m^n] polynom_b[n=1][T/m^n] polynom_b[n=2][T/m^n] polynom_b[n=3][T/m^n] polynom_b[n=4][T/m^n] polynom_b[n=5][T/m^n] polynom_b[n=6][T/m^n] 
+0.0000000000000000e+00 -5.1464352068726890e-02 +1.1559257755105644e-01 +9.6701053555296856e-01 +8.7453720215396424e-01 +3.4431458315605011e+02 +2.7551374544691811e+04 +8.2466731052715296e+05 
+1.0000000000000001e-01 -5.1464370371328533e-02 +1.1559357135847080e-01 +9.6713741346739623e-01 +8.7028274178705300e-01 +3.4164451149994568e+02 +2.7517719857089451e+04 +8.3592894983177155e+05 
+2.0000000000000001e-01 -5.1464391452074543e-02 +1.1559473611314137e-01 +9.6738891389597226e-01 +8.6581732386190580e-01 +3.3740023028421780e+02 +2.7473172811911223e+04 +8.5258104748710815e+05 
+3.0000000000000004e-01 -5.1464415236188776e-02 +1.1559603778308288e-01 +9.6775851883206065e-01 +8.6164298384921545e-01 +3.3168803949141403e+02 +2.7416231069409427e+04 +8.7419053828327858e+05 
+4.0000000000000002e-01 -5.1464441648894216e-02 +1.1559744233547009e-01 +9.6823971002736842e-01 +8.5826177139229665e-01 +3.2461424469649285e+02 +2.7345392256457344e+04 +9.0032432822337619e+05 
+5.0000000000000000e-01 -5.1464470615415106e-02 +1.1559891573613529e-01 +9.6882596927586029e-01 +8.5617576592548172e-01 +3.1628515160335098e+02 +2.7259153871352089e+04 +9.3054932024306257e+05 
+5.9999999999999998e-01 -5.1464502060972757e-02 +1.1560042395046581e-01 +9.6951077789412810e-01 +8.5588704818665984e-01 +3.0680707588237607e+02 +2.7156013454956905e+04 +9.6443236715080705e+05 
+6.9999999999999996e-01 -5.1464535910786043e-02 +1.1560193294285748e-01 +9.7028761682506182e-01 +8.5789771879932875e-01 +2.9628634087459631e+02 +2.7034468473469758e+04 +1.0015402831598517e+06 
+7.9999999999999993e-01 -5.1464572090074885e-02 +1.1560340867701342e-01 +9.7114996711712753e-01 +8.6270988821428141e-01 +2.8482926844420444e+02 +2.6893016379866793e+04 +1.0414398869164448e+06 
+8.9999999999999991e-01 -5.1464610524053780e-02 +1.1560481711623230e-01 +9.7209130908462571e-01 +8.7082566755127233e-01 +2.7254219492653135e+02 +2.6730154667524846e+04 +1.0836979254370518e+06 
+9.9999999999999989e-01 -5.1464651137935968e-02 +1.1560612422311729e-01 +9.7310512290947027e-01 +8.8274717878527453e-01 +2.5953145928181914e+02 +2.6544380804657805e+04 +1.1278811312042573e+06 
+1.0999999999999999e+00 -5.1464693856929603e-02 +1.1560729596021846e-01 +9.7418488814446436e-01 +8.9897653518610776e-01 +2.4590341260063491e+02 +2.6334192349523753e+04 +1.1735561763097427e+06 
+1.2000000000000000e+00 -5.1464738606240984e-02 +1.1560829828930377e-01 +9.7532408418148897e-01 +9.2001586231246735e-01 +2.3176440894472273e+02 +2.6098086827004943e+04 +1.2202897164042995e+06 
+1.3000000000000000e+00 -5.1464785311071230e-02 +1.1560909717236141e-01 +9.7651618980262100e-01 +9.4636726886448863e-01 +2.1722081401661404e+02 +2.5834561897357951e+04 +1.2676483486405488e+06 
+1.4000000000000001e+00 -5.1464833896616630e-02 +1.1560965857103003e-01 +9.7775468331750615e-01 +9.7853286402045692e-01 +2.0237900194142364e+02 +2.5542115251175353e+04 +1.3151986283197403e+06 
+1.5000000000000002e+00 -5.1464884288069987e-02 +1.1560994844722432e-01 +9.7903304270424951e-01 +1.0170147380246051e+00 +1.8734535283427604e+02 +2.5219244724918459e+04 +1.3625070793788529e+06 
+1.6000000000000003e+00 -5.1464936410615648e-02 +1.1560993276246692e-01 +9.8034474501697755e-01 +1.0623149828938476e+00 +1.7222626382549979e+02 +2.4864448174945534e+04 +1.4091401422459320e+06 
+1.7000000000000004e+00 -5.1464990189435039e-02 +1.1560957747897763e-01 +9.8168326713658960e-01 +1.1149356594263744e+00 +1.5712813458838903e+02 +2.4476223671942374e+04 +1.4546642427175406e+06 
+1.8000000000000005e+00 -5.1465045549701431e-02 +1.1560884855883174e-01 +9.8304208510381486e-01 +1.1753788228555537e+00 +1.4215737988781339e+02 +2.4053069347159610e+04 +1.4986457324049671e+06 
+1.9000000000000006e+00 -5.1465102416582184e-02 +1.1560771196475136e-01 +9.8441467443263975e-01 +1.2441464988137616e+00 +1.2742042355850958e+02 +2.3593483533567873e+04 +1.5406509171197426e+06 
+2.0000000000000004e+00 -5.1465160715237372e-02 +1.1560613365984500e-01 +9.8579450997325735e-01 +1.3217406920192774e+00 +1.1302370092938814e+02 +2.3095964709046511e+04 +1.5802460452205704e+06 
+2.1000000000000005e+00 -5.1465220367888850e-02 +1.1560409147157606e-01 +9.8717554457486634e-01 +1.4084163005504018e+00 +9.9053741207164251e+01 +2.2560109136377861e+04 +1.6171097954989527e+06 
+2.2000000000000006e+00 -5.1465281287021200e-02 +1.1560160988001060e-01 +9.8855363592835621e-01 +1.5034729331981664e+00 +8.5517717658098732e+01 +2.1989728583557728e+04 +1.6513723729187672e+06 
+2.3000000000000007e+00 -5.1465343383186167e-02 +1.1559872482974436e-01 +9.8992511754995727e-01 +1.6059797124986579e+00 +7.2402974245851411e+01 +2.1389643737201379e+04 +1.6832776221570207e+06 
+2.4000000000000008e+00 -5.1465406566938925e-02 +1.1559547226650110e-01 +9.9128632339740708e-01 +1.7150057389787863e+00 +5.9696846800655905e+01 +2.0764675360999863e+04 +1.7130694245357437e+06 
+2.5000000000000009e+00 -5.1465470748835007e-02 +1.1559188813749070e-01 +9.9263358759246334e-01 +1.8296200841604837e+00 +4.7386667597570259e+01 +2.0119644322967109e+04 +1.7409916783236216e+06 
+2.6000000000000010e+00 -5.1465535839435111e-02 +1.1558800839118201e-01 +9.9396324497181554e-01 +1.9488917980925078e+00 +3.5459755156058293e+01 +1.9459371546615785e+04 +1.7672883468092843e+06 
+2.7000000000000011e+00 -5.1465601749303237e-02 +1.1558386897753116e-01 +9.9527163084332415e-01 +2.0718899062178160e+00 +2.3903418960417099e+01 +1.8788678016363519e+04 +1.7922034357542754e+06 
+2.8000000000000012e+00 -5.1465668389006486e-02 +1.1557950584821139e-01 +9.9655508099556067e-01 +2.1976834034455863e+00 +1.2704959099405022e+01 +1.8112384807179722e+04 +1.8159809957828133e+06 
+2.9000000000000012e+00 -5.1465735669119127e-02 +1.1557495495664329e-01 +9.9780993218634551e-01 +2.3253412562776941e+00 +1.8516570890957287e+00 +1.7435313061135399e+04 +1.8388651659412999e+06 
+3.0000000000000013e+00 -5.1465803500219912e-02 +1.1557025225818053e-01 +9.9903252178183721e-01 +2.4539323994727207e+00 -8.6692171185403026e+00 +1.6762283998090803e+04 +1.8611001402005672e+06 
+3.1000000000000014e+00 -5.1465871792893247e-02 +1.1556543371005211e-01 +1.0002191879441129e+00 +2.5825257397227825e+00 -1.8870408998536231e+01 +1.6098118885947722e+04 +1.8829301868285621e+06 
+3.2000000000000015e+00 -5.1465940457733096e-02 +1.1556053527191396e-01 +1.0013662700971553e+00 +2.7101901418347825e+00 -2.8764688116210447e+01 +1.5447639112037816e+04 +1.9045996892273079e+06 
+3.3000000000000016e+00 -5.1466009405338423e-02 +1.1555559290536904e-01 +1.0024701083364276e+00 +2.8359944449696668e+00 -3.8364836755093478e+01 +1.4815666079307373e+04 +1.9263530916662468e+06 
+3.4000000000000017e+00 -5.1466078546317309e-02 +1.1555064257472969e-01 +1.0035270439674888e+00 +2.9590074424366777e+00 -4.7683660383268410e+01 +1.4207021316039401e+04 +1.9484349499369152e+06 
+3.5000000000000018e+00 -5.1466147791287317e-02 +1.1554572024642758e-01 +1.0045334195485489e+00 +3.0782979012982437e+00 -5.6733988426223831e+01 +1.3626526351462613e+04 +1.9710899350472968e+06 
+3.6000000000000019e+00 -5.1466217050875666e-02 +1.1554086189001164e-01 +1.0054855789130657e+00 +3.1929345349147575e+00 -6.5528674637272701e+01 +1.3079002868843254e+04 +1.9945628350653604e+06 
+3.7000000000000020e+00 -5.1466286235719062e-02 +1.1553610347744235e-01 +1.0063798671187525e+00 +3.3019860268919414e+00 -7.4080595963392696e+01 +1.2569272553571616e+04 +2.0190985494719325e+06 
+3.8000000000000020e+00 -5.1466355256466090e-02 +1.1553148098368900e-01 +1.0072126307713185e+00 +3.4045210140349917e+00 -8.2402658955738545e+01 +1.2102157188746382e+04 +2.0449421205771405e+06 
+3.9000000000000021e+00 -5.1466424023776172e-02 +1.1552703038685731e-01 +1.0079802178980655e+00 +3.4996080862460452e+00 -9.0507797258713055e+01 +1.1682478642620912e+04 +2.0723387214778280e+06 
+4.0000000000000018e+00 -5.1466492448320730e-02 +1.1552278766783196e-01 +1.0086789780458949e+00 +3.5863158031615732e+00 -9.8408972732239448e+01 +1.1315058758382378e+04 +2.1015336596879829e+06 
+4.1000000000000014e+00 -5.1466560459417117e-02 +1.1551878270095184e-01 +1.0093062750503645e+00 +3.6639425362606444e+00 -1.0611464719590626e+02 +1.1003296489193992e+04 +2.1326928221571217e+06 
+4.2000000000000011e+00 -5.1466628055996951e-02 +1.1551502286188774e-01 +1.0098631158934166e+00 +3.7325947821108132e+00 -1.1361169677843867e+02 +1.0745600509653113e+04 +2.1656598447009032e+06 
+4.3000000000000007e+00 -5.1466695253179755e-02 +1.1551151037695918e-01 +1.0103513124891315e+00 +3.7925541390975295e+00 -1.2088043979010673e+02 +1.0539300652721793e+04 +2.2001948965063673e+06 
+4.4000000000000004e+00 -5.1466762066084207e-02 +1.1550824747275444e-01 +1.0107726762488949e+00 +3.8441021895573870e+00 -1.2790118103760675e+02 +1.0381726886920402e+04 +2.2360580735838125e+06 
+4.5000000000000000e+00 -5.1466828509830177e-02 +1.1550523637512602e-01 +1.0111290183675656e+00 +3.8875205291639339e+00 -1.3465421772489560e+02 +1.0270209152892510e+04 +2.2730094278677725e+06 
+4.5999999999999996e+00 -5.1466894599533991e-02 +1.1550247930959913e-01 +1.0114221491941831e+00 +3.9230907546308087e+00 -1.4111982728286975e+02 +1.0202077439808489e+04 +2.3108089089920376e+06 
+4.6999999999999993e+00 -5.1466960350313992e-02 +1.1549997850085435e-01 +1.0116538788908216e+00 +3.9510944757050996e+00 -1.4727827938671842e+02 +1.0174661726777407e+04 +2.3492164199791155e+06 
+4.7999999999999989e+00 -5.1467025777285021e-02 +1.1549773617304537e-01 +1.0118260167381212e+00 +3.9718133074297493e+00 -1.5310982293648738e+02 +1.0185292026348690e+04 +2.3879917562240912e+06 
+4.8999999999999986e+00 -5.1467090895561764e-02 +1.1549575454949657e-01 +1.0119403715123771e+00 +3.9855288747070583e+00 -1.5859469277802006e+02 +1.0231298373028636e+04 +2.4268946361645176e+06 
+4.9999999999999982e+00 -5.1467155720258242e-02 +1.1549403585266908e-01 +1.0119987514053925e+00 +3.9925228143204223e+00 -1.6371310801230459e+02 +1.0310010811341101e+04 +2.4656846929722102e+06 
+5.0999999999999979e+00 -5.1467220266485321e-02 +1.1549258230389678e-01 +1.0120029637047783e+00 +3.9930767803894205e+00 -1.6844526592857707e+02 +1.0418759373073082e+04 +2.5041214459301424e+06 
+5.1999999999999975e+00 -5.1467284549352656e-02 +1.1549139612369935e-01 +1.0119548149782829e+00 +3.9874724337164018e+00 -1.7277134495423283e+02 +1.0554874146840602e+04 +2.5419643129513608e+06 
+5.2999999999999972e+00 -5.1467348583967489e-02 +1.1549047953115792e-01 +1.0118561109270865e+00 +3.9759914595755768e+00 -1.7667150196046657e+02 +1.0715685178357686e+04 +2.5789725982759790e+06 
+5.3999999999999968e+00 -5.1467412385434362e-02 +1.1548983474417122e-01 +1.0117086563238129e+00 +3.9589155584612645e+00 -1.8012587079014827e+02 +1.0898522531842846e+04 +2.6149054847216266e+06 
+5.4999999999999964e+00 -5.1467475968856355e-02 +1.1548946397923293e-01 +1.0115142551198699e+00 +3.9365264513012792e+00 -1.8311456400902685e+02 +1.1100716266662543e+04 +2.6495220414289767e+06 
+5.5999999999999961e+00 -5.1467539349334152e-02 +1.1548936945145270e-01 +1.0112747103474127e+00 +3.9091058778563408e+00 -1.8561767105445699e+02 +1.1319596452209973e+04 +2.6825812151075248e+06 
+5.6999999999999957e+00 -5.1467602541963524e-02 +1.1548955337437067e-01 +1.0109918237342959e+00 +3.8769356006019486e+00 -1.8761525047176289e+02 +1.1552493152066976e+04 +2.7138417921274491e+06 
+5.7999999999999954e+00 -5.1467665561839626e-02 +1.1549001795972996e-01 +1.0106673962592372e+00 +3.8402974102491774e+00 -1.8908734052668575e+02 +1.1796736398144445e+04 +2.7430624492763788e+06 
+5.8999999999999950e+00 -5.1467728424052367e-02 +1.1549076541777682e-01 +1.0103032274966701e+00 +3.7994731159692470e+00 -1.9001394622112082e+02 +1.2049656253496021e+04 +2.7700016906757923e+06 
+5.9999999999999947e+00 -5.1467791143688067e-02 +1.1549179795658192e-01 +1.0099011158228390e+00 +3.7547445536864612e+00 -1.9037504410927306e+02 +1.2308582824936535e+04 +2.7944178765177513e+06 
+6.0999999999999943e+00 -5.1467853727444397e-02 +1.1549311167576494e-01 +1.0094621843867875e+00 +3.7064354001202875e+00 -1.9014486790922527e+02 +1.2571087858644241e+04 +2.8160665652404404e+06 
+6.1999999999999940e+00 -5.1467916156098456e-02 +1.1549467751134597e-01 +1.0089864012008247e+00 +3.6550831255344516e+00 -1.8930023907808160e+02 +1.2835362157491740e+04 +2.8347865256642913e+06 
+6.2999999999999936e+00 -5.1467978405772503e-02 +1.1549645984454628e-01 +1.0084738244538554e+00 +3.6012902713997095e+00 -1.8782499653266950e+02 +1.3099676895624993e+04 +2.8504612716831816e+06 
+6.3999999999999932e+00 -5.1468040452589438e-02 +1.1549842305582539e-01 +1.0079245132865047e+00 +3.5456593905020886e+00 -1.8570300824201527e+02 +1.3362303247945656e+04 +2.8629744885932258e+06 
+6.4999999999999929e+00 -5.1468102272669111e-02 +1.1550053152461477e-01 +1.0073385273822930e+00 +3.4887930582137874e+00 -1.8291816444550869e+02 +1.3621512290495133e+04 +2.8722100062781293e+06 
+6.5999999999999925e+00 -5.1468163842127899e-02 +1.1550274962985077e-01 +1.0067159269378534e+00 +3.4312938567519740e+00 -1.7945437755889284e+02 +1.3875575093086520e+04 +2.8780518003564486e+06 
+6.6999999999999922e+00 -5.1468225137080166e-02 +1.1550504174936006e-01 +1.0060567728675887e+00 +3.3737643926488676e+00 -1.7529558632142474e+02 +1.4122762618406059e+04 +2.8803840126729910e+06 
+6.7999999999999918e+00 -5.1468286133636812e-02 +1.1550737226054632e-01 +1.0053611266923408e+00 +3.3168072767851582e+00 -1.7042575457836176e+02 +1.4361345838684218e+04 +2.8790909483006001e+06 
+6.8999999999999915e+00 -5.1468346807905636e-02 +1.1550970553942147e-01 +1.0046290506006810e+00 +3.2610251522787639e+00 -1.6482887255963018e+02 +1.4589595574154362e+04 +2.8740570819993848e+06 
+6.9999999999999911e+00 -5.1468407135992753e-02 +1.1551200596148303e-01 +1.0038606076914824e+00 +3.2070206684219427e+00 -1.5848896240976032e+02 +1.4805782646616106e+04 +2.8651670873066159e+06 
+7.0999999999999908e+00 -5.1468467093998042e-02 +1.1551423790110232e-01 +1.0030558614338005e+00 +3.1553964978329243e+00 -1.5139006819674492e+02 +1.5008177781628245e+04 +2.8523057899848237e+06 
+7.1999999999999904e+00 -5.1468526658020965e-02 +1.1551636573163669e-01 +1.0022148764333365e+00 +3.1067553341391827e+00 -1.4351627101215593e+02 +1.5195051619010630e+04 +2.8353582414123379e+06 
+7.2999999999999901e+00 -5.1468585804154032e-02 +1.1551835382561410e-01 +1.0013377176480436e+00 +3.0616998850002064e+00 -1.3485167461322735e+02 +1.5364674758525955e+04 +2.8142096520800781e+06 
+7.3999999999999897e+00 -5.1468644508490619e-02 +1.1552016655414062e-01 +1.0004244514443938e+00 +3.0208328895092014e+00 -1.2538042618676448e+02 +1.5515317658163041e+04 +2.7887454923812179e+06 
+7.4999999999999893e+00 -5.1468702747115444e-02 +1.1552176828753612e-01 +9.9947514441059648e-01 +2.9847570999529536e+00 -1.1508669402214636e+02 +1.5645250739692470e+04 +2.7588513872477645e+06 
+7.5999999999999890e+00 -5.1468760496112799e-02 +1.1552312339476117e-01 +9.9848986442435672e-01 +2.9540752975241498e+00 -1.0395468851526860e+02 +1.5752744300008808e+04 +2.7244132182731526e+06 
+7.6999999999999886e+00 -5.1468817731560909e-02 +1.1552419624385216e-01 +9.9746868001774758e-01 +2.9293902796195939e+00 -9.1968650488941037e+01 +1.5836068585439752e+04 +2.6853170692459340e+06 
+7.7999999999999883e+00 -5.1468874429534607e-02 +1.1552495120149735e-01 +9.9641166074117737e-01 +2.9113048715144152e+00 -7.9112858867856900e+01 +1.5893493725676464e+04 +2.6414492651149947e+06 
+7.8999999999999879e+00 -5.1468930566104035e-02 +1.1552535263290771e-01 +9.9531887702612776e-01 +2.9004219309145980e+00 -6.5371628272384726e+01 +1.5923289705158333e+04 +2.5926963612139565e+06 
+7.9999999999999876e+00 -5.1468986117339105e-02 +1.1552536490403670e-01 +9.9419040106419709e-01 +2.8973442834726231e+00 -5.0729328631372113e+01 +1.5923726630148396e+04 +2.5389452352057826e+06 
+8.0999999999999872e+00 -5.1469041078817321e-02 +1.1552496133397298e-01 +9.9302777368933048e-01 +2.9025242496833368e+00 -3.5202274265748166e+01 +1.5893427810004227e+04 +2.4802412033576844e+06 
+8.1999999999999869e+00 -5.1469095510091281e-02 +1.1552414945884079e-01 +9.9183554762960158e-01 +2.9159077701327099e+00 -1.8880384220807404e+01 +1.5831850671643666e+04 +2.4170350011287215e+06 
+8.2999999999999865e+00 -5.1469149483362189e-02 +1.1552294522684288e-01 +9.9061834347546152e-01 +2.9373341391076271e+00 -1.8594491967640525e+00 +1.5738513894639711e+04 +2.3498275555859995e+06 
+8.3999999999999861e+00 -5.1469203070822651e-02 +1.1552136458592094e-01 +9.8938077966618920e-01 +2.9666426888084505e+00 +1.5764792246616270e+01 +1.5612935725688309e+04 +2.2791195156592513e+06 
+8.4999999999999858e+00 -5.1469256344656059e-02 +1.1551942348300318e-01 +9.8812747248283217e-01 +3.0036727888392489e+00 +3.3896656380666215e+01 +1.5454634110160119e+04 +2.2054112235925077e+06 
+8.5999999999999854e+00 -5.1469309377037392e-02 +1.1551713786428547e-01 +9.8686303611924642e-01 +3.0482638360948848e+00 +5.2440513311927795e+01 +1.5263126754727791e+04 +2.1292027183059296e+06 
+8.6999999999999851e+00 -5.1469362240135569e-02 +1.1551452367524798e-01 +9.8559208289891176e-01 +3.1002552563230399e+00 +7.1300783716249455e+01 +1.5037931110304549e+04 +2.0509937482962154e+06 
+8.7999999999999847e+00 -5.1469415006107515e-02 +1.1551159686063250e-01 +9.8431922255452275e-01 +3.1594865031406707e+00 +9.0381952609646973e+01 +1.4778564380761252e+04 +1.9712837056228907e+06 
+8.8999999999999844e+00 -5.1469467747104411e-02 +1.1550837336405932e-01 +9.8304906292850525e-01 +3.2257970715913569e+00 +1.0958855684031597e+02 +1.4484543434825513e+04 +1.8905716828355358e+06 
+8.9999999999999840e+00 -5.1469520535266752e-02 +1.1550486912878039e-01 +9.8178620933236793e-01 +3.2990264750937088e+00 +1.2882519768392038e+02 +1.4155384941898479e+04 +1.8093564116001064e+06 
+9.0999999999999837e+00 -5.1469573442726388e-02 +1.1550110009671502e-01 +9.8053526477320208e-01 +3.3790142736997955e+00 +1.4799653707036666e+02 +1.3790605204686226e+04 +1.7281362788842304e+06 
+9.1999999999999833e+00 -5.1469626541605966e-02 +1.1549708220934765e-01 +9.7930082983140854e-01 +3.4656000490071537e+00 +1.6700730032388481e+02 +1.3389720300754823e+04 +1.6474093125138124e+06 
+9.2999999999999829e+00 -5.1469679904017643e-02 +1.1549283140698613e-01 +9.7808750245773612e-01 +3.5586234254368954e+00 +1.8576228077199448e+02 +1.2952245957179253e+04 +1.5676731567566919e+06 
+9.3999999999999826e+00 -5.1469733602064784e-02 +1.1548836362915249e-01 +9.7689987818505875e-01 +3.6579240591777111e+00 +2.0416633587727395e+02 +1.2477697612339600e+04 +1.4894250900911074e+06 
+9.4999999999999822e+00 -5.1469787707840942e-02 +1.1548369481439981e-01 +9.7574254993227683e-01 +3.7633416442240666e+00 +2.2212439172707067e+02 +1.1965590376757829e+04 +1.4131620013310825e+06 
+9.5999999999999819e+00 -5.1469842293428048e-02 +1.1547884090048810e-01 +9.7462010772668317e-01 +3.8747159063606826e+00 +2.3954144889290407e+02 +1.1415439068614192e+04 +1.3393803599387447e+06 
+9.6999999999999815e+00 -5.1469897430897846e-02 +1.1547381782415934e-01 +9.7353713888550908e-01 +3.9918866112248756e+00 +2.5632257921097033e+02 +1.0826758160767897e+04 +1.2685762303457335e+06 
+9.7999999999999812e+00 -5.1469953192312588e-02 +1.1546864152114017e-01 +9.7249822804759400e-01 +4.1146935638468545e+00 +2.7237292588622978e+02 +1.0199061782363624e+04 +1.2012452691374051e+06 
+9.8999999999999808e+00 -5.1470009649723494e-02 +1.1546332792620509e-01 +9.7150795695295344e-01 +4.2429766073141950e+00 +2.8759770804056450e+02 +9.5318637234693269e+03 +1.1378827022395604e+06 
+9.9999999999999805e+00 -5.1470066875166136e-02 +1.1545789297166921e-01 +9.7057090358663778e-01 +4.3765756705564938e+00 +3.0190224032427943e+02 +8.8246772423575258e+03 +1.0789832300653674e+06 
+1.0099999999999980e+01 -5.1470124909607312e-02 +1.1545235367751061e-01 +9.6968980292351337e-01 +4.5152696819387694e+00 +3.1522636720474526e+02 +8.0775857770171815e+03 +1.0248729250121565e+06 
