# field on trajectory
# s[mm] rx[mm] ry[mm] rz[mm] bx[T] by[T] bz[T]
0.0000000000000000e+00 +9.0449999999999999e+00 +0.0000000000000000e+00 +0.0000000000000000e+00 +5.4917584263912328e-02 -1.0151363609335562e+00 -1.2203378255981712e-02
-1.0000000000000001e-01 +9.0449994833760687e+00 +0.0000000000000000e+00 -9.9999999998220665e-02 +5.4918322602417052e-02 -1.0151364491017689e+00 -1.2203309297168292e-02
-2.0000000000000001e-01 +9.0449979335042112e+00 +0.0000000000000000e+00 -1.9999999998576534e-01 +5.4919081586827172e-02 -1.0151365611645058e+00 -1.2203244182326498e-02
-3.0000000000000004e-01 +9.0449953503843137e+00 +0.0000000000000000e+00 -2.9999999995195797e-01 +5.4919860360721454e-02 -1.0151366959224863e+00 -1.2203182319992976e-02
-4.0000000000000002e-01 +9.0449917340162393e+00 +0.0000000000000000e+00 -3.9999999988612256e-01 +5.4920658067674613e-02 -1.0151368521763404e+00 -1.2203123118705302e-02
-5.0000000000000000e-01 +9.0449870843998301e+00 +0.0000000000000000e+00 -4.9999999977758303e-01 +5.4921473851256189e-02 -1.0151370287266108e+00 -1.2203065987001769e-02
-5.9999999999999998e-01 +9.0449814015349066e+00 +0.0000000000000000e+00 -5.9999999961566342e-01 +5.4922306855029815e-02 -1.0151372243737533e+00 -1.2203010333421294e-02
-6.9999999999999996e-01 +9.0449746854212716e+00 +0.0000000000000000e+00 -6.9999999938968771e-01 +5.4923156222552269e-02 -1.0151374379181433e+00 -1.2202955566503264e-02
-7.9999999999999993e-01 +9.0449669360587066e+00 +0.0000000000000000e+00 -7.9999999908897979e-01 +5.4924021097372426e-02 -1.0151376681600712e+00 -1.2202901094787364e-02
-8.9999999999999991e-01 +9.0449581534469790e+00 +0.0000000000000000e+00 -8.9999999870286362e-01 +5.4924900623030445e-02 -1.0151379138997498e+00 -1.2202846326813449e-02
-9.9999999999999989e-01 +9.0449483375858399e+00 +0.0000000000000000e+00 -9.9999999822066310e-01 +5.4925793943056821e-02 -1.0151381739373144e+00 -1.2202790671121391e-02
-1.0999999999999999e+00 +9.0449374884750249e+00 +0.0000000000000000e+00 -1.0999999976317023e+00 +5.4926700200971408e-02 -1.0151384470728244e+00 -1.2202733536250938e-02
-1.2000000000000000e+00 +9.0449256061142584e+00 +0.0000000000000000e+00 -1.1999999969253050e+00 +5.4927618540282559e-02 -1.0151387321062659e+00 -1.2202674330741549e-02
-1.3000000000000000e+00 +9.0449126905032511e+00 +0.0000000000000000e+00 -1.2999999960907951e+00 +5.4928548104486170e-02 -1.0151390278375534e+00 -1.2202612463132282e-02
-1.4000000000000001e+00 +9.0448987416417026e+00 +0.0000000000000000e+00 -1.3999999951174966e+00 +5.4929488037064746e-02 -1.0151393330665324e+00 -1.2202547341961599e-02
-1.5000000000000002e+00 +9.0448837595293057e+00 +0.0000000000000000e+00 -1.4999999939947333e+00 +5.4930437481486495e-02 -1.0151396465929801e+00 -1.2202478375767262e-02
-1.6000000000000003e+00 +9.0448677441657424e+00 +0.0000000000000000e+00 -1.5999999927118291e+00 +5.4931395581204405e-02 -1.0151399672166097e+00 -1.2202404973086160e-02
-1.7000000000000004e+00 +9.0448506955506875e+00 +0.0000000000000000e+00 -1.6999999912581079e+00 +5.4932361479655259e-02 -1.0151402937370693e+00 -1.2202326542454168e-02
-1.8000000000000005e+00 +9.0448326136838109e+00 +0.0000000000000000e+00 -1.7999999896228935e+00 +5.4933334320258785e-02 -1.0151406249539474e+00 -1.2202242492406005e-02
-1.9000000000000006e+00 +9.0448134985647766e+00 +0.0000000000000000e+00 -1.8999999877955098e+00 +5.4934313246416733e-02 -1.0151409596667720e+00 -1.2202152231475095e-02
-2.0000000000000004e+00 +9.0447933501932472e+00 +0.0000000000000000e+00 -1.9999999857652806e+00 +5.4935297401511853e-02 -1.0151412966750135e+00 -1.2202055168193384e-02
-2.1000000000000005e+00 +9.0447721685688816e+00 +0.0000000000000000e+00 -2.0999999835215295e+00 +5.4936285994881248e-02 -1.0151416348842253e+00 -1.2201950887146918e-02
-2.2000000000000006e+00 +9.0447499536913369e+00 +0.0000000000000000e+00 -2.1999999810535806e+00 +5.4937278499747395e-02 -1.0151419736244807e+00 -1.2201839677145675e-02
-2.3000000000000007e+00 +9.0447267055602723e+00 +0.0000000000000000e+00 -2.2999999783507579e+00 +5.4938274455313033e-02 -1.0151423123320213e+00 -1.2201722003061471e-02
-2.4000000000000008e+00 +9.0447024241753446e+00 +0.0000000000000000e+00 -2.3999999754023849e+00 +5.4939273400791550e-02 -1.0151426504431382e+00 -1.2201598329773571e-02
-2.5000000000000009e+00 +9.0446771095362131e+00 +0.0000000000000000e+00 -2.4999999721977852e+00 +5.4940274875409423e-02 -1.0151429873941826e+00 -1.2201469122169488e-02
-2.6000000000000010e+00 +9.0446507616425382e+00 +0.0000000000000000e+00 -2.5999999687262827e+00 +5.4941278418408582e-02 -1.0151433226215800e+00 -1.2201334845145783e-02
-2.7000000000000011e+00 +9.0446233804939791e+00 +0.0000000000000000e+00 -2.6999999649772013e+00 +5.4942283569048823e-02 -1.0151436555618403e+00 -1.2201195963608875e-02
-2.8000000000000012e+00 +9.0445949660902016e+00 +0.0000000000000000e+00 -2.7999999609398647e+00 +5.4943289866610213e-02 -1.0151439856515687e+00 -1.2201052942475827e-02
-2.9000000000000012e+00 +9.0445655184308738e+00 +0.0000000000000000e+00 -2.8999999566035966e+00 +5.4944296850395549e-02 -1.0151443123274810e+00 -1.2200906246675162e-02
-3.0000000000000013e+00 +9.0445350375156650e+00 +0.0000000000000000e+00 -2.9999999519577205e+00 +5.4945304059732650e-02 -1.0151446350264124e+00 -1.2200756341147669e-02
-3.1000000000000014e+00 +9.0445035233442503e+00 +0.0000000000000000e+00 -3.0999999469915607e+00 +5.4946311033976875e-02 -1.0151449531853303e+00 -1.2200603690847177e-02
-3.2000000000000015e+00 +9.0444709759163082e+00 +0.0000000000000000e+00 -3.1999999416944402e+00 +5.4947317312513462e-02 -1.0151452662413465e+00 -1.2200448760741391e-02
-3.3000000000000016e+00 +9.0444373952315242e+00 +0.0000000000000000e+00 -3.2999999360556833e+00 +5.4948322434759930e-02 -1.0151455736317287e+00 -1.2200292015812667e-02
-3.4000000000000017e+00 +9.0444027812895893e+00 +0.0000000000000000e+00 -3.3999999300646135e+00 +5.4949325940168561e-02 -1.0151458747939126e+00 -1.2200133921058830e-02
-3.5000000000000018e+00 +9.0443671340902014e+00 +0.0000000000000000e+00 -3.4999999237105546e+00 +5.4950327368228684e-02 -1.0151461691655130e+00 -1.2199974941493967e-02
-3.6000000000000019e+00 +9.0443304536330640e+00 +0.0000000000000000e+00 -3.5999999169828296e+00 +5.4951326258469171e-02 -1.0151464561843375e+00 -1.2199815542149219e-02
-3.7000000000000020e+00 +9.0442927399178892e+00 +0.0000000000000000e+00 -3.6999999098707628e+00 +5.4952322150460822e-02 -1.0151467352883963e+00 -1.2199656188073595e-02
-3.8000000000000020e+00 +9.0442539929443964e+00 +0.0000000000000000e+00 -3.7999999023636777e+00 +5.4953314583818746e-02 -1.0151470059159144e+00 -1.2199497344334774e-02
-3.9000000000000021e+00 +9.0442142127123155e+00 +0.0000000000000000e+00 -3.8999998944508980e+00 +5.4954303098204808e-02 -1.0151472675053452e+00 -1.2199339476019899e-02
-4.0000000000000018e+00 +9.0441733992213837e+00 +0.0000000000000000e+00 -3.9999998861217474e+00 +5.4955287233329937e-02 -1.0151475194953807e+00 -1.2199183048236363e-02
-4.1000000000000014e+00 +9.0441315524713488e+00 +0.0000000000000000e+00 -4.0999998773655495e+00 +5.4956266494051081e-02 -1.0151477613756112e+00 -1.2199028452172307e-02
-4.2000000000000011e+00 +9.0440886724619691e+00 +0.0000000000000000e+00 -4.1999998681716280e+00 +5.4957240245633809e-02 -1.0151479928384017e+00 -1.2198875783257641e-02
-4.3000000000000007e+00 +9.0440447591930138e+00 +0.0000000000000000e+00 -4.2999998585293069e+00 +5.4958207818430929e-02 -1.0151482136268115e+00 -1.2198725062953896e-02
-4.4000000000000004e+00 +9.0439998126642624e+00 +0.0000000000000000e+00 -4.3999998484279095e+00 +5.4959168542781232e-02 -1.0151484234839232e+00 -1.2198576312688380e-02
-4.5000000000000000e+00 +9.0439538328755074e+00 +0.0000000000000000e+00 -4.4999998378567589e+00 +5.4960121749008009e-02 -1.0151486221528399e+00 -1.2198429553851801e-02
-4.5999999999999996e+00 +9.0439068198265513e+00 +0.0000000000000000e+00 -4.5999998268051794e+00 +5.4961066767417251e-02 -1.0151488093766838e+00 -1.2198284807795837e-02
-4.6999999999999993e+00 +9.0438587735172078e+00 +0.0000000000000000e+00 -4.6999998152624949e+00 +5.4962002928296158e-02 -1.0151489848985924e+00 -1.2198142095830746e-02
-4.7999999999999989e+00 +9.0438096939473027e+00 +0.0000000000000000e+00 -4.7999998032180287e+00 +5.4962929561911351e-02 -1.0151491484617152e+00 -1.2198001439222951e-02
-4.8999999999999986e+00 +9.0437595811166762e+00 +0.0000000000000000e+00 -4.8999997906611039e+00 +5.4963845998507371e-02 -1.0151492998092126e+00 -1.2197862859192665e-02
-4.9999999999999982e+00 +9.0437084350251791e+00 +0.0000000000000000e+00 -4.9999997775810447e+00 +5.4964751568305020e-02 -1.0151494386842521e+00 -1.2197726376911470e-02
-5.0999999999999979e+00 +9.0436562556726763e+00 +0.0000000000000000e+00 -5.0999997639671752e+00 +5.4965645601499649e-02 -1.0151495648300053e+00 -1.2197592013499901e-02
-5.1999999999999975e+00 +9.0436030430590435e+00 +0.0000000000000000e+00 -5.1999997498088177e+00 +5.4966527428259603e-02 -1.0151496779896458e+00 -1.2197459790025079e-02
-5.2999999999999972e+00 +9.0435487971841724e+00 +0.0000000000000000e+00 -5.2999997350952972e+00 +5.4967396378724560e-02 -1.0151497779063479e+00 -1.2197329727498291e-02
-5.3999999999999968e+00 +9.0434935180479670e+00 +0.0000000000000000e+00 -5.3999997198159368e+00 +5.4968251783003894e-02 -1.0151498643232792e+00 -1.2197201846872572e-02
-5.4999999999999964e+00 +9.0434372056503438e+00 +0.0000000000000000e+00 -5.4999997039600599e+00 +5.4969092971175013e-02 -1.0151499369836039e+00 -1.2197076169040340e-02
-5.5999999999999961e+00 +9.0433798599912372e+00 +0.0000000000000000e+00 -5.5999996875169904e+00 +5.4969919273281827e-02 -1.0151499956304759e+00 -1.2196952714830978e-02
-5.6999999999999957e+00 +9.0433214810705920e+00 +0.0000000000000000e+00 -5.6999996704760525e+00 +5.4970730019332940e-02 -1.0151500400070377e+00 -1.2196831505008412e-02
-5.7999999999999954e+00 +9.0432620688883691e+00 +0.0000000000000000e+00 -5.7999996528265694e+00 +5.4971524539300230e-02 -1.0151500698564171e+00 -1.2196712560268750e-02
-5.8999999999999950e+00 +9.0432016234445456e+00 +0.0000000000000000e+00 -5.8999996345578642e+00 +5.4972302163117021e-02 -1.0151500849217261e+00 -1.2196595901237867e-02
-5.9999999999999947e+00 +9.0431401447391124e+00 +0.0000000000000000e+00 -5.9999996156592612e+00 +5.4973062220676563e-02 -1.0151500849460549e+00 -1.2196481548468986e-02
-6.0999999999999943e+00 +9.0430776327720750e+00 +0.0000000000000000e+00 -6.0999995961200844e+00 +5.4973804104899805e-02 -1.0151500700485860e+00 -1.2196369469498371e-02
-6.1999999999999940e+00 +9.0430140875434564e+00 +0.0000000000000000e+00 -6.1999995759296569e+00 +5.4974527460958024e-02 -1.0151500418529134e+00 -1.2196259420060616e-02
-6.2999999999999936e+00 +9.0429495090532921e+00 +0.0000000000000000e+00 -6.2999995550773029e+00 +5.4975231997084831e-02 -1.0151500023586273e+00 -1.2196151102995999e-02
-6.3999999999999932e+00 +9.0428838973016283e+00 +0.0000000000000000e+00 -6.3999995335523456e+00 +5.4975917421508390e-02 -1.0151499535651747e+00 -1.2196044221208029e-02
-6.4999999999999929e+00 +9.0428172522885220e+00 +0.0000000000000000e+00 -6.4999995113441091e+00 +5.4976583442451314e-02 -1.0151498974718567e+00 -1.2195938477666613e-02
-6.5999999999999925e+00 +9.0427495740140351e+00 +0.0000000000000000e+00 -6.5999994884419175e+00 +5.4977229768130693e-02 -1.0151498360778155e+00 -1.2195833575411257e-02
-6.6999999999999922e+00 +9.0426808624782389e+00 +0.0000000000000000e+00 -6.6999994648350940e+00 +5.4977856106757976e-02 -1.0151497713820326e+00 -1.2195729217554258e-02
-6.7999999999999918e+00 +9.0426111176812078e+00 +0.0000000000000000e+00 -6.7999994405129627e+00 +5.4978462166538927e-02 -1.0151497053833181e+00 -1.2195625107283881e-02
-6.8999999999999915e+00 +9.0425403396230148e+00 +0.0000000000000000e+00 -6.8999994154648467e+00 +5.4979047655673546e-02 -1.0151496400803057e+00 -1.2195520947867532e-02
-6.9999999999999911e+00 +9.0424685283037327e+00 +0.0000000000000000e+00 -6.9999993896800703e+00 +5.4979612282356108e-02 -1.0151495774714461e+00 -1.2195416442654995e-02
-7.0999999999999908e+00 +9.0423956837234343e+00 +0.0000000000000000e+00 -7.0999993631479574e+00 +5.4980155754775023e-02 -1.0151495195549969e+00 -1.2195311295081550e-02
-7.1999999999999904e+00 +9.0423218058821853e+00 +0.0000000000000000e+00 -7.1999993358578314e+00 +5.4980677781112791e-02 -1.0151494683290199e+00 -1.2195205208671213e-02
-7.2999999999999901e+00 +9.0422468947800461e+00 +0.0000000000000000e+00 -7.2999993077990162e+00 +5.4981178069545937e-02 -1.0151494257913698e+00 -1.2195097887039893e-02
-7.3999999999999897e+00 +9.0421709504170682e+00 +0.0000000000000000e+00 -7.3999992789608360e+00 +5.4981656328244977e-02 -1.0151493939396901e+00 -1.2194989033898571e-02
-7.4999999999999893e+00 +9.0420939727932907e+00 +0.0000000000000000e+00 -7.4999992493326140e+00 +5.4982112265374403e-02 -1.0151493747714051e+00 -1.2194878353056519e-02
-7.5999999999999890e+00 +9.0420159619087421e+00 +0.0000000000000000e+00 -7.5999992189036742e+00 +5.4982545589092491e-02 -1.0151493702837124e+00 -1.2194765548424439e-02
-7.6999999999999886e+00 +9.0419369177634348e+00 +0.0000000000000000e+00 -7.6999991876633400e+00 +5.4982956007551417e-02 -1.0151493824735764e+00 -1.2194650324017679e-02
-7.7999999999999883e+00 +9.0418568403573651e+00 +0.0000000000000000e+00 -7.7999991556009354e+00 +5.4983343228897023e-02 -1.0151494133377210e+00 -1.2194532383959388e-02
-7.8999999999999879e+00 +9.0417757296905101e+00 +0.0000000000000000e+00 -7.8999991227057835e+00 +5.4983706961268905e-02 -1.0151494648726220e+00 -1.2194411432483723e-02
-7.9999999999999876e+00 +9.0416935857628253e+00 +0.0000000000000000e+00 -7.9999990889672086e+00 +5.4984046912800268e-02 -1.0151495390745020e+00 -1.2194287173939023e-02
-8.0999999999999872e+00 +9.0416104085742433e+00 +0.0000000000000000e+00 -8.0999990543745337e+00 +5.4984362837822820e-02 -1.0151496371729041e+00 -1.2194159428753928e-02
-8.1999999999999869e+00 +9.0415261981246733e+00 +0.0000000000000000e+00 -8.1999990189170830e+00 +5.4984654675487535e-02 -1.0151497573314898e+00 -1.2194028481289122e-02
-8.2999999999999865e+00 +9.0414409544140035e+00 +0.0000000000000000e+00 -8.2999989825841798e+00 +5.4984922411148787e-02 -1.0151498969475656e+00 -1.2193894731850353e-02
-8.3999999999999861e+00 +9.0413546774421008e+00 +0.0000000000000000e+00 -8.3999989453651480e+00 +5.4985166030157261e-02 -1.0151500534185784e+00 -1.2193758580704461e-02
-8.4999999999999858e+00 +9.0412673672088140e+00 +0.0000000000000000e+00 -8.4999989072493118e+00 +5.4985385517859940e-02 -1.0151502241421224e+00 -1.2193620428077699e-02
-8.5999999999999854e+00 +9.0411790237139797e+00 +0.0000000000000000e+00 -8.5999988682259936e+00 +5.4985580859600112e-02 -1.0151504065159433e+00 -1.2193480674154041e-02
-8.6999999999999851e+00 +9.0410896469574222e+00 +0.0000000000000000e+00 -8.6999988282845173e+00 +5.4985752040717498e-02 -1.0151505979379445e+00 -1.2193339719073538e-02
-8.7999999999999847e+00 +9.0409992369389567e+00 +0.0000000000000000e+00 -8.7999987874142072e+00 +5.4985899046548131e-02 -1.0151507958061914e+00 -1.2193197962930604e-02
-8.8999999999999844e+00 +9.0409077936583913e+00 +0.0000000000000000e+00 -8.8999987456043854e+00 +5.4986021862424579e-02 -1.0151509975189190e+00 -1.2193055805772365e-02
-8.9999999999999840e+00 +9.0408153171155305e+00 +0.0000000000000000e+00 -8.9999987028443762e+00 +5.4986120473675883e-02 -1.0151512004745356e+00 -1.2192913647596995e-02
-9.0999999999999837e+00 +9.0407218073101774e+00 +0.0000000000000000e+00 -9.0999986591235036e+00 +5.4986194865627648e-02 -1.0151514020716286e+00 -1.2192771888352012e-02
-9.1999999999999833e+00 +9.0406272642421381e+00 +0.0000000000000000e+00 -9.1999986144310899e+00 +5.4986245023601998e-02 -1.0151515997089704e+00 -1.2192630927932640e-02
-9.2999999999999829e+00 +9.0405316879112210e+00 +0.0000000000000000e+00 -9.2999985687564592e+00 +5.4986270932917719e-02 -1.0151517907855230e+00 -1.2192491166180120e-02
-9.3999999999999826e+00 +9.0404350783172429e+00 +0.0000000000000000e+00 -9.3999985220889357e+00 +5.4986272578890293e-02 -1.0151519727004441e+00 -1.2192353002880034e-02
-9.4999999999999822e+00 +9.0403374354600281e+00 +0.0000000000000000e+00 -9.4999984744178416e+00 +5.4986249946831836e-02 -1.0151521428530936e+00 -1.2192216837760669e-02
-9.5999999999999819e+00 +9.0402387593394149e+00 +0.0000000000000000e+00 -9.5999984257325011e+00 +5.4986203022051303e-02 -1.0151522986430364e+00 -1.2192083070491303e-02
-9.6999999999999815e+00 +9.0401390499552541e+00 +0.0000000000000000e+00 -9.6999983760222381e+00 +5.4986131789854391e-02 -1.0151524374700498e+00 -1.2191952100680577e-02
-9.7999999999999812e+00 +9.0400383073074160e+00 +0.0000000000000000e+00 -9.7999983252763752e+00 +5.4986036235543684e-02 -1.0151525567341295e+00 -1.2191824327874823e-02
-9.8999999999999808e+00 +9.0399365313957905e+00 +0.0000000000000000e+00 -9.8999982734842362e+00 +5.4985916344418663e-02 -1.0151526538354929e+00 -1.2191700151556382e-02
-9.9999999999999805e+00 +9.0398337222202905e+00 +0.0000000000000000e+00 -9.9999982206351437e+00 +5.4985772101775722e-02 -1.0151527261745859e+00 -1.2191579971141951e-02
-1.0099999999999980e+01 +9.0397298797808521e+00 +0.0000000000000000e+00 -1.0099998166718423e+01 +5.4985603494573092e-02 -1.0151527718620470e+00 -1.2191464057923332e-02
-1.0199999999999980e+01 +9.0396250040774415e+00 +0.0000000000000000e+00 -1.0199998111723398e+01 +5.4985410516423326e-02 -1.0151527918486731e+00 -1.2191352170883355e-02
-1.0299999999999979e+01 +9.0395190951100481e+00 +0.0000000000000000e+00 -1.0299998055639390e+01 +5.4985193162595092e-02 -1.0151527877953661e+00 -1.2191243940912318e-02
-1.0399999999999979e+01 +9.0394121528786879e+00 +0.0000000000000000e+00 -1.0399997998455724e+01 +5.4984951428347632e-02 -1.0151527613630849e+00 -1.2191138998883256e-02
-1.0499999999999979e+01 +9.0393041773833982e+00 +0.0000000000000000e+00 -1.0499997940161725e+01 +5.4984685308930518e-02 -1.0151527142128451e+00 -1.2191036975651551e-02
-1.0599999999999978e+01 +9.0391951686242393e+00 +0.0000000000000000e+00 -1.0599997880746715e+01 +5.4984394799583593e-02 -1.0151526480057202e+00 -1.2190937502054518e-02
-1.0699999999999978e+01 +9.0390851266012895e+00 +0.0000000000000000e+00 -1.0699997820200018e+01 +5.4984079895536844e-02 -1.0151525644028438e+00 -1.2190840208911032e-02
-1.0799999999999978e+01 +9.0389740513146446e+00 +0.0000000000000000e+00 -1.0799997758510958e+01 +5.4983740592010326e-02 -1.0151524650654093e+00 -1.2190744727021155e-02
-1.0899999999999977e+01 +9.0388619427644183e+00 +0.0000000000000000e+00 -1.0899997695668858e+01 +5.4983376884213897e-02 -1.0151523516546714e+00 -1.2190650687165683e-02
-1.0999999999999977e+01 +9.0387488009507386e+00 +0.0000000000000000e+00 -1.0999997631663042e+01 +5.4982988767347252e-02 -1.0151522258319468e+00 -1.2190557720105797e-02
-1.1099999999999977e+01 +9.0386346258737440e+00 +0.0000000000000000e+00 -1.1099997566482836e+01 +5.4982576236599724e-02 -1.0151520892586148e+00 -1.2190465456582660e-02
-1.1199999999999976e+01 +9.0385194175335872e+00 +0.0000000000000000e+00 -1.1199997500117561e+01 +5.4982139287150102e-02 -1.0151519435961200e+00 -1.2190373527316983e-02
-1.1299999999999976e+01 +9.0384031759304282e+00 +0.0000000000000000e+00 -1.1299997432556543e+01 +5.4981677914166673e-02 -1.0151517905059722e+00 -1.2190281563008686e-02
-1.1399999999999975e+01 +9.0382859010644339e+00 +0.0000000000000000e+00 -1.1399997363789103e+01 +5.4981192112806915e-02 -1.0151516316497462e+00 -1.2190189194336424e-02
-1.1499999999999975e+01 +9.0381675929357801e+00 +0.0000000000000000e+00 -1.1499997293804567e+01 +5.4980681878217440e-02 -1.0151514686890841e+00 -1.2190096051957242e-02
-1.1599999999999975e+01 +9.0380482515446445e+00 +0.0000000000000000e+00 -1.1599997222592258e+01 +5.4980147205533930e-02 -1.0151513032856971e+00 -1.2190001766506147e-02
-1.1699999999999974e+01 +9.0379278768912084e+00 +0.0000000000000000e+00 -1.1699997150141501e+01 +5.4979588089880897e-02 -1.0151511371013644e+00 -1.2189905968595682e-02
