# field on trajectory
# s[mm] rx[mm] ry[mm] rz[mm] bx[T] by[T] bz[T]
0.0000000000000000e+00 +9.1076201166355002e+00 +0.0000000000000000e+00 +0.0000000000000000e+00 +1.1210923354688299e-02 -1.0338226759745808e+00 -5.8874114889530225e-02
1.0005104645227200e-01 +9.1076196006322601e+00 +0.0000000000000000e+00 +1.0005104645049701e-01 +1.1210804304007225e-02 -1.0338245765211524e+00 -5.8873636818592943e-02
2.0010209290454301e-01 +9.1076180526189905e+00 +0.0000000000000000e+00 +2.0010209289035000e-01 +1.1210682270076492e-02 -1.0338262497043509e+00 -5.8873175920972617e-02
3.0015313935681498e-01 +9.1076154725992300e+00 +0.0000000000000000e+00 +3.0015313930891202e-01 +1.1210556996219530e-02 -1.0338276785477145e+00 -5.8872732254785787e-02
4.0020418580908601e-01 +9.1076118605712200e+00 +0.0000000000000000e+00 +4.0020418569554000e-01 +1.1210428225782462e-02 -1.0338288460754079e+00 -5.8872305878146285e-02
5.0025523226135804e-01 +9.1076072165331805e+00 +0.0000000000000000e+00 +5.0025523203958799e-01 +1.1210295702139429e-02 -1.0338297353123163e+00 -5.8871896849170893e-02
6.0030627871362996e-01 +9.1076015404886608e+00 +0.0000000000000000e+00 +6.0030627833041095e-01 +1.1210159297863134e-02 -1.0338303382881733e+00 -5.8871505267732258e-02
7.0035732516590099e-01 +9.1075948324376501e+00 +0.0000000000000000e+00 +7.0035732455736299e-01 +1.1210019398278995e-02 -1.0338306827749437e+00 -5.8871131399429920e-02
8.0040837161817302e-01 +9.1075870923766207e+00 +0.0000000000000000e+00 +8.0040837070980198e-01 +1.1209876515933574e-02 -1.0338308054120371e+00 -5.8870775550985292e-02
9.0045941807044405e-01 +9.1075783203073204e+00 +0.0000000000000000e+00 +9.0045941677707997e-01 +1.1209731163385733e-02 -1.0338307428387770e+00 -5.8870438029128898e-02
1.0005104645227201e+00 +9.1075685162297706e+00 +0.0000000000000000e+00 +1.0005104627485499e+00 +1.1209583853202858e-02 -1.0338305316942116e+00 -5.8870119140602646e-02
1.1005615109749900e+00 +9.1075576801457405e+00 +0.0000000000000000e+00 +1.1005615086135800e+00 +1.1209435097956902e-02 -1.0338302086169093e+00 -5.8869819192161117e-02
1.2006125574272599e+00 +9.1075458120516792e+00 +0.0000000000000000e+00 +1.2006125543615100e+00 +1.1209285410220673e-02 -1.0338298102447780e+00 -5.8869538490574080e-02
1.3006636038795301e+00 +9.1075329119511395e+00 +0.0000000000000000e+00 +1.3006635999817000e+00 +1.1209135302563565e-02 -1.0338293732148309e+00 -5.8869277342626529e-02
1.4007146503318000e+00 +9.1075189798405596e+00 +0.0000000000000000e+00 +1.4007146454635000e+00 +1.1208985287548075e-02 -1.0338289341630260e+00 -5.8869036055122170e-02
1.5007656967840699e+00 +9.1075040157234994e+00 +0.0000000000000000e+00 +1.5007656907962801e+00 +1.1208835877725502e-02 -1.0338285297240311e+00 -5.8868814934883336e-02
1.6008167432363500e+00 +9.1074880195981898e+00 +0.0000000000000000e+00 +1.6008167359693799e+00 +1.1208687585632374e-02 -1.0338281965310534e+00 -5.8868614288754055e-02
1.7008677896886200e+00 +9.1074709914646199e+00 +0.0000000000000000e+00 +1.7008677809721600e+00 +1.1208540923786365e-02 -1.0338279712156235e+00 -5.8868434423600811e-02
1.8009188361408901e+00 +9.1074529313228005e+00 +0.0000000000000000e+00 +1.8009188257939699e+00 +1.1208396404682412e-02 -1.0338278904074001e+00 -5.8868275646314541e-02
1.9009698825931600e+00 +9.1074338391727103e+00 +0.0000000000000000e+00 +1.9009698704241800e+00 +1.1208254540788869e-02 -1.0338279907339718e+00 -5.8868138263812139e-02
2.0010209290454299e+00 +9.1074137150161505e+00 +0.0000000000000000e+00 +2.0010209148521301e+00 +1.1208115844543494e-02 -1.0338283088206524e+00 -5.8868022583037964e-02
2.1010719754977001e+00 +9.1073925588495506e+00 +0.0000000000000000e+00 +2.1010719590671898e+00 +1.1207980828349770e-02 -1.0338288812902976e+00 -5.8867928910966309e-02
2.2011230219499698e+00 +9.1073703706746993e+00 +0.0000000000000000e+00 +2.2011230030586999e+00 +1.1207850004572716e-02 -1.0338297447630822e+00 -5.8867857554601728e-02
2.3011740684022501e+00 +9.1073471504933696e+00 +0.0000000000000000e+00 +2.3011740468160200e+00 +1.1207723885535112e-02 -1.0338309358563111e+00 -5.8867808820981408e-02
2.4012251148545198e+00 +9.1073228983037797e+00 +0.0000000000000000e+00 +2.4012250903285000e+00 +1.1207602983513696e-02 -1.0338324911842298e+00 -5.8867783017177121e-02
2.5012761613067900e+00 +9.1072976141041497e+00 +0.0000000000000000e+00 +2.5012761335854998e+00 +1.1207487810734771e-02 -1.0338344473577927e+00 -5.8867780450296434e-02
2.6013272077590601e+00 +9.1072712978980501e+00 +0.0000000000000000e+00 +2.6013271765763899e+00 +1.1207378677881573e-02 -1.0338368290029227e+00 -5.8867801394791315e-02
2.7013782542113298e+00 +9.1072439496836903e+00 +0.0000000000000000e+00 +2.7013782192905000e+00 +1.1207275119905522e-02 -1.0338396146157762e+00 -5.8867845999254972e-02
2.8014293006636000e+00 +9.1072155694610704e+00 +0.0000000000000000e+00 +2.8014292617172001e+00 +1.1207176485137938e-02 -1.0338427715931753e+00 -5.8867914381933110e-02
2.9014803471158799e+00 +9.1071861572302009e+00 +0.0000000000000000e+00 +2.9014803038458301e+00 +1.1207082121946738e-02 -1.0338462673318785e+00 -5.8868006660991415e-02
3.0015313935681500e+00 +9.1071557129910694e+00 +0.0000000000000000e+00 +3.0015313456657702e+00 +1.1206991378741061e-02 -1.0338500692287165e+00 -5.8868122954507038e-02
3.1015824400204202e+00 +9.1071242367454595e+00 +0.0000000000000000e+00 +3.1015823871663502e+00 +1.1206903603975808e-02 -1.0338541446807186e+00 -5.8868263380459779e-02
3.2016334864726899e+00 +9.1070917284915893e+00 +0.0000000000000000e+00 +3.2016334283369399e+00 +1.1206818146156414e-02 -1.0338584610852626e+00 -5.8868428056724209e-02
3.3016845329249600e+00 +9.1070581882277004e+00 +0.0000000000000000e+00 +3.3016844691668901e+00 +1.1206734353843364e-02 -1.0338629858401973e+00 -5.8868617101060602e-02
3.4017355793772301e+00 +9.1070236159573206e+00 +0.0000000000000000e+00 +3.4017355096455599e+00 +1.1206651575656668e-02 -1.0338676863439658e+00 -5.8868830631105908e-02
3.5017866258295101e+00 +9.1069880116786806e+00 +0.0000000000000000e+00 +3.5017865497623002e+00 +1.1206569160280727e-02 -1.0338725299957643e+00 -5.8869068764366254e-02
3.6018376722817802e+00 +9.1069513753917892e+00 +0.0000000000000000e+00 +3.6018375895064700e+00 +1.1206486456468791e-02 -1.0338774841956582e+00 -5.8869331618207739e-02
3.7018887187340499e+00 +9.1069137070966395e+00 +0.0000000000000000e+00 +3.7018886288674100e+00 +1.1206402813047618e-02 -1.0338825163447225e+00 -5.8869619309847986e-02
3.8019397651863200e+00 +9.1068750067950095e+00 +0.0000000000000000e+00 +3.8019396678344899e+00 +1.1206317578921999e-02 -1.0338875938451693e+00 -5.8869931956347314e-02
3.9019908116385902e+00 +9.1068352744833394e+00 +0.0000000000000000e+00 +3.9019907063970600e+00 +1.1206230103079591e-02 -1.0338926841004998e+00 -5.8870269674601135e-02
4.0020418580908599e+00 +9.1067945101634198e+00 +0.0000000000000000e+00 +4.0020417445444796e+00 +1.1206139734595265e-02 -1.0338977545156136e+00 -5.8870632581330115e-02
4.1020929045431300e+00 +9.1067527138370199e+00 +0.0000000000000000e+00 +4.1020927822660997e+00 +1.1206045822635801e-02 -1.0339027724969538e+00 -5.8871020793072167e-02
4.2021439509954099e+00 +9.1067098855023705e+00 +0.0000000000000000e+00 +4.2021438195512797e+00 +1.1205947716464659e-02 -1.0339077054526518e+00 -5.8871434426174409e-02
4.3021949974476801e+00 +9.1066660251594502e+00 +0.0000000000000000e+00 +4.3021948563893604e+00 +1.1205844765446393e-02 -1.0339125207926461e+00 -5.8871873596783864e-02
4.4022460438999502e+00 +9.1066211328065094e+00 +0.0000000000000000e+00 +4.4022458927697201e+00 +1.1205736319051396e-02 -1.0339171859288272e+00 -5.8872338420839401e-02
4.5022970903522204e+00 +9.1065752084488594e+00 +0.0000000000000000e+00 +4.5022969286816901e+00 +1.1205621726863199e-02 -1.0339216682752221e+00 -5.8872829014060886e-02
4.6023481368044896e+00 +9.1065282520811692e+00 +0.0000000000000000e+00 +4.6023479641146396e+00 +1.1205500597119625e-02 -1.0339259416471416e+00 -5.8873345384339831e-02
4.7023991832567598e+00 +9.1064802637070095e+00 +0.0000000000000000e+00 +4.7023989990579196e+00 +1.1205373503493451e-02 -1.0339300037552164e+00 -5.8873887137668494e-02
4.8024502297090397e+00 +9.1064312433245895e+00 +0.0000000000000000e+00 +4.8024500335008904e+00 +1.1205241244910204e-02 -1.0339338578865329e+00 -5.8874453786374847e-02
4.9025012761613098e+00 +9.1063811909321402e+00 +0.0000000000000000e+00 +4.9025010674329002e+00 +1.1205104620257571e-02 -1.0339375073287771e+00 -5.8875044842918986e-02
5.0025523226135800e+00 +9.1063301065332105e+00 +0.0000000000000000e+00 +5.0025521008432996e+00 +1.1204964428381535e-02 -1.0339409553702548e+00 -5.8875659819903114e-02
5.1026033690658501e+00 +9.1062779901260207e+00 +0.0000000000000000e+00 +5.1026031337214599e+00 +1.1204821468082948e-02 -1.0339442052999530e+00 -5.8876298230083474e-02
5.2026544155181202e+00 +9.1062248417123506e+00 +0.0000000000000000e+00 +5.2026541660567203e+00 +1.1204676538113580e-02 -1.0339472604075470e+00 -5.8876959586379757e-02
5.3027054619703904e+00 +9.1061706612886404e+00 +0.0000000000000000e+00 +5.3027051978384501e+00 +1.1204530437172632e-02 -1.0339501239834610e+00 -5.8877643401886816e-02
5.4027565084226703e+00 +9.1061154488584606e+00 +0.0000000000000000e+00 +5.4027562290559903e+00 +1.1204383963902702e-02 -1.0339527993188666e+00 -5.8878349189883911e-02
5.5028075548749404e+00 +9.1060592044200206e+00 +0.0000000000000000e+00 +5.5028072596986997e+00 +1.1204237916886402e-02 -1.0339552897057471e+00 -5.8879076463846637e-02
5.6028586013272097e+00 +9.1060019279733204e+00 +0.0000000000000000e+00 +5.6028582897559396e+00 +1.1204093094642428e-02 -1.0339575984369165e+00 -5.8879824737456815e-02
5.7029096477794798e+00 +9.1059436195183707e+00 +0.0000000000000000e+00 +5.7029093192170599e+00 +1.1203950295621917e-02 -1.0339597288060525e+00 -5.8880593524613237e-02
5.8029606942317500e+00 +9.1058842790551608e+00 +0.0000000000000000e+00 +5.8029603480714202e+00 +1.1203810318204718e-02 -1.0339616841077335e+00 -5.8881382339442324e-02
5.9030117406840201e+00 +9.1058239065854707e+00 +0.0000000000000000e+00 +5.9030113763083696e+00 +1.1203673960695651e-02 -1.0339634676374656e+00 -5.8882190696308540e-02
6.0030627871363000e+00 +9.1057625021075204e+00 +0.0000000000000000e+00 +6.0030624039172604e+00 +1.1203542021320885e-02 -1.0339650826917297e+00 -5.8883018109825609e-02
6.1031138335885702e+00 +9.1057000656213205e+00 +0.0000000000000000e+00 +6.1031134308874604e+00 +1.1203415298224145e-02 -1.0339665325680008e+00 -5.8883864094866525e-02
6.2031648800408403e+00 +9.1056365971268605e+00 +0.0000000000000000e+00 +6.2031644572083096e+00 +1.1203294589462986e-02 -1.0339678205647866e+00 -5.8884728166574384e-02
6.3032159264931096e+00 +9.1055720966241402e+00 +0.0000000000000000e+00 +6.3032154828691800e+00 +1.1203180693005115e-02 -1.0339689499816604e+00 -5.8885609840372992e-02
6.4032669729453797e+00 +9.1055065641149504e+00 +0.0000000000000000e+00 +6.4032665078594100e+00 +1.1203074406724607e-02 -1.0339699241192908e+00 -5.8886508631977363e-02
6.5033180193976499e+00 +9.1054399995957205e+00 +0.0000000000000000e+00 +6.5033175321683601e+00 +1.1202976528388874e-02 -1.0339707462795418e+00 -5.8887424057406212e-02
6.6033690658499298e+00 +9.1053724030699996e+00 +0.0000000000000000e+00 +6.6033685557853898e+00 +1.1202887567659366e-02 -1.0339714213675062e+00 -5.8888355668721429e-02
6.7034201123021999e+00 +9.1053037745378091e+00 +0.0000000000000000e+00 +6.7034195786998501e+00 +1.1202806991074761e-02 -1.0339719600912161e+00 -5.8889303147559614e-02
6.8034711587544701e+00 +9.1052341139955892e+00 +0.0000000000000000e+00 +6.8034706009011003e+00 +1.1202734029131743e-02 -1.0339723744717237e+00 -5.8890266204756798e-02
6.9035222052067402e+00 +9.1051634214468908e+00 +0.0000000000000000e+00 +6.9035216223784897e+00 +1.1202667912355862e-02 -1.0339726765298274e+00 -5.8891244551021418e-02
7.0035732516590103e+00 +9.1050916968899305e+00 +0.0000000000000000e+00 +7.0035726431213803e+00 +1.1202607871303203e-02 -1.0339728782860755e+00 -5.8892237896929253e-02
7.1036242981112796e+00 +9.1050189403247099e+00 +0.0000000000000000e+00 +7.1036236631191203e+00 +1.1202553136561546e-02 -1.0339729917607343e+00 -5.8893245952916687e-02
7.2036753445635497e+00 +9.1049451517530091e+00 +0.0000000000000000e+00 +7.2036746823610702e+00 +1.1202502938751658e-02 -1.0339730289737645e+00 -5.8894268429274206e-02
7.3037263910158297e+00 +9.1048703311712806e+00 +0.0000000000000000e+00 +7.3037257008365799e+00 +1.1202456508528847e-02 -1.0339730019448166e+00 -5.8895305036141134e-02
7.4037774374680998e+00 +9.1047944785830701e+00 +0.0000000000000000e+00 +7.4037767185350001e+00 +1.1202413076583945e-02 -1.0339729226931833e+00 -5.8896355483498010e-02
7.5038284839203699e+00 +9.1047175939865994e+00 +0.0000000000000000e+00 +7.5038277354457001e+00 +1.1202371873644972e-02 -1.0339728032378062e+00 -5.8897419481161582e-02
7.6038795303726401e+00 +9.1046396773836609e+00 +0.0000000000000000e+00 +7.6038787515580202e+00 +1.1202332130478240e-02 -1.0339726555972353e+00 -5.8898496738777777e-02
7.7039305768249102e+00 +9.1045607287706805e+00 +0.0000000000000000e+00 +7.7039297668613296e+00 +1.1202293077889908e-02 -1.0339724917896276e+00 -5.8899586965816299e-02
7.8039816232771804e+00 +9.1044807481512198e+00 +0.0000000000000000e+00 +7.8039807813449800e+00 +1.1202253946727013e-02 -1.0339723238327003e+00 -5.8900689871563126e-02
7.9040326697294496e+00 +9.1043997355235007e+00 +0.0000000000000000e+00 +7.9040317949983097e+00 +1.1202213967879085e-02 -1.0339721637437349e+00 -5.8901805165115534e-02
8.0040837161817304e+00 +9.1043176908892995e+00 +0.0000000000000000e+00 +8.0040828078106898e+00 +1.1202172372279306e-02 -1.0339720235395393e+00 -5.8902932555374987e-02
8.1041347626340006e+00 +9.1042346142468507e+00 +0.0000000000000000e+00 +8.1041338197714801e+00 +1.1202128390905985e-02 -1.0339719152364404e+00 -5.8904071751041544e-02
8.2041858090862707e+00 +9.1041505055961398e+00 +0.0000000000000000e+00 +8.2041848308700196e+00 +1.1202081254783782e-02 -1.0339718508502542e+00 -5.8905222460607129e-02
8.3042368555385409e+00 +9.1040653649371706e+00 +0.0000000000000000e+00 +8.3042358410956805e+00 +1.1202030194985077e-02 -1.0339718423962660e+00 -5.8906384392349478e-02
8.4042879019908092e+00 +9.1039791922699393e+00 +0.0000000000000000e+00 +8.4042868504377992e+00 +1.1201974442631310e-02 -1.0339719018892111e+00 -5.8907557254325754e-02
8.5043389484430794e+00 +9.1038919875980202e+00 +0.0000000000000000e+00 +8.5043378588857408e+00 +1.1201913228912041e-02 -1.0339720413429514e+00 -5.8908740754347419e-02
8.6043899948953602e+00 +9.1038037509160592e+00 +0.0000000000000000e+00 +8.6043888664288701e+00 +1.1201846033225243e-02 -1.0339722686660517e+00 -5.8909934339981804e-02
8.7044410413476303e+00 +9.1037144822276108e+00 +0.0000000000000000e+00 +8.7044398730565202e+00 +1.1201773206764281e-02 -1.0339725773461172e+00 -5.8911136545289934e-02
8.8044920877999004e+00 +9.1036241815309200e+00 +0.0000000000000000e+00 +8.8044908787580596e+00 +1.1201695291987293e-02 -1.0339729577048546e+00 -5.8912345704070543e-02
8.9045431342521706e+00 +9.1035328488259601e+00 +0.0000000000000000e+00 +8.9045418835228496e+00 +1.1201612831266064e-02 -1.0339734000629033e+00 -5.8913560150382113e-02
9.0045941807044407e+00 +9.1034404841127508e+00 +0.0000000000000000e+00 +9.0045928873402303e+00 +1.1201526366883414e-02 -1.0339738947398072e+00 -5.8914778218551241e-02
9.1046452271567109e+00 +9.1033470873930593e+00 +0.0000000000000000e+00 +9.1046438901995597e+00 +1.1201436441030534e-02 -1.0339744320539781e+00 -5.8915998243180348e-02
9.2046962736089899e+00 +9.1032526586651095e+00 +0.0000000000000000e+00 +9.2046948920902096e+00 +1.1201343595804471e-02 -1.0339750023226786e+00 -5.8917218559156326e-02
9.3047473200612600e+00 +9.1031571979306793e+00 +0.0000000000000000e+00 +9.3047458930015097e+00 +1.1201248373205325e-02 -1.0339755958619701e+00 -5.8918437501657719e-02
9.4047983665135302e+00 +9.1030607051879997e+00 +0.0000000000000000e+00 +9.4047968929228301e+00 +1.1201151315133780e-02 -1.0339762029867003e+00 -5.8919653406163598e-02
9.5048494129658003e+00 +9.1029631804370599e+00 +0.0000000000000000e+00 +9.5048478918435304e+00 +1.1201052963388322e-02 -1.0339768140104588e+00 -5.8920864608460896e-02
9.6049004594180705e+00 +9.1028646236796291e+00 +0.0000000000000000e+00 +9.6048988897529508e+00 +1.1200953859662613e-02 -1.0339774192455449e+00 -5.8922069444652551e-02
9.7049515058703406e+00 +9.1027650349139595e+00 +0.0000000000000000e+00 +9.7049498866404598e+00 +1.1200854545542952e-02 -1.0339780090029453e+00 -5.8923266251165923e-02
9.8050025523226108e+00 +9.1026644141418007e+00 +0.0000000000000000e+00 +9.8050008824953991e+00 +1.1200755562505485e-02 -1.0339785735922911e+00 -5.8924453364760279e-02
9.9050535987748898e+00 +9.1025627613596107e+00 +0.0000000000000000e+00 +9.9050518773071392e+00 +1.1200657451913759e-02 -1.0339791033218433e+00 -5.8925629122535655e-02
1.0005104645227201e+01 +9.1024600765709298e+00 +0.0000000000000000e+00 +1.0005102871065001e+01 +1.1200560755015765e-02 -1.0339795884984329e+00 -5.8926791861939450e-02
1.0105155691679400e+01 +9.1023563597757793e+00 +0.0000000000000000e+00 +1.0105153863758400e+01 +1.1200466012941543e-02 -1.0339800194274527e+00 -5.8927939920775822e-02
1.0205206738131700e+01 +9.1022516109723703e+00 +0.0000000000000000e+00 +1.0205204855376600e+01 +1.1200373766700512e-02 -1.0339803864128247e+00 -5.8929071637213358e-02
1.0305257784584001e+01 +9.1021458301607101e+00 +0.0000000000000000e+00 +1.0305255845909100e+01 +1.1200284557178704e-02 -1.0339806797569551e+00 -5.8930185349792788e-02
1.0405308831036200e+01 +9.1020390173425607e+00 +0.0000000000000000e+00 +1.0405306835345099e+01 +1.1200198925136106e-02 -1.0339808897607086e+00 -5.8931279397435088e-02
1.0505359877488500e+01 +9.1019311725161600e+00 +0.0000000000000000e+00 +1.0505357823674100e+01 +1.1200117411178196e-02 -1.0339810067239528e+00 -5.8932352119547601e-02
1.0605410923940800e+01 +9.1018222956832808e+00 +0.0000000000000000e+00 +1.0605408810885301e+01 +1.1200040358219558e-02 -1.0339810252779336e+00 -5.8933402598813002e-02
1.0705461970393101e+01 +9.1017123868421397e+00 +0.0000000000000000e+00 +1.0705459796968199e+01 +1.1199967435864121e-02 -1.0339809548209853e+00 -5.8934432449637399e-02
1.0805513016845300e+01 +9.1016014459927401e+00 +0.0000000000000000e+00 +1.0805510781912000e+01 +1.1199898170553871e-02 -1.0339808078976669e+00 -5.8935443824613486e-02
1.0905564063297600e+01 +9.1014894731368603e+00 +0.0000000000000000e+00 +1.0905561765706199e+01 +1.1199832088895315e-02 -1.0339805970562388e+00 -5.8936438875566995e-02
1.1005615109749900e+01 +9.1013764682745109e+00 +0.0000000000000000e+00 +1.1005612748340100e+01 +1.1199768717663847e-02 -1.0339803348487642e+00 -5.8937419753537890e-02
1.1105666156202100e+01 +9.1012624314038906e+00 +0.0000000000000000e+00 +1.1105663729803000e+01 +1.1199707583808094e-02 -1.0339800338311984e+00 -5.8938388608761452e-02
1.1205717202654400e+01 +9.1011473625250208e+00 +0.0000000000000000e+00 +1.1205714710084401e+01 +1.1199648214454098e-02 -1.0339797065634728e+00 -5.8939347590648637e-02
1.1305768249106700e+01 +9.1010312616396707e+00 +0.0000000000000000e+00 +1.1305765689173500e+01 +1.1199590136909675e-02 -1.0339793656095841e+00 -5.8940298847767171e-02
1.1405819295559001e+01 +9.1009141287460693e+00 +0.0000000000000000e+00 +1.1405816667059700e+01 +1.1199532878668834e-02 -1.0339790235376962e+00 -5.8941244527822921e-02
1.1505870342011200e+01 +9.1007959638459806e+00 +0.0000000000000000e+00 +1.1505867643732399e+01 +1.1199475967415929e-02 -1.0339786929202182e+00 -5.8942186777640064e-02
1.1605921388463500e+01 +9.1006767669376405e+00 +0.0000000000000000e+00 +1.1605918619181001e+01 +1.1199418931030172e-02 -1.0339783863339074e+00 -5.8943127743142774e-02
1.1705972434915800e+01 +9.1005565380228095e+00 +0.0000000000000000e+00 +1.1705969593394700e+01 +1.1199361297589755e-02 -1.0339781163599462e+00 -5.8944069569335303e-02
1.1806023481367999e+01 +9.1004352770997308e+00 +0.0000000000000000e+00 +1.1806020566362900e+01 +1.1199302595376380e-02 -1.0339778955840471e+00 -5.8945014400283699e-02
