# multipoles
# s[mm] polynom_b[n=0][T/m^n] polynom_b[n=1][T/m^n] polynom_b[n=2][T/m^n] polynom_b[n=3][T/m^n] polynom_b[n=4][T/m^n] polynom_b[n=5][T/m^n] polynom_b[n=6][T/m^n] 
+0.0000000000000000e+00 -1.0330160782696418e+00 +2.3194810495335405e+00 +2.0480522928958866e+01 -7.3446975820402076e+02 -1.4133385869479358e+04 +4.7469391070220973e+06 +1.2833837442579609e+08 
-1.0000000000000001e-01 -1.0330195542199816e+00 +2.3196726279664817e+00 +2.0466072608513805e+01 -7.3679515094218573e+02 -1.4085351295294360e+04 +4.7445875684213024e+06 +1.2873747432791702e+08 
-2.0000000000000001e-01 -1.0330229760359460e+00 +2.3198450980453948e+00 +2.0444100910702279e+01 -7.3845371281226312e+02 -1.3883208231381752e+04 +4.7382937533550616e+06 +1.2831042900119549e+08 
-3.0000000000000004e-01 -1.0330263436459597e+00 +2.3199993362011662e+00 +2.0415135790460610e+01 -7.3946720287519418e+02 -1.3537236481738362e+04 +4.7282151847101832e+06 +1.2710788714180011e+08 
-4.0000000000000002e-01 -1.0330296569784070e+00 +2.3201362188856711e+00 +2.0379705206032501e+01 -7.3985738110096167e+02 -1.3057716136347175e+04 +4.7145093944738694e+06 +1.2518049987883060e+08 
-5.0000000000000000e-01 -1.0330329159617337e+00 +2.3202566225743686e+00 +2.0338337131034514e+01 -7.3964600843439553e+02 -1.2454927795450469e+04 +4.6973339239073247e+06 +1.2257892179410852e+08 
-5.9999999999999998e-01 -1.0330361205243463e+00 +2.3203614237387451e+00 +2.0291559540654646e+01 -7.3885484588573263e+02 -1.1739152292496196e+04 +4.6768463177476721e+06 +1.1935380953469336e+08 
-6.9999999999999996e-01 -1.0330392705947251e+00 +2.3204514988675737e+00 +2.0239900426033444e+01 -7.3750565517004873e+02 -1.0920670969794701e+04 +4.6532041278041033e+06 +1.1555582310128105e+08 
-7.9999999999999993e-01 -1.0330423661013488e+00 +2.3205277244410762e+00 +2.0183887784048302e+01 -7.3562019784411098e+02 -1.0009765473369864e+04 +4.6265649074174501e+06 +1.1123562480935341e+08 
-8.9999999999999991e-01 -1.0330454069727510e+00 +2.3205909769397421e+00 +2.0124049622724648e+01 -7.3322023556486920e+02 -9.0167178421941408e+03 +4.5970862127905358e+06 +1.0644387964608242e+08 
-9.9999999999999989e-01 -1.0330483931375156e+00 +2.3206421328255464e+00 +2.0060913961817715e+01 -7.3032752946389178e+02 -7.9518105231613499e+03 +4.5649255989235919e+06 +1.0123125532412313e+08 
-1.0999999999999999e+00 -1.0330513245242625e+00 +2.3206820685444756e+00 +1.9995008828962973e+01 -7.2696384018547406e+02 -6.8253262831145621e+03 +4.5302406195450816e+06 +9.5648421788796142e+07 
-1.2000000000000000e+00 -1.0330542010616945e+00 +2.3207116605212135e+00 +1.9926862266054240e+01 -7.2315092768449711e+02 -5.6475483293172410e+03 +4.4931888256112756e+06 +8.9746051762286633e+07 
-1.3000000000000000e+00 -1.0330570226785425e+00 +2.3207317851467919e+00 +1.9857002320492885e+01 -7.1891055081386719e+02 -4.4287601239531887e+03 +4.4539277625593338e+06 +8.3574819773816109e+07 
-1.4000000000000001e+00 -1.0330597893036484e+00 +2.3207433187809365e+00 +1.9785957056801148e+01 -7.1426446735182742e+02 -3.1792456162981484e+03 +4.4126149701635903e+06 +7.7185403268410906e+07 
-1.5000000000000002e+00 -1.0330625008659038e+00 +2.3207471377380764e+00 +1.9714254546027448e+01 -7.0923443354420397e+02 -1.9092890141741073e+03 +4.3694079794891933e+06 +7.0628481410029724e+07 
-1.6000000000000003e+00 -1.0330651576621572e+00 +2.3207438957762787e+00 +1.9642339407432932e+01 -7.0384013715629987e+02 -6.2750312827797336e+02 +4.3244482725136336e+06 +6.3946855477349848e+07 
-1.7000000000000004e+00 -1.0330677614642421e+00 +2.3207334018917849e+00 +1.9570326924494140e+01 -6.9809379864022412e+02 +6.6413970498382650e+02 +4.2778170273887822e+06 +5.7152145332440495e+07 
-1.8000000000000005e+00 -1.0330703144138009e+00 +2.3207152651196323e+00 +1.9498251156592595e+01 -6.9200597103020050e+02 +1.9653158666381757e+03 +4.2295812739827195e+06 +5.0248259300420702e+07 
-1.9000000000000006e+00 -1.0330728186523959e+00 +2.3206890944851266e+00 +1.9426146160106455e+01 -6.8558720723851570e+02 +3.2757017271369727e+03 +4.1798080424591363e+06 +4.3239105937926255e+07 
-2.0000000000000004e+00 -1.0330752763215747e+00 +2.3206544990059772e+00 +1.9354045993873488e+01 -6.7884806016484856e+02 +4.5949735740433453e+03 +4.1285643639484253e+06 +3.6128594259150021e+07 
-2.1000000000000005e+00 -1.0330776895627034e+00 +2.3206110876856467e+00 +1.9281984701049797e+01 -6.7179908253770714e+02 +5.9228079592744116e+03 +4.0759172695996272e+06 +2.8920632042281888e+07 
-2.2000000000000006e+00 -1.0330800605171031e+00 +2.3205584695232466e+00 +1.9209996324505077e+01 -6.6445082719501511e+02 +7.2588814261726829e+03 +4.0219337920548171e+06 +2.1619127046937730e+07 
-2.3000000000000007e+00 -1.0330823913259140e+00 +2.3204962535074931e+00 +1.9138114891636306e+01 -6.5681384696214411e+02 +8.6028708075480135e+03 +3.9666809647664540e+06 +1.4227985534348518e+07 
-2.4000000000000008e+00 -1.0330846841301555e+00 +2.3204240486184382e+00 +1.9066374420280326e+01 -6.4889869471827603e+02 +9.9544531353925504e+03 +3.9102258222931530e+06 +6.7511126097554984e+06 
-2.5000000000000009e+00 -1.0330869410706991e+00 +2.3203414638345334e+00 +1.8994808917604377e+01 -6.4071592362251658e+02 +1.1313305667718989e+04 +3.8526354015438361e+06 -8.0758795836981863e+05 
-2.6000000000000010e+00 -1.0330891642882059e+00 +2.3202481081269815e+00 +1.8923452370744982e+01 -6.3227608698045310e+02 +1.2679106087378528e+04 +3.7939767409685031e+06 -8.4442147679693867e+06 
-2.7000000000000011e+00 -1.0330913559232038e+00 +2.3201435904592667e+00 +1.8852338757593031e+01 -6.2358973825582552e+02 +1.4051532305689982e+04 +3.7343168805522588e+06 -1.6154867905286692e+07 
-2.8000000000000012e+00 -1.0330935181159568e+00 +2.3200275197957572e+00 +1.8781502030174998e+01 -6.1466743134528394e+02 +1.5430262800059116e+04 +3.6737228633593321e+06 -2.3935650644630741e+07 
-2.9000000000000012e+00 -1.0330956530065363e+00 +2.3198995050951319e+00 +1.8710976124288667e+01 -6.0551972041054023e+02 +1.6814976434357861e+04 +3.6122617344963518e+06 -3.1782668630712453e+07 
-3.0000000000000013e+00 -1.0330977627347899e+00 +2.3197591553152765e+00 +1.8640794955190856e+01 -5.9615716004910530e+02 +1.8205352567921957e+04 +3.5500005420478228e+06 -3.9692030508219860e+07 
-3.1000000000000014e+00 -1.0330998494402892e+00 +2.3196060794180857e+00 +1.8570992411893037e+01 -5.8659030545624910e+02 +1.9601071167649072e+04 +3.4870063379599103e+06 -4.7659848492260389e+07 
-3.2000000000000015e+00 -1.0331019152623568e+00 +2.3194398863506973e+00 +1.8501602360034159e+01 -5.7682971190863429e+02 +2.1001812773707999e+04 +3.4233461749774702e+06 -5.5682238292536281e+07 
-3.3000000000000016e+00 -1.0331039623400518e+00 +2.3192601850778858e+00 +1.8432658641117406e+01 -5.6688593573371156e+02 +2.2407258524512712e+04 +3.3590871122413729e+06 -6.3755319296295218e+07 
-3.4000000000000017e+00 -1.0331059928120976e+00 +2.3190665845531631e+00 +1.8364195062745978e+01 -5.5676953347512335e+02 +2.3817090361887535e+04 +3.2942962103168988e+06 -7.1875215624766052e+07 
-3.5000000000000018e+00 -1.0331080088169495e+00 +2.3188586937454261e+00 +1.8296245408609032e+01 -5.4649106274512667e+02 +2.5230990843665550e+04 +3.2290405364771951e+06 -8.0038055259661525e+07 
-3.6000000000000019e+00 -1.0331100127038844e+00 +2.3186363781786405e+00 +1.8228929814512092e+01 -5.3606637198579119e+02 +2.6646861110810685e+04 +3.1634225982968602e+06 -8.8231476341233686e+07 
-3.7000000000000020e+00 -1.0331120078233922e+00 +2.3184004411810806e+00 +1.8162725547261864e+01 -5.2553029058654261e+02 +2.8055240644217924e+04 +3.0976761572752371e+06 -9.6408389147591963e+07 
-3.8000000000000020e+00 -1.0331139978178696e+00 +2.3181518981162270e+00 +1.8098202641646907e+01 -5.1492183976616343e+02 +2.9444757414933483e+04 +3.0320652606440829e+06 -1.0451277280398299e+08 
-3.9000000000000021e+00 -1.0331159863298083e+00 +2.3178917641809456e+00 +1.8035931154979984e+01 -5.0428003451103143e+02 +3.0804038999339300e+04 +2.9668539109577462e+06 -1.1248860521809122e+08 
-4.0000000000000018e+00 -1.0331179770019276e+00 +2.3176210543981690e+00 +1.7976481185612382e+01 -4.9364388324567079e+02 +3.2121712220302481e+04 +2.9023060631051385e+06 -1.2027986134425376e+08 
-4.1000000000000014e+00 -1.0331199734771004e+00 +2.3173407835980706e+00 +1.7920422862146268e+01 -4.8305238718483940e+02 +3.3386403366123508e+04 +2.8386856199511364e+06 -1.2783051428651716e+08 
-4.2000000000000011e+00 -1.0331219793984039e+00 +2.3170519664258378e+00 +1.7868326350390586e+01 -4.7254454045119547e+02 +3.4586738059065574e+04 +2.7762564323928542e+06 -1.3508453470047608e+08 
-4.3000000000000007e+00 -1.0331239984091458e+00 +2.3167556173132597e+00 +1.7820761857843877e+01 -4.6215932914645265e+02 +3.5711341163963662e+04 +2.7152822933740015e+06 -1.4198589036529276e+08 
-4.4000000000000004e+00 -1.0331260341528419e+00 +2.3164527504842134e+00 +1.7778299630243691e+01 -4.5193573139509044e+02 +3.6748836867326223e+04 +2.6560269374756133e+06 -1.4847854662644753e+08 
-4.5000000000000000e+00 -1.0331280902732831e+00 +2.3161443799319712e+00 +1.7741509960748576e+01 -4.4191271660574432e+02 +3.7687848493713893e+04 +2.5987540361078987e+06 -1.5450646551554933e+08 
-4.5999999999999996e+00 -1.0331301704145572e+00 +2.3158315194173547e+00 +1.7710963192426028e+01 -4.3212924527616480e+02 +3.8516998471058338e+04 +2.5437271956488867e+06 -1.6001360565012300e+08 
-4.6999999999999993e+00 -1.0331322782209933e+00 +2.3155151824566840e+00 +1.7687229712306362e+01 -4.2262426857152394e+02 +3.9224908437612175e+04 +2.4912099544864828e+06 -1.6494392274811086e+08 
-4.7999999999999989e+00 -1.0331344173372319e+00 +2.3151963823117372e+00 +1.7670879959956522e+01 -4.1343672789946851e+02 +3.9800199085453140e+04 +2.4414657798552550e+06 -1.6924136892800653e+08 
-4.8999999999999986e+00 -1.0331365914082826e+00 +2.3148761319833917e+00 +1.7662484435176601e+01 -4.0460555464788109e+02 +4.0231490013352777e+04 +2.3947580657865340e+06 -1.7284989202937588e+08 
-4.9999999999999982e+00 -1.0331388040794494e+00 +2.3145554441903684e+00 +1.7662613688502649e+01 -3.9616966943453161e+02 +4.0507399914828580e+04 +2.3513501280523650e+06 -1.7571343655412248e+08 
-5.0999999999999979e+00 -1.0331410589964045e+00 +2.3142353313756510e+00 +1.7671838331393381e+01 -3.8816798220683012e+02 +4.0616546380271779e+04 +2.3115052041907869e+06 -1.7777594273903501e+08 
-5.1999999999999975e+00 -1.0331433598051949e+00 +2.3139168056847086e+00 +1.7690729037271286e+01 -3.8063939149862750e+02 +4.0547545882233178e+04 +2.2754864485570034e+06 -1.7898134652442238e+08 
-5.2999999999999972e+00 -1.0331457101522712e+00 +2.3136008789566755e+00 +1.7719856544635082e+01 -3.7362278406739756e+02 +4.0289013719104827e+04 +2.2435569296151083e+06 -1.7927357931706738e+08 
-5.3999999999999968e+00 -1.0331481136844924e+00 +2.3132885627217061e+00 +1.7759791659275368e+01 -3.6715703471107116e+02 +3.9829563972602125e+04 +2.2159796282407050e+06 -1.7859656781514212e+08 
-5.4999999999999964e+00 -1.0331505740490741e+00 +2.3129808681410604e+00 +1.7811105241207482e+01 -3.6128100392892873e+02 +3.9157809852137601e+04 +2.1930174204574353e+06 -1.7689423613129559e+08 
-5.5999999999999961e+00 -1.0331530949740941e+00 +2.3126783821090968e+00 +1.7874222661728854e+01 -3.5601783834007364e+02 +3.8265503094582251e+04 +2.1748263717859713e+06 -1.7412658637900794e+08 
-5.6999999999999957e+00 -1.0331556801717976e+00 +2.3123802821494461e+00 +1.7948965510837020e+01 -3.5133506854339265e+02 +3.7156919960650230e+04 +2.1611794683684302e+06 -1.7031588456608674e+08 
-5.7999999999999954e+00 -1.0331583332463512e+00 +2.3120854623906197e+00 +1.8034995094126497e+01 -3.4718792689847737e+02 +3.5839543476605169e+04 +2.1517632223379924e+06 -1.6549988912823066e+08 
-5.8999999999999950e+00 -1.0331610578015571e+00 +2.3117928170937221e+00 +1.8131972674119005e+01 -3.4353165171841027e+02 +3.4320857350897015e+04 +2.1462641906308765e+06 -1.5971636075478131e+08 
-5.9999999999999947e+00 -1.0331638574409352e+00 +2.3115012406435080e+00 +1.8239559484046016e+01 -3.4032148743232852e+02 +3.2608345705878484e+04 +2.1443689776109052e+06 -1.5300306109308192e+08 
-6.0999999999999943e+00 -1.0331667357677288e+00 +2.3112096275547822e+00 +1.8357416728450353e+01 -3.3751268487901058e+02 +3.0709493059322140e+04 +2.1457642374207643e+06 -1.4539775259648803e+08 
-6.1999999999999940e+00 -1.0331696963848238e+00 +2.3109168724907545e+00 +1.8485205572745876e+01 -3.3506050200413841e+02 +2.8631784520607285e+04 +2.1501366788202072e+06 -1.3693819941295725e+08 
-6.2999999999999936e+00 -1.0331727428947972e+00 +2.3106218702580179e+00 +1.8622587149551926e+01 -3.3292020382486311e+02 +2.6382705657900413e+04 +2.1571730656372122e+06 -1.2766216667513248e+08 
-6.3999999999999932e+00 -1.0331758788998606e+00 +2.3103235158361115e+00 +1.8769222550576949e+01 -3.3104706346253448e+02 +2.3969742651401099e+04 +2.1665602236014279e+06 -1.1760742118373172e+08 
-6.4999999999999929e+00 -1.0331791080019039e+00 +2.3100207043681267e+00 +1.8924772833348332e+01 -3.2939636198666983e+02 +2.1400382151679831e+04 +2.1779850400871043e+06 -1.0681173065666501e+08 
-6.5999999999999925e+00 -1.0331824338023878e+00 +2.3097123311857892e+00 +1.9088899006117618e+01 -3.2792338928345572e+02 +1.8682111568577660e+04 +2.1911344699129891e+06 -9.5312865065307811e+07 
-6.6999999999999922e+00 -1.0331858599023933e+00 +2.3093972918095802e+00 +1.9261262034686883e+01 -3.2658344421175548e+02 +1.5822418929546990e+04 +2.2056955370010743e+06 -8.3148595886099175e+07 
-6.7999999999999918e+00 -1.0331893899026316e+00 +2.3090744819672699e+00 +1.9441522843901179e+01 -3.2533183527012824e+02 +1.2828792843101965e+04 +2.2213553389547095e+06 -7.0356695863612533e+07 
-6.8999999999999915e+00 -1.0331930274033501e+00 +2.3087427975928003e+00 +1.9629342304411484e+01 -3.2412388070087354e+02 +9.7087227498102293e+03 +2.2378010483864774e+06 -5.6974940157894664e+07 
-6.9999999999999911e+00 -1.0331967760043805e+00 +2.3084011348462155e+00 +1.9824381239940642e+01 -3.2291490921879722e+02 +6.4696987713392873e+03 +2.2547199179148958e+06 -4.3041105553165972e+07 
-7.0999999999999908e+00 -1.0332006393050974e+00 +2.3080483901172468e+00 +2.0026300421069315e+01 -3.2166026024701273e+02 +3.1192118276218730e+03 +2.2717992822339549e+06 -2.8592970968809448e+07 
-7.1999999999999904e+00 -1.0332046209044248e+00 +2.3076834600436555e+00 +2.0234760566402066e+01 -3.2031528460095927e+02 -3.3524639836712055e+02 +2.2887265628606118e+06 -1.3668317214148387e+07 
-7.2999999999999901e+00 -1.0332087244007973e+00 +2.3073052415088227e+00 +2.0449422337194950e+01 -3.1883534453323585e+02 -3.8861833603697155e+03 +2.3051892690506037e+06 +1.6950725819954376e+06 
-7.3999999999999897e+00 -1.0332129533921517e+00 +2.3069126316647650e+00 +2.0669946336137112e+01 -3.1717581457144934e+02 -7.5261056304212252e+03 +2.3208750034782458e+06 +1.7459412937237490e+07 
-7.4999999999999893e+00 -1.0332173114759982e+00 +2.3065045279702741e+00 +2.0895993122511722e+01 -3.1529208290193452e+02 -1.1247519253001903e+04 +2.3354714736732356e+06 +3.3586918140102744e+07 
-7.5999999999999890e+00 -1.0332217996026150e+00 +2.3060803421433747e+00 +2.1127137873271113e+01 -3.1315109788965498e+02 -1.5042056799429709e+04 +2.3487309936393811e+06 +5.0037215452860877e+07 
-7.6999999999999886e+00 -1.0332264083494471e+00 +2.3056413714884831e+00 +2.1362599192716214e+01 -3.1076230229588242e+02 -1.8897449083044627e+04 +2.3606432910390981e+06 +6.6756908811677158e+07 
-7.7999999999999883e+00 -1.0332311257628337e+00 +2.3051893469848732e+00 +2.1601504803242630e+01 -3.0814498356746321e+02 -2.2800391225470139e+04 +2.3712534933487056e+06 +8.3688892226630718e+07 
-7.8999999999999879e+00 -1.0332359398893622e+00 +2.3047260000604104e+00 +2.1842982402699150e+01 -3.0531844253711506e+02 -2.6737577419138077e+04 +2.3806068133164239e+06 +1.0077605397189113e+08 
-7.9999999999999876e+00 -1.0332408387759160e+00 +2.3042530626186744e+00 +2.2086159667150806e+01 -3.0230199408941439e+02 -3.0695700970703871e+04 +2.3887485514193061e+06 +1.1796127689095975e+08 
-8.0999999999999872e+00 -1.0332458104696440e+00 +2.3037722670527088e+00 +2.2330164245449645e+01 -2.9911496752199997e+02 -3.4661454183811999e+04 +2.3957240979944174e+06 +1.3518743780248997e+08 
-8.1999999999999869e+00 -1.0332508430180407e+00 +2.3032853462540763e+00 +2.2574123767969915e+01 -2.9577670681678899e+02 -3.8621528513327292e+04 +2.4015789350074031e+06 +1.5239740819865015e+08 
-8.2999999999999865e+00 -1.0332559244688282e+00 +2.3027940336305042e+00 +2.2817165828065740e+01 -2.9230657110789048e+02 -4.2562614185241342e+04 +2.4063586387799294e+06 +1.6953405236309880e+08 
-8.3999999999999861e+00 -1.0332610428701123e+00 +2.3023000631230830e+00 +2.3058418001075303e+01 -2.8872393519562348e+02 -4.6471400551580991e+04 +2.4101088831863152e+06 +1.8654022904069081e+08 
-8.4999999999999858e+00 -1.0332661862702934e+00 +2.3018051692155903e+00 +2.3297007831061666e+01 -2.8504818979148706e+02 -5.0334575823444466e+04 +2.4128754411579240e+06 +2.0335879012853697e+08 
-8.5999999999999854e+00 -1.0332713427181273e+00 +2.3013110869560269e+00 +2.3532062835245739e+01 -2.8129874213387768e+02 -5.4138827129451005e+04 +2.4147041883774516e+06 +2.1993258088204855e+08 
-8.6999999999999851e+00 -1.0332765002627227e+00 +2.3008195519597714e+00 +2.3762710503186653e+01 -2.7749501605429953e+02 -5.7870840495410026e+04 +2.4156411037529432e+06 +2.3620443980389991e+08 
-8.7999999999999847e+00 -1.0332816469535373e+00 +2.3003323004380229e+00 +2.3988078292933135e+01 -2.7365645280526650e+02 -6.1517300744575979e+04 +2.4157322743867654e+06 +2.5211719809837750e+08 
-8.8999999999999844e+00 -1.0332867708404099e+00 +2.2998510692005549e+00 +2.4207293634320084e+01 -2.6980251111850754e+02 -6.5064891557147748e+04 +2.4150238960116357e+06 +2.6761367994627962e+08 
-8.9999999999999840e+00 -1.0332918599735836e+00 +2.2993775956800691e+00 +2.4419483928928454e+01 -2.6595266789956003e+02 -6.8500295442046467e+04 +2.4135622771305190e+06 +2.8263670229367763e+08 
-9.0999999999999837e+00 -1.0332969024036813e+00 +2.2989136179373917e+00 +2.4623776544817591e+01 -2.6212641836669263e+02 -7.1810193623924686e+04 +2.4113938399593658e+06 +2.9712907427940059e+08 
-9.1999999999999833e+00 -1.0333018861817369e+00 +2.2984608746823949e+00 +2.4819298819733135e+01 -2.5834327664015626e+02 -7.4981266093629471e+04 +2.4085651239492469e+06 +3.1103359744789523e+08 
-9.2999999999999829e+00 -1.0333067993592071e+00 +2.2980211052859372e+00 +2.5005178059066044e+01 -2.5462277607809557e+02 -7.8000191545165755e+04 +2.4051227878564615e+06 +3.2429306537970734e+08 
-9.3999999999999826e+00 -1.0333116299879936e+00 +2.2975960497947039e+00 +2.5180541537529486e+01 -2.5098446969864108e+02 -8.0853647398738263e+04 +2.4011136123302667e+06 +3.3685026378119349e+08 
-9.4999999999999822e+00 -1.0333163661204186e+00 +2.2971874489625583e+00 +2.5344516493360295e+01 -2.4744793187939945e+02 -8.3528309735902279e+04 +2.3965845189525038e+06 +3.4864797097413433e+08 
-9.5999999999999819e+00 -1.0333209977190654e+00 +2.2967966165534723e+00 +2.5496420790298483e+01 -2.4402748642617951e+02 -8.6013807225381330e+04 +2.3915755040350473e+06 +3.5964178825714135e+08 
-9.6999999999999815e+00 -1.0333255229084692e+00 +2.2964229565355136e+00 +2.5636462247204761e+01 -2.4071443551718485e+02 -8.8313734096756598e+04 +2.3860872733572768e+06 +3.6984708255696374e+08 
-9.7999999999999812e+00 -1.0333299420202879e+00 +2.2960653314950403e+00 +2.5765109753020756e+01 -2.3749372957103668e+02 -9.0435833096238755e+04 +2.3801084685544493e+06 +3.7929685877997798e+08 
-9.8999999999999808e+00 -1.0333342553864844e+00 +2.2957226035257499e+00 +2.5882832305918033e+01 -2.3435030372330749e+02 -9.2387849652921272e+04 +2.3736276325091850e+06 +3.8802413641474348e+08 
-9.9999999999999805e+00 -1.0333384633390714e+00 +2.2953936343517984e+00 +2.5990098961555791e+01 -2.3126907964565885e+02 -9.4177530969932923e+04 +2.3666332163634147e+06 +3.9606194545496458e+08 
-1.0099999999999980e+01 -1.0333425662100768e+00 +2.2950772853007662e+00 +2.6087378829816419e+01 -2.2823496466138201e+02 -9.5812625981609075e+04 +2.3591135738912402e+06 +4.0344332625177330e+08 
