# trajectory
# s[mm] rx[mm] ry[mm] rz[mm] px[rad] py[rad] pz[rad]
0.0000000000000000e+00 +9.1047999999999991e+00 +0.0000000000000000e+00 +0.0000000000000000e+00 +0.0000000000000000e+00 +0.0000000000000000e+00 +1.0000000000000000e+00
-1.0000000000000001e-01 +9.1047994838467847e+00 +0.0000000000000000e+00 -9.9999999998223912e-02 +1.0323070550880865e-05 +0.0000000000000000e+00 +9.9999999994671707e-01
-2.0000000000000001e-01 +9.1047979353846422e+00 +0.0000000000000000e+00 -1.9999999998579121e-01 +2.0646178512224837e-05 +0.0000000000000000e+00 +9.9999999978686760e-01
-3.0000000000000004e-01 +9.1047953546098430e+00 +0.0000000000000000e+00 -2.9999999995204518e-01 +3.0969323642340379e-05 +0.0000000000000000e+00 +9.9999999952045049e-01
-4.0000000000000002e-01 +9.1047917415186816e+00 +0.0000000000000000e+00 -3.9999999988632901e-01 +4.1292505720841733e-05 +0.0000000000000000e+00 +9.9999999914746451e-01
-5.0000000000000000e-01 +9.1047870961074739e+00 +0.0000000000000000e+00 -4.9999999977798576e-01 +5.1615724548645080e-05 +0.0000000000000000e+00 +9.9999999866790856e-01
-5.9999999999999998e-01 +9.1047814183725535e+00 +0.0000000000000000e+00 -5.9999999961635830e-01 +6.1938979947964492e-05 +0.0000000000000000e+00 +9.9999999808178142e-01
-6.9999999999999996e-01 +9.1047747083102717e+00 +0.0000000000000000e+00 -6.9999999939078961e-01 +7.2262271762307584e-05 +0.0000000000000000e+00 +9.9999999738908207e-01
-7.9999999999999993e-01 +9.1047669659169923e+00 +0.0000000000000000e+00 -7.9999999909062225e-01 +8.2585599856470969e-05 +0.0000000000000000e+00 +9.9999999658980943e-01
-8.9999999999999991e-01 +9.1047581911890951e+00 +0.0000000000000000e+00 -8.9999999870519898e-01 +9.2908964116535439e-05 +0.0000000000000000e+00 +9.9999999568396225e-01
-9.9999999999999989e-01 +9.1047483841229671e+00 +0.0000000000000000e+00 -9.9999999822386221e-01 +1.0323236444986089e-04 +0.0000000000000000e+00 +9.9999999467153955e-01
-1.0999999999999999e+00 +9.1047375447150056e+00 +0.0000000000000000e+00 -1.0999999976359542e+00 +1.1355580078508101e-04 +0.0000000000000000e+00 +9.9999999355254010e-01
-1.2000000000000000e+00 +9.1047256729616119e+00 +0.0000000000000000e+00 -1.1999999969308175e+00 +1.2387927307209770e-04 +0.0000000000000000e+00 +9.9999999232696291e-01
-1.3000000000000000e+00 +9.1047127688591942e+00 +0.0000000000000000e+00 -1.2999999960977942e+00 +1.3420278128207529e-04 +0.0000000000000000e+00 +9.9999999099480674e-01
-1.4000000000000001e+00 +9.1046988324041589e+00 +0.0000000000000000e+00 -1.3999999951262261e+00 +1.4452632540743447e-04 +0.0000000000000000e+00 +9.9999998955607061e-01
-1.5000000000000002e+00 +9.1046838635929142e+00 +0.0000000000000000e+00 -1.4999999940054554e+00 +1.5484990546184597e-04 +0.0000000000000000e+00 +9.9999998801075340e-01
-1.6000000000000003e+00 +9.1046678624218664e+00 +0.0000000000000000e+00 -1.5999999927248238e+00 +1.6517352147806964e-04 +0.0000000000000000e+00 +9.9999998635885390e-01
-1.7000000000000004e+00 +9.1046508288874186e+00 +0.0000000000000000e+00 -1.6999999912736732e+00 +1.7549717348425039e-04 +0.0000000000000000e+00 +9.9999998460037098e-01
-1.8000000000000005e+00 +9.1046327629859700e+00 +0.0000000000000000e+00 -1.7999999896413450e+00 +1.8582086148021662e-04 +0.0000000000000000e+00 +9.9999998273530366e-01
-1.9000000000000006e+00 +9.1046136647139235e+00 +0.0000000000000000e+00 -1.8999999878171809e+00 +1.9614458543532412e-04 +0.0000000000000000e+00 +9.9999998076365071e-01
-2.0000000000000004e+00 +9.1045935340676856e+00 +0.0000000000000000e+00 -1.9999999857905222e+00 +2.0646834528845464e-04 +0.0000000000000000e+00 +9.9999997868541102e-01
-2.1000000000000005e+00 +9.1045723710436715e+00 +0.0000000000000000e+00 -2.0999999835507102e+00 +2.1679214094801516e-04 +0.0000000000000000e+00 +9.9999997650058359e-01
-2.2000000000000006e+00 +9.1045501756383054e+00 +0.0000000000000000e+00 -2.1999999810870858e+00 +2.2711597229193756e-04 +0.0000000000000000e+00 +9.9999997420916731e-01
-2.3000000000000007e+00 +9.1045269478480275e+00 +0.0000000000000000e+00 -2.2999999783889904e+00 +2.3743983916767880e-04 +0.0000000000000000e+00 +9.9999997181116107e-01
-2.4000000000000008e+00 +9.1045026876692940e+00 +0.0000000000000000e+00 -2.3999999754457648e+00 +2.4776374139222156e-04 +0.0000000000000000e+00 +9.9999996930656387e-01
-2.5000000000000009e+00 +9.1044773950985789e+00 +0.0000000000000000e+00 -2.4999999722467501e+00 +2.5808767875207538e-04 +0.0000000000000000e+00 +9.9999996669537461e-01
-2.6000000000000010e+00 +9.1044510701323809e+00 +0.0000000000000000e+00 -2.5999999687812867e+00 +2.6841165100327833e-04 +0.0000000000000000e+00 +9.9999996397759228e-01
-2.7000000000000011e+00 +9.1044237127672236e+00 +0.0000000000000000e+00 -2.6999999650387152e+00 +2.7873565787139907e-04 +0.0000000000000000e+00 +9.9999996115321588e-01
-2.8000000000000012e+00 +9.1043953229996628e+00 +0.0000000000000000e+00 -2.7999999610083766e+00 +2.8905969905153951e-04 +0.0000000000000000e+00 +9.9999995822224441e-01
-2.9000000000000012e+00 +9.1043659008262807e+00 +0.0000000000000000e+00 -2.8999999566796109e+00 +2.9938377420833786e-04 +0.0000000000000000e+00 +9.9999995518467699e-01
-3.0000000000000013e+00 +9.1043354462437005e+00 +0.0000000000000000e+00 -2.9999999520417586e+00 +3.0970788297597233e-04 +0.0000000000000000e+00 +9.9999995204051262e-01
-3.1000000000000014e+00 +9.1043039592485790e+00 +0.0000000000000000e+00 -3.0999999470841599e+00 +3.2003202495816503e-04 +0.0000000000000000e+00 +9.9999994878975029e-01
-3.2000000000000015e+00 +9.1042714398376159e+00 +0.0000000000000000e+00 -3.1999999417961553e+00 +3.3035619972818665e-04 +0.0000000000000000e+00 +9.9999994543238924e-01
-3.3000000000000016e+00 +9.1042378880075550e+00 +0.0000000000000000e+00 -3.2999999361670844e+00 +3.4068040682886156e-04 +0.0000000000000000e+00 +9.9999994196842856e-01
-3.4000000000000017e+00 +9.1042033037551882e+00 +0.0000000000000000e+00 -3.3999999301862878e+00 +3.5100464577257314e-04 +0.0000000000000000e+00 +9.9999993839786749e-01
-3.5000000000000018e+00 +9.1041676870773571e+00 +0.0000000000000000e+00 -3.4999999238431045e+00 +3.6132891604127008e-04 +0.0000000000000000e+00 +9.9999993472070514e-01
-3.6000000000000019e+00 +9.1041310379709550e+00 +0.0000000000000000e+00 -3.5999999171268753e+00 +3.7165321708917688e-04 +0.0000000000000000e+00 +9.9999993093694084e-01
-3.7000000000000020e+00 +9.1040933564329318e+00 +0.0000000000000000e+00 -3.6999999100269392e+00 +3.8197754837254722e-04 +0.0000000000000000e+00 +9.9999992704657370e-01
-3.8000000000000020e+00 +9.1040546424602891e+00 +0.0000000000000000e+00 -3.7999999025326363e+00 +3.9230190937941775e-04 +0.0000000000000000e+00 +9.9999992304960306e-01
-3.9000000000000021e+00 +9.1040148960500797e+00 +0.0000000000000000e+00 -3.8999998946333063e+00 +4.0262629963231999e-04 +0.0000000000000000e+00 +9.9999991894602824e-01
-4.0000000000000018e+00 +9.1039741171994013e+00 +0.0000000000000000e+00 -3.9999998863182884e+00 +4.1295071868828850e-04 +0.0000000000000000e+00 +9.9999991473584848e-01
-4.1000000000000014e+00 +9.1039323059053956e+00 +0.0000000000000000e+00 -4.0999998775769226e+00 +4.2327516613886973e-04 +0.0000000000000000e+00 +9.9999991041906300e-01
-4.2000000000000011e+00 +9.1038894621652400e+00 +0.0000000000000000e+00 -4.1999998683985478e+00 +4.3359964161013103e-04 +0.0000000000000000e+00 +9.9999990599567112e-01
-4.3000000000000007e+00 +9.1038455859761509e+00 +0.0000000000000000e+00 -4.2999998587725035e+00 +4.4392414476267038e-04 +0.0000000000000000e+00 +9.9999990146567219e-01
-4.4000000000000004e+00 +9.1038006773353750e+00 +0.0000000000000000e+00 -4.3999998486881289e+00 +4.5424867529162652e-04 +0.0000000000000000e+00 +9.9999989682906543e-01
-4.5000000000000000e+00 +9.1037547362401892e+00 +0.0000000000000000e+00 -4.4999998381347632e+00 +4.6457323292668941e-04 +0.0000000000000000e+00 +9.9999989208585005e-01
-4.5999999999999996e+00 +9.1037077626878951e+00 +0.0000000000000000e+00 -4.5999998271017457e+00 +4.7489781743211148e-04 +0.0000000000000000e+00 +9.9999988723602540e-01
-4.6999999999999993e+00 +9.1036597566758140e+00 +0.0000000000000000e+00 -4.6999998155784146e+00 +4.8522242860671896e-04 +0.0000000000000000e+00 +9.9999988227959069e-01
-4.7999999999999989e+00 +9.1036107182012902e+00 +0.0000000000000000e+00 -4.7999998035541100e+00 +4.9554706628392414e-04 +0.0000000000000000e+00 +9.9999987721654526e-01
-4.8999999999999986e+00 +9.1035606472616788e+00 +0.0000000000000000e+00 -4.8999997910181703e+00 +5.0587173033173755e-04 +0.0000000000000000e+00 +9.9999987204688834e-01
-4.9999999999999982e+00 +9.1035095438543490e+00 +0.0000000000000000e+00 -4.9999997779599337e+00 +5.1619642065278107e-04 +0.0000000000000000e+00 +9.9999986677061903e-01
-5.0999999999999979e+00 +9.1034574079766752e+00 +0.0000000000000000e+00 -5.0999997643687403e+00 +5.2652113718430142e-04 +0.0000000000000000e+00 +9.9999986138773667e-01
-5.1999999999999975e+00 +9.1034042396260393e+00 +0.0000000000000000e+00 -5.1999997502339275e+00 +5.3684587989818392e-04 +0.0000000000000000e+00 +9.9999985589824048e-01
-5.2999999999999972e+00 +9.1033500387998227e+00 +0.0000000000000000e+00 -5.2999997355448345e+00 +5.4717064880096698e-04 +0.0000000000000000e+00 +9.9999985030212957e-01
-5.3999999999999968e+00 +9.1032948054954055e+00 +0.0000000000000000e+00 -5.3999997202907997e+00 +5.5749544393385688e-04 +0.0000000000000000e+00 +9.9999984459940316e-01
-5.4999999999999964e+00 +9.1032385397101603e+00 +0.0000000000000000e+00 -5.4999997044611613e+00 +5.6782026537274301e-04 +0.0000000000000000e+00 +9.9999983879006038e-01
-5.5999999999999961e+00 +9.1031812414414510e+00 +0.0000000000000000e+00 -5.5999996880452576e+00 +5.7814511322805244e-04 +0.0000000000000000e+00 +9.9999983287410033e-01
-5.6999999999999957e+00 +9.1031229106866292e+00 +0.0000000000000000e+00 -5.6999996710324270e+00 +5.8846998764298865e-04 +0.0000000000000000e+00 +9.9999982685152211e-01
-5.7999999999999954e+00 +9.1030635474430301e+00 +0.0000000000000000e+00 -5.7999996534120077e+00 +5.9879488879176646e-04 +0.0000000000000000e+00 +9.9999982072232474e-01
-5.8999999999999950e+00 +9.1030031517079717e+00 +0.0000000000000000e+00 -5.8999996351733381e+00 +6.0911981687945891e-04 +0.0000000000000000e+00 +9.9999981448650732e-01
-5.9999999999999947e+00 +9.1029417234787484e+00 +0.0000000000000000e+00 -5.9999996163057556e+00 +6.1944477214200553e-04 +0.0000000000000000e+00 +9.9999980814406897e-01
-6.0999999999999943e+00 +9.1028792627526283e+00 +0.0000000000000000e+00 -6.0999995967985976e+00 +6.2976975484622076e-04 +0.0000000000000000e+00 +9.9999980169500857e-01
-6.1999999999999940e+00 +9.1028157695268543e+00 +0.0000000000000000e+00 -6.1999995766412024e+00 +6.4009476528980246e-04 +0.0000000000000000e+00 +9.9999979513932502e-01
-6.2999999999999936e+00 +9.1027512437986360e+00 +0.0000000000000000e+00 -6.2999995558229083e+00 +6.5041980380134044e-04 +0.0000000000000000e+00 +9.9999978847701732e-01
-6.3999999999999932e+00 +9.1026856855651470e+00 +0.0000000000000000e+00 -6.3999995343330518e+00 +6.6074487074032522e-04 +0.0000000000000000e+00 +9.9999978170808435e-01
-6.4999999999999929e+00 +9.1026190948235275e+00 +0.0000000000000000e+00 -6.4999995121609704e+00 +6.7106996649715666e-04 +0.0000000000000000e+00 +9.9999977483252500e-01
-6.5999999999999925e+00 +9.1025514715708731e+00 +0.0000000000000000e+00 -6.5999994892960023e+00 +6.8139509149315290e-04 +0.0000000000000000e+00 +9.9999976785033806e-01
-6.6999999999999922e+00 +9.1024828158042386e+00 +0.0000000000000000e+00 -6.6999994657274842e+00 +6.9172024618055939e-04 +0.0000000000000000e+00 +9.9999976076152230e-01
-6.7999999999999918e+00 +9.1024131275206308e+00 +0.0000000000000000e+00 -6.7999994414447524e+00 +7.0204543104255787e-04 +0.0000000000000000e+00 +9.9999975356607640e-01
-6.8999999999999915e+00 +9.1023424067170069e+00 +0.0000000000000000e+00 -6.8999994164371445e+00 +7.1237064659327560e-04 +0.0000000000000000e+00 +9.9999974626399912e-01
-6.9999999999999911e+00 +9.1022706533902706e+00 +0.0000000000000000e+00 -6.9999993906939979e+00 +7.2269589337779435e-04 +0.0000000000000000e+00 +9.9999973885528914e-01
-7.0999999999999908e+00 +9.1021978675372708e+00 +0.0000000000000000e+00 -7.0999993642046482e+00 +7.3302117197215997e-04 +0.0000000000000000e+00 +9.9999973133994502e-01
-7.1999999999999904e+00 +9.1021240491547957e+00 +0.0000000000000000e+00 -7.1999993369584327e+00 +7.4334648298339176e-04 +0.0000000000000000e+00 +9.9999972371796531e-01
-7.2999999999999901e+00 +9.1020491982395715e+00 +0.0000000000000000e+00 -7.2999993089446873e+00 +7.5367182704949196e-04 +0.0000000000000000e+00 +9.9999971598934856e-01
-7.3999999999999897e+00 +9.1019733147882604e+00 +0.0000000000000000e+00 -7.3999992801527483e+00 +7.6399720483945528e-04 +0.0000000000000000e+00 +9.9999970815409323e-01
-7.4999999999999893e+00 +9.1018963987974555e+00 +0.0000000000000000e+00 -7.4999992505719515e+00 +7.7432261705327873e-04 +0.0000000000000000e+00 +9.9999970021219775e-01
-7.5999999999999890e+00 +9.1018184502636785e+00 +0.0000000000000000e+00 -7.5999992201916333e+00 +7.8464806441686224e-04 +0.0000000000000000e+00 +9.9999969216366047e-01
-7.6999999999999886e+00 +9.1017394691833786e+00 +0.0000000000000000e+00 -7.6999991890011295e+00 +7.9497354762581040e-04 +0.0000000000000000e+00 +9.9999968400847972e-01
-7.7999999999999883e+00 +9.1016594555529391e+00 +0.0000000000000000e+00 -7.7999991569897746e+00 +8.0529906728921390e-04 +0.0000000000000000e+00 +9.9999967574665394e-01
-7.8999999999999879e+00 +9.1015784093686882e+00 +0.0000000000000000e+00 -7.8999991241469054e+00 +8.1562462392451279e-04 +0.0000000000000000e+00 +9.9999966737818147e-01
-7.9999999999999876e+00 +9.1014963306269081e+00 +0.0000000000000000e+00 -7.9999990904618565e+00 +8.2595021795746825e-04 +0.0000000000000000e+00 +9.9999965890306086e-01
-8.0999999999999872e+00 +9.1014132193238400e+00 +0.0000000000000000e+00 -8.0999990559239627e+00 +8.3627584972213297e-04 +0.0000000000000000e+00 +9.9999965032129079e-01
-8.1999999999999869e+00 +9.1013290754556984e+00 +0.0000000000000000e+00 -8.1999990205225597e+00 +8.4660151946082016e-04 +0.0000000000000000e+00 +9.9999964163286970e-01
-8.2999999999999865e+00 +9.1012438990186766e+00 +0.0000000000000000e+00 -8.2999989842469812e+00 +8.5692722732407228e-04 +0.0000000000000000e+00 +9.9999963283779647e-01
-8.3999999999999861e+00 +9.1011576900089608e+00 +0.0000000000000000e+00 -8.3999989470865639e+00 +8.6725297337062769e-04 +0.0000000000000000e+00 +9.9999962393606967e-01
-8.4999999999999858e+00 +9.1010704484227318e+00 +0.0000000000000000e+00 -8.4999989090306407e+00 +8.7757875756738692e-04 +0.0000000000000000e+00 +9.9999961492768830e-01
-8.5999999999999854e+00 +9.1009821742561794e+00 +0.0000000000000000e+00 -8.5999988700685464e+00 +8.8790457978937744e-04 +0.0000000000000000e+00 +9.9999960581265124e-01
-8.6999999999999851e+00 +9.1008928675055127e+00 +0.0000000000000000e+00 -8.6999988301896156e+00 +8.9823043981971751e-04 +0.0000000000000000e+00 +9.9999959659095750e-01
-8.7999999999999847e+00 +9.1008025281669660e+00 +0.0000000000000000e+00 -8.7999987893831833e+00 +9.0855633734957908e-04 +0.0000000000000000e+00 +9.9999958726260618e-01
-8.8999999999999844e+00 +9.1007111562368070e+00 +0.0000000000000000e+00 -8.8999987476385822e+00 +9.1888227197814908e-04 +0.0000000000000000e+00 +9.9999957782759641e-01
-8.9999999999999840e+00 +9.1006187517113499e+00 +0.0000000000000000e+00 -8.9999987049451473e+00 +9.2920824321259031e-04 +0.0000000000000000e+00 +9.9999956828592762e-01
-9.0999999999999837e+00 +9.1005253145869638e+00 +0.0000000000000000e+00 -9.0999986612922132e+00 +9.3953425046800041e-04 +0.0000000000000000e+00 +9.9999955863759915e-01
-9.1999999999999833e+00 +9.1004308448600781e+00 +0.0000000000000000e+00 -9.1999986166691130e+00 +9.4986029306737057e-04 +0.0000000000000000e+00 +9.9999954888261056e-01
-9.2999999999999829e+00 +9.1003353425271971e+00 +0.0000000000000000e+00 -9.2999985710651796e+00 +9.6018637024154253e-04 +0.0000000000000000e+00 +9.9999953902096139e-01
-9.3999999999999826e+00 +9.1002388075849066e+00 +0.0000000000000000e+00 -9.3999985244697495e+00 +9.7051248112916481e-04 +0.0000000000000000e+00 +9.9999952905265155e-01
-9.4999999999999822e+00 +9.1001412400298793e+00 +0.0000000000000000e+00 -9.4999984768721557e+00 +9.8083862477664767e-04 +0.0000000000000000e+00 +9.9999951897768080e-01
-9.5999999999999819e+00 +9.1000426398588932e+00 +0.0000000000000000e+00 -9.5999984282617312e+00 +9.9116480014332497e-04 +0.0000000000000000e+00 +9.9999950879604926e-01
-9.6999999999999815e+00 +9.0999430070688287e+00 +0.0000000000000000e+00 -9.6999983786278108e+00 +1.0014910061587037e-03 +0.0000000000000000e+00 +9.9999949850775693e-01
-9.7999999999999812e+00 +9.0998423416566752e+00 +0.0000000000000000e+00 -9.7999983279597274e+00 +1.0118172417797418e-03 +0.0000000000000000e+00 +9.9999948811280404e-01
-9.8999999999999808e+00 +9.0997406436195210e+00 +0.0000000000000000e+00 -9.8999982762468157e+00 +1.0221435059960572e-03 +0.0000000000000000e+00 +9.9999947761119057e-01
-9.9999999999999805e+00 +9.0996379129545559e+00 +0.0000000000000000e+00 -9.9999982234784106e+00 +1.0324697978299298e-03 +0.0000000000000000e+00 +9.9999946700291664e-01
-1.0099999999999980e+01 +9.0995341496590658e+00 +0.0000000000000000e+00 -1.0099998169643845e+01 +1.0427961163363025e-03 +0.0000000000000000e+00 +9.9999945628798248e-01
-1.0199999999999980e+01 +9.0994293537304305e+00 +0.0000000000000000e+00 -1.0199998114732452e+01 +1.0531224606027841e-03 +0.0000000000000000e+00 +9.9999944546638819e-01
-1.0299999999999979e+01 +9.0993235251661169e+00 +0.0000000000000000e+00 -1.0299998058733566e+01 +1.0634488297496505e-03 +0.0000000000000000e+00 +9.9999943453813389e-01
-1.0399999999999979e+01 +9.0992166639636789e+00 +0.0000000000000000e+00 -1.0399998001636522e+01 +1.0737752229298479e-03 +0.0000000000000000e+00 +9.9999942350321969e-01
-1.0499999999999979e+01 +9.0991087701207558e+00 +0.0000000000000000e+00 -1.0499997943430655e+01 +1.0841016393289943e-03 +0.0000000000000000e+00 +9.9999941236164569e-01
-1.0599999999999978e+01 +9.0989998436350650e+00 +0.0000000000000000e+00 -1.0599997884105298e+01 +1.0944280781653834e-03 +0.0000000000000000e+00 +9.9999940111341212e-01
-1.0699999999999978e+01 +9.0988898845044002e+00 +0.0000000000000000e+00 -1.0699997823649783e+01 +1.1047545386899864e-03 +0.0000000000000000e+00 +9.9999938975851899e-01
-1.0799999999999978e+01 +9.0987788927266280e+00 +0.0000000000000000e+00 -1.0799997762053446e+01 +1.1150810201864553e-03 +0.0000000000000000e+00 +9.9999937829696650e-01
-1.0899999999999977e+01 +9.0986668682996861e+00 +0.0000000000000000e+00 -1.0899997699305620e+01 +1.1254075219711268e-03 +0.0000000000000000e+00 +9.9999936672875478e-01
-1.0999999999999977e+01 +9.0985538112215796e+00 +0.0000000000000000e+00 -1.0999997635395641e+01 +1.1357340433930249e-03 +0.0000000000000000e+00 +9.9999935505388393e-01
-1.1099999999999977e+01 +9.0984397214903741e+00 +0.0000000000000000e+00 -1.1099997570312841e+01 +1.1460605838338645e-03 +0.0000000000000000e+00 +9.9999934327235407e-01
-1.1199999999999976e+01 +9.0983245991041990e+00 +0.0000000000000000e+00 -1.1199997504046555e+01 +1.1563871427080559e-03 +0.0000000000000000e+00 +9.9999933138416519e-01
-1.1299999999999976e+01 +9.0982084440612372e+00 +0.0000000000000000e+00 -1.1299997436586118e+01 +1.1667137194627084e-03 +0.0000000000000000e+00 +9.9999931938931741e-01
-1.1399999999999975e+01 +9.0980912563597283e+00 +0.0000000000000000e+00 -1.1399997367920863e+01 +1.1770403135776340e-03 +0.0000000000000000e+00 +9.9999930728781083e-01
-1.1499999999999975e+01 +9.0979730359979598e+00 +0.0000000000000000e+00 -1.1499997298040125e+01 +1.1873669245653523e-03 +0.0000000000000000e+00 +9.9999929507964547e-01
-1.1599999999999975e+01 +9.0978537829742674e+00 +0.0000000000000000e+00 -1.1599997226933237e+01 +1.1976935519718331e-03 +0.0000000000000000e+00 +9.9999928276482131e-01
-1.1699999999999974e+01 +9.0977334972870310e+00 +0.0000000000000000e+00 -1.1699997154589534e+01 +1.2080201953846292e-03 +0.0000000000000000e+00 +9.9999927034333835e-01
