# multipoles
# s[mm] polynom_b[n=0][T/m^n] polynom_b[n=1][T/m^n] polynom_b[n=2][T/m^n] polynom_b[n=3][T/m^n] polynom_b[n=4][T/m^n] polynom_b[n=5][T/m^n] polynom_b[n=6][T/m^n] 
+0.0000000000000000e+00 -1.7063828087258312e-01 +3.7998547005435251e-01 +3.5596487458411952e+00 +1.3914542044736706e+01 -2.8139932659111732e+03 +3.2863881936704667e+04 +1.4369734131647764e+07 
-1.0000000000000001e-01 -1.7063909092428134e-01 +3.7998354868262429e-01 +3.5604600265503694e+00 +1.4131044515148771e+01 -2.8245727257899612e+03 +3.1505367167376760e+04 +1.4403111435507234e+07 
-2.0000000000000001e-01 -1.7063989473708921e-01 +3.7998214818211218e-01 +3.5613014909404339e+00 +1.4332425983821434e+01 -2.8370298685993721e+03 +3.0242037078008427e+04 +1.4449601060475884e+07 
-3.0000000000000004e-01 -1.7064069237728574e-01 +3.7998124902205893e-01 +3.5621744866809641e+00 +1.4518826339905793e+01 -2.8513307139937501e+03 +2.9073712975736082e+04 +1.4508814846505851e+07 
-4.0000000000000002e-01 -1.7064148391115705e-01 +3.7998083167214891e-01 +3.5630803622874989e+00 +1.4690385481432939e+01 -2.8674412967668386e+03 +2.8000215976496147e+04 +1.4580364698261004e+07 
-5.0000000000000000e-01 -1.7064226940499103e-01 +3.7998087660187030e-01 +3.5640204665225204e+00 +1.4847243334244483e+01 -2.8853276556970918e+03 +2.7021366905624756e+04 +1.4663862532546241e+07 
-5.9999999999999998e-01 -1.7064304892508353e-01 +3.7998136428147605e-01 +3.5649961492185280e+00 +1.4989539824633226e+01 -2.9049558499747318e+03 +2.6136986457005249e+04 +1.4758920359441424e+07 
-6.9999999999999996e-01 -1.7064382253772584e-01 +3.7998227518095518e-01 +3.5660087597243941e+00 +1.5117414901143700e+01 -2.9262919296890868e+03 +2.5346895103610957e+04 +1.4865150142210234e+07 
-7.9999999999999993e-01 -1.7064459030922158e-01 +3.7998358977026181e-01 +3.5670596489815614e+00 +1.5231008536951069e+01 -2.9493019750352892e+03 +2.4650913060207593e+04 +1.4982163983496916e+07 
-8.9999999999999991e-01 -1.7064535230587874e-01 +3.7998528851976326e-01 +3.5681501687756105e+00 +1.5330460704667725e+01 -2.9739520843552364e+03 +2.4048860474792684e+04 +1.5109574075210640e+07 
-9.9999999999999989e-01 -1.7064610859400620e-01 +3.7998735189886906e-01 +3.5692816711106521e+00 +1.5415911420428657e+01 -3.0002083607179752e+03 +2.3540557167470499e+04 +1.5246992630893990e+07 
-1.0999999999999999e+00 -1.7064685923992090e-01 +3.7998976037790771e-01 +3.5704555092785544e+00 +1.5487500686326756e+01 -3.0280369333424173e+03 +2.3125822980950805e+04 +1.5394031990747171e+07 
-1.2000000000000000e+00 -1.7064760430994289e-01 +3.7999249442543942e-01 +3.5716730371990790e+00 +1.5545368568600409e+01 -3.0574039455914353e+03 +2.2804477333173760e+04 +1.5550304567070393e+07 
-1.3000000000000000e+00 -1.7064834387039934e-01 +3.7999553451065954e-01 +3.5729356100675105e+00 +1.5589655123692564e+01 -3.0882755673497486e+03 +2.2576339667266016e+04 +1.5715422902771639e+07 
-1.4000000000000001e+00 -1.7064907798761786e-01 +3.7999886110189079e-01 +3.5742445834132126e+00 +1.5620500440551131e+01 -3.1206179775748669e+03 +2.2441229217089916e+04 +1.5888999591172481e+07 
-1.5000000000000002e+00 -1.7064980672793870e-01 +3.8000245466666716e-01 +3.5756013147785319e+00 +1.5638044640887676e+01 -3.1543973965761843e+03 +2.2398965004829490e+04 +1.6070647429808255e+07 
-1.6000000000000003e+00 -1.7065053015769957e-01 +3.8000629567257954e-01 +3.5770071617613728e+00 +1.5642427847948230e+01 -3.1895800491501273e+03 +2.2449366051019566e+04 +1.6259979247462776e+07 
-1.7000000000000004e+00 -1.7065124834324666e-01 +3.8001036458538340e-01 +3.5784634835489646e+00 +1.5633790241636579e+01 -3.2261321944611623e+03 +2.2592251059687980e+04 +1.6456608048016293e+07 
-1.8000000000000005e+00 -1.7065196135093350e-01 +3.8001464187107509e-01 +3.5799716406860251e+00 +1.5612271997756249e+01 -3.2640201212662964e+03 +2.2827438781266603e+04 +1.6660146987317549e+07 
-1.9000000000000006e+00 -1.7065266924711525e-01 +3.8001910799394789e-01 +3.5815329944954613e+00 +1.5578013342549173e+01 -3.3032101379422029e+03 +2.3154747708150924e+04 +1.6870209329244204e+07 
-2.0000000000000004e+00 -1.7065337209815556e-01 +3.8002374341695311e-01 +3.5831489079369803e+00 +1.5531154540712206e+01 -3.3436685891004072e+03 +2.3573996157726506e+04 +1.7086408525719404e+07 
-2.1000000000000005e+00 -1.7065406993389942e-01 +3.8002852969640943e-01 +3.5848184714889650e+00 +1.5471979057716130e+01 -3.3853263595435483e+03 +2.4083731134512185e+04 +1.7308227963978134e+07 
-2.2000000000000006e+00 -1.7065476263463336e-01 +3.8003345270759242e-01 +3.5865311634057369e+00 +1.5401348559909986e+01 -3.4279660156694990e+03 +2.4677298218790875e+04 +1.7534612898478393e+07 
-2.3000000000000007e+00 -1.7065545004238289e-01 +3.8003849939803591e-01 +3.5882739283807585e+00 +1.5320270849366812e+01 -3.4713314327730795e+03 +2.5346710936592710e+04 +1.7764369764167383e+07 
-2.4000000000000008e+00 -1.7065613199916457e-01 +3.8004365671592544e-01 +3.5900337098857893e+00 +1.5229753704784336e+01 -3.5151664617637352e+03 +2.6083982964061270e+04 +1.7996304879624180e+07 
-2.5000000000000009e+00 -1.7065680834699590e-01 +3.8004891161048604e-01 +3.5917974513944211e+00 +1.5130804869093668e+01 -3.5592149526301432e+03 +2.6881128207492518e+04 +1.8229224559762251e+07 
-2.6000000000000010e+00 -1.7065747892789376e-01 +3.8005425103240403e-01 +3.5935520960833895e+00 +1.5024432034508530e+01 -3.6032207473523035e+03 +2.7730160898576793e+04 +1.8461935078355093e+07 
-2.7000000000000011e+00 -1.7065814358386647e-01 +3.8005966193303498e-01 +3.5952845858042810e+00 +1.4911642865513222e+01 -3.6469276607331703e+03 +2.8623095460176573e+04 +1.8693242578374714e+07 
-2.8000000000000012e+00 -1.7065880215692256e-01 +3.8006513126592362e-01 +3.5969818622357366e+00 +1.4793444952979785e+01 -3.6900795019528105e+03 +2.9551946778956633e+04 +1.8921953173938654e+07 
-2.9000000000000012e+00 -1.7065945448905925e-01 +3.8007064598631618e-01 +3.5986308651818208e+00 +1.4670845826707104e+01 -3.7324200407196395e+03 +3.0508730138567578e+04 +1.9146872785311982e+07 
-3.0000000000000013e+00 -1.7066010042227539e-01 +3.8007619305087231e-01 +3.6002185344148416e+00 +1.4544852963349202e+01 -3.7736930440484152e+03 +3.1485461173678937e+04 +1.9366807319434080e+07 
-3.1000000000000014e+00 -1.7066073979856047e-01 +3.8008175941797645e-01 +3.6017318081075271e+00 +1.4416473775939016e+01 -3.8136422441977975e+03 +3.2474155935945520e+04 +1.9580562511022951e+07 
-3.2000000000000015e+00 -1.7066137245989255e-01 +3.8008733204924622e-01 +3.6031576224922759e+00 +1.4286715566212113e+01 -3.8520113325561078e+03 +3.3466831184987685e+04 +1.9786943895382151e+07 
-3.3000000000000016e+00 -1.7066199824825104e-01 +3.8009289790749184e-01 +3.6044829134446044e+00 +1.4156585586906258e+01 -3.8885439887544012e+03 +3.4455504014915918e+04 +1.9984756944284514e+07 
-3.4000000000000017e+00 -1.7066261700559887e-01 +3.8009844395769932e-01 +3.6056946143181503e+00 +1.4027091009801692e+01 -3.9229838404523721e+03 +3.5432192051363862e+04 +2.0172806877436422e+07 
-3.5000000000000018e+00 -1.7066322857389338e-01 +3.8010395716834022e-01 +3.6067796570831203e+00 +1.3899238883103761e+01 -3.9550744831254719e+03 +3.6388913713668626e+04 +2.0349898752413437e+07 
-3.6000000000000019e+00 -1.7066383279508598e-01 +3.8010942451037460e-01 +3.6077249724432421e+00 +1.3774036165913456e+01 -3.9845594831996464e+03 +3.7317687999487069e+04 +2.0514837481822114e+07 
-3.7000000000000020e+00 -1.7066442951110825e-01 +3.8011483295681969e-01 +3.6085174878313451e+00 +1.3652489733462859e+01 -4.0111823383427727e+03 +3.8210534472900494e+04 +2.0666427640752796e+07 
-3.8000000000000020e+00 -1.7066501856388677e-01 +3.8012016948459199e-01 +3.6091441293290174e+00 +1.3535606325789749e+01 -4.0346865141133162e+03 +3.9059473561353785e+04 +2.0803473641860135e+07 
-3.9000000000000021e+00 -1.7066559979533880e-01 +3.8012542107301139e-01 +3.6095918212003033e+00 +1.3424392587099959e+01 -4.0548154356114965e+03 +3.9856526335245624e+04 +2.0924779697320513e+07 
-4.0000000000000018e+00 -1.7066617304736631e-01 +3.8013057470556222e-01 +3.6098474848907727e+00 +1.3319855010431546e+01 -4.0713124673908478e+03 +4.0593714845015878e+04 +2.1029149721503183e+07 
-4.1000000000000014e+00 -1.7066673819990233e-01 +3.8013561979981692e-01 +3.6099008307933134e+00 +1.3222746407376819e+01 -4.0839796809383561e+03 +4.1265102081245110e+04 +2.1115680975875616e+07 
-4.2000000000000011e+00 -1.7066729528727634e-01 +3.8014055367334193e-01 +3.6097529411523133e+00 +1.3132892464274407e+01 -4.0928485839454538e+03 +4.1872412371512728e+04 +2.1184579042882800e+07 
-4.3000000000000007e+00 -1.7066784438307006e-01 +3.8014537521761160e-01 +3.6094078119130120e+00 +1.3049905206290054e+01 -4.0980071659573650e+03 +4.2419190443641048e+04 +2.1236312775966864e+07 
-4.4000000000000004e+00 -1.7066838556085959e-01 +3.8015008332589362e-01 +3.6088694385201840e+00 +1.2973396590298783e+01 -4.0995434062272479e+03 +4.2908981486040233e+04 +2.1271350969234623e+07 
-4.5000000000000000e+00 -1.7066891889422398e-01 +3.8015467689371329e-01 +3.6081418169289918e+00 +1.2902978498000387e+01 -4.0975452927182505e+03 +4.3345331152281462e+04 +2.1290162448670238e+07 
-4.5999999999999996e+00 -1.7066944445673835e-01 +3.8015915481829693e-01 +3.6072289428907451e+00 +1.2838262751634993e+01 -4.0921008093063924e+03 +4.3731785469009512e+04 +2.1293216012469187e+07 
-4.6999999999999993e+00 -1.7066996232198045e-01 +3.8016351599979603e-01 +3.6061348125472241e+00 +1.2778861072744233e+01 -4.0832979458196814e+03 +4.4071891094026927e+04 +2.1280980475424569e+07 
-4.7999999999999989e+00 -1.7067047256352069e-01 +3.8016775934001812e-01 +3.6048634214375164e+00 +1.2724385126777634e+01 -4.0712246804059123e+03 +4.4369195032838688e+04 +2.1253924587291617e+07 
-4.8999999999999986e+00 -1.7067097525493483e-01 +3.8017188374256017e-01 +3.6034187660040162e+00 +1.2674446514932535e+01 -4.0559690080281366e+03 +4.4627244699052717e+04 +2.1212517167951532e+07 
-4.9999999999999982e+00 -1.7067147046979053e-01 +3.8017588811412806e-01 +3.6018048418813580e+00 +1.2628656733585968e+01 -4.0376189069276411e+03 +4.4849588155217396e+04 +2.1157226944018971e+07 
-5.0999999999999979e+00 -1.7067195828166512e-01 +3.8017977136319936e-01 +3.6000256462931239e+00 +1.2586627217051920e+01 -4.0162623862290707e+03 +4.5039773853682142e+04 +2.1088522780860141e+07 
-5.1999999999999975e+00 -1.7067243876412166e-01 +3.8018353240057412e-01 +3.5980851748236509e+00 +1.2547969320437248e+01 -3.9919874221116056e+03 +4.5201350738993540e+04 +2.1006873371404249e+07 
-5.2999999999999972e+00 -1.7067291199073342e-01 +3.8018717013993508e-01 +3.5959874248096955e+00 +1.2512294299066692e+01 -3.9648820247077538e+03 +4.5337868379771433e+04 +2.0912747560252871e+07 
-5.3999999999999968e+00 -1.7067337803506713e-01 +3.8019068349647045e-01 +3.5937363930092086e+00 +1.2479213356262804e+01 -3.9350341923355386e+03 +4.5452876667416036e+04 +2.0806614122089531e+07 
-5.4999999999999964e+00 -1.7067383697068855e-01 +3.8019407138846978e-01 +3.5913360764216815e+00 +1.2448337588067842e+01 -3.9025319276563264e+03 +4.5549926163637298e+04 +2.0688941838805053e+07 
-5.5999999999999961e+00 -1.7067428887117042e-01 +3.8019733273702355e-01 +3.5887904733591789e+00 +1.2419277998033635e+01 -3.8674632584172809e+03 +4.5632567997068909e+04 +2.0560199599120244e+07 
-5.6999999999999957e+00 -1.7067473381007323e-01 +3.8020046646479294e-01 +3.5861035808639228e+00 +1.2391645529799613e+01 -3.8299161871285664e+03 +4.5704353681220236e+04 +2.0420856155094881e+07 
-5.7999999999999954e+00 -1.7067517186097123e-01 +3.8020347149822381e-01 +3.5832793982812938e+00 +1.2365051003554523e+01 -3.7899787612517562e+03 +4.5768835483171148e+04 +2.0271380461694457e+07 
-5.8999999999999950e+00 -1.7067560309742077e-01 +3.8020634676494991e-01 +3.5803219229701897e+00 +1.2339105192202423e+01 -3.7477389891228527e+03 +4.5829565976167738e+04 +2.0112241269476045e+07 
-5.9999999999999947e+00 -1.7067602759299638e-01 +3.8020909119629293e-01 +3.5772351550335784e+00 +1.2313418756225825e+01 -3.7032849299973259e+03 +4.5890098369089144e+04 +1.9943907548454739e+07 
-6.0999999999999943e+00 -1.7067644545951585e-01 +3.8021169936891513e-01 +3.5740244830645889e+00 +1.2287817177664516e+01 -3.6567167569735266e+03 +4.5952541893675305e+04 +1.9766855037470438e+07 
-6.1999999999999940e+00 -1.7067685696139162e-01 +3.8021415089004074e-01 +3.5707010921576603e+00 +1.2262903093265143e+01 -3.6081970640929426e+03 +4.6013921202267717e+04 +1.9581681125463061e+07 
-6.2999999999999936e+00 -1.7067726240108838e-01 +3.8021642212522527e-01 +3.5672776677521454e+00 +1.2239458440660695e+01 -3.5579072427048250e+03 +4.6070126296575327e+04 +1.9389034597803734e+07 
-6.3999999999999932e+00 -1.7067766208105917e-01 +3.8021848943363912e-01 +3.5637668938273568e+00 +1.2218265352253402e+01 -3.5060286602121810e+03 +4.6117046089201896e+04 +1.9189564135870546e+07 
-6.4999999999999929e+00 -1.7067805630375485e-01 +3.8022032916612652e-01 +3.5601814544059773e+00 +1.2200106212255617e+01 -3.4527426898543467e+03 +4.6150568028567213e+04 +1.8983918465118106e+07 
-6.5999999999999925e+00 -1.7067844537161009e-01 +3.8022191766742597e-01 +3.5565340314732858e+00 +1.2185763584870728e+01 -3.3982306696233854e+03 +4.6166578537177178e+04 +1.8772746156263217e+07 
-6.6999999999999922e+00 -1.7067882958704350e-01 +3.8022323127381158e-01 +3.5528373052173832e+00 +1.2176020292522566e+01 -3.3426739082256836e+03 +4.6160962528952528e+04 +1.8556695657366216e+07 
-6.7999999999999918e+00 -1.7067920925247324e-01 +3.8022424631377483e-01 +3.5491039557982687e+00 +1.2171659391901343e+01 -3.2862537178132889e+03 +4.6129603563218923e+04 +1.8336415447665922e+07 
-6.8999999999999915e+00 -1.7067958467030292e-01 +3.8022493910693245e-01 +3.5453466618621956e+00 +1.2173464206021185e+01 -3.2291513877323137e+03 +4.6068383656532023e+04 +1.8112553917865343e+07 
-6.9999999999999911e+00 -1.7067995614292050e-01 +3.8022528596492383e-01 +3.5415781000588833e+00 +1.2182218301686596e+01 -3.1715481730231013e+03 +4.5973183405798904e+04 +1.7885759309650611e+07 
-7.0999999999999908e+00 -1.7068032397270225e-01 +3.8022526318983130e-01 +3.5378109457909219e+00 +1.2198705531411337e+01 -3.1136253110024677e+03 +4.5839881755679613e+04 +1.7656679801249843e+07 
-7.1999999999999904e+00 -1.7068068846202297e-01 +3.8022484707463983e-01 +3.5340578744651099e+00 +1.2223710026206261e+01 -3.0555640444774413e+03 +4.5664356024945875e+04 +1.7425963616229475e+07 
-7.2999999999999901e+00 -1.7068104991323219e-01 +3.8022401390197541e-01 +3.5303315584260782e+00 +1.2258016228968962e+01 -2.9975455632972239e+03 +4.5442481721510027e+04 +1.7194258745433517e+07 
-7.3999999999999897e+00 -1.7068140862867240e-01 +3.8022273994493222e-01 +3.5266446692792259e+00 +1.2302408872415540e+01 -2.9397510493012792e+03 +4.5170132666860940e+04 +1.6962213163228951e+07 
-7.4999999999999893e+00 -1.7068176491067272e-01 +3.8022100146675147e-01 +3.5230098771468628e+00 +1.2357672988566300e+01 -2.8823616619534100e+03 +4.4843180940992570e+04 +1.6730474758710856e+07 
-7.5999999999999890e+00 -1.7068211906154915e-01 +3.8021877471883903e-01 +3.5194398506939275e+00 +1.2424593967812296e+01 -2.8255585396237880e+03 +4.4457496535866769e+04 +1.6499691344113048e+07 
-7.6999999999999886e+00 -1.7068247138360210e-01 +3.8021603594256281e-01 +3.5159472566702670e+00 +1.2503957505423543e+01 -2.7695227894423356e+03 +4.4008947669986606e+04 +1.6270510602867443e+07 
-7.7999999999999883e+00 -1.7068282217912262e-01 +3.8021276136756488e-01 +3.5125447610035723e+00 +1.2596549654964857e+01 -2.7144355113750389e+03 +4.3493400468209053e+04 +1.6043580213882960e+07 
-7.8999999999999879e+00 -1.7068317175038342e-01 +3.8020892721141186e-01 +3.5092450273527165e+00 +1.2703156834243348e+01 -2.6604777674147053e+03 +4.2906718937682344e+04 +1.5819547695081456e+07 
-7.9999999999999876e+00 -1.7068352039964288e-01 +3.8020450968114167e-01 +3.5060607179322423e+00 +1.2824565778885843e+01 -2.6078306011273962e+03 +4.2244765287881593e+04 +1.5599060512763824e+07 
-8.0999999999999872e+00 -1.7068386834448829e-01 +3.8019949887665305e-01 +3.5030024613592166e+00 +1.2961182054312630e+01 -2.5566594429620695e+03 +4.1505405009295086e+04 +1.5382752388569621e+07 
-8.1999999999999869e+00 -1.7068421547801532e-01 +3.8019393262166679e-01 +3.5000734883719256e+00 +1.3112058538932201e+01 -2.5070724598321713e+03 +4.0693319276147289e+04 +1.5171220526140723e+07 
-8.2999999999999865e+00 -1.7068456161559056e-01 +3.8018785874120797e-01 +3.4972753896647952e+00 +1.3275951157536349e+01 -2.4591653766023710e+03 +3.9814590188718495e+04 +1.4965062648837576e+07 
-8.3999999999999861e+00 -1.7068490657259802e-01 +3.8018132506199032e-01 +3.4946097579981354e+00 +1.3451615818980589e+01 -2.4130339550696926e+03 +3.8875299657845448e+04 +1.4764876678426966e+07 
-8.4999999999999858e+00 -1.7068525016446026e-01 +3.8017437941415105e-01 +3.4920781910180470e+00 +1.3637808363862428e+01 -2.3687740489943785e+03 +3.7881529930393284e+04 +1.4571260980863811e+07 
-8.5999999999999854e+00 -1.7068559220660603e-01 +3.8016706963074226e-01 +3.4896822869040580e+00 +1.3833284578540765e+01 -2.3264815193187501e+03 +3.6839363511435244e+04 +1.4384813958407668e+07 
-8.6999999999999851e+00 -1.7068593251449718e-01 +3.8015944354827902e-01 +3.4874236478485363e+00 +1.4036800180357787e+01 -2.2862523008797616e+03 +3.5754883247372862e+04 +1.4206134368377779e+07 
-8.7999999999999847e+00 -1.7068627090362301e-01 +3.8015154900610015e-01 +3.4853038794428284e+00 +1.4247110837232501e+01 -2.2481823911863116e+03 +3.4634172207630909e+04 +1.4035821271247048e+07 
-8.8999999999999844e+00 -1.7068660718949266e-01 +3.8014343384839211e-01 +3.4833245895850675e+00 +1.4462972112276946e+01 -2.2123678291776414e+03 +3.3483314000202459e+04 +1.3874473928922903e+07 
-8.9999999999999840e+00 -1.7068694118764252e-01 +3.8013514592170222e-01 +3.4814873893532381e+00 +1.4683139532030017e+01 -2.1789047107105262e+03 +3.2308392384122591e+04 +1.3722691875260888e+07 
-9.0999999999999837e+00 -1.7068727271364043e-01 +3.8012673307698713e-01 +3.4797938937791972e+00 +1.4906368530784423e+01 -2.1478892055201964e+03 +3.1115491584898755e+04 +1.3581075003554177e+07 
-9.1999999999999833e+00 -1.7068760158307877e-01 +3.8011824316973136e-01 +3.4782457207063504e+00 +1.5131414451074097e+01 -2.1194175330943476e+03 +2.9910696278823318e+04 +1.3450223445048494e+07 
-9.2999999999999829e+00 -1.7068792761158247e-01 +3.8010972405896032e-01 +3.4768444918384835e+00 +1.5357032564182790e+01 -2.0935859830787708e+03 +2.8700091500267088e+04 +1.3330737667956045e+07 
-9.3999999999999826e+00 -1.7068825061480192e-01 +3.8010122360835630e-01 +3.4755918320835710e+00 +1.5581978049809106e+01 -2.0704909043724165e+03 +2.7489762721943800e+04 +1.3223218429892251e+07 
-9.4999999999999822e+00 -1.7068857040842397e-01 +3.8009278968589688e-01 +3.4744893705891919e+00 +1.5805005998474565e+01 -2.0502287221989782e+03 +2.6285795868335386e+04 +1.3128266852396362e+07 
-9.5999999999999819e+00 -1.7068888680816111e-01 +3.8008447016375829e-01 +3.4735387396178017e+00 +1.6024871422593129e+01 -2.0328959185438089e+03 +2.5094277225135931e+04 +1.3046484332910795e+07 
-9.6999999999999815e+00 -1.7068919962976209e-01 +3.8007631292024874e-01 +3.4727415757338189e+00 +1.6240329193337249e+01 -2.0185890533270824e+03 +2.3921293829461058e+04 +1.2978472642131357e+07 
-9.7999999999999812e+00 -1.7068950868900790e-01 +3.8006836583688064e-01 +3.4720995193838968e+00 +1.6450134134137819e+01 -2.0074047574998278e+03 +2.2772932900024818e+04 +1.2924833894582631e+07 
-9.8999999999999808e+00 -1.7068981380171111e-01 +3.8006067680128669e-01 +3.4716142147774995e+00 +1.6653040930641570e+01 -1.9994397295562414e+03 +2.1655282377901523e+04 +1.2886170528378401e+07 
-9.9999999999999805e+00 -1.7069011478372600e-01 +3.8005329370630153e-01 +3.4712873110616167e+00 +1.6847804134596924e+01 -1.9947907616626596e+03 +2.0574431038790291e+04 +1.2863085450329052e+07 
-1.0099999999999980e+01 -1.7069041152066730e-01 +3.8004625490928529e-01 +3.4711192949569640e+00 +1.7033416394515172e+01 -1.9935143388307970e+03 +1.9535420094328496e+04 +1.2855967380895162e+07 
