# multipoles
# s[mm] polynom_b[n=0][T/m^n] polynom_b[n=1][T/m^n] polynom_b[n=2][T/m^n] polynom_b[n=3][T/m^n] polynom_b[n=4][T/m^n] polynom_b[n=5][T/m^n] polynom_b[n=6][T/m^n] 
+0.0000000000000000e+00 -1.1005028936823680e+00 +2.4721686506879488e+00 +2.2140363174405941e+01 -2.5979367558510990e+02 -2.1072509895323761e+04 +2.2610398269087849e+06 +1.4433649837382853e+08 
+1.0000000000000001e-01 -1.1005013706298494e+00 +2.4712404491632225e+00 +2.2269305536651984e+01 -2.3060410270671039e+02 -2.3958115571472241e+04 +2.0790495698316109e+06 +1.5850641796943423e+08 
+2.0000000000000001e-01 -1.1004998429332629e+00 +2.4703518636568584e+00 +2.2391702692745813e+01 -2.0234366009600285e+02 -2.6708970029325450e+04 +1.9021465923371031e+06 +1.7202487700523224e+08 
+3.0000000000000004e-01 -1.1004982862581971e+00 +2.4695565713749179e+00 +2.2501537359523109e+01 -1.7674129177504230e+02 -2.9196767902345553e+04 +1.7412720564544084e+06 +1.8428022252489170e+08 
+4.0000000000000002e-01 -1.1004966762719945e+00 +2.4689082499096977e+00 +2.2592792480742634e+01 -1.5552595772207371e+02 -3.1293208105797476e+04 +1.6073672394265435e+06 +1.9466082110547894e+08 
+5.0000000000000000e-01 -1.1004949886446234e+00 +2.4684605774110646e+00 +2.2659451344284360e+01 -1.4042664110095001e+02 -3.2869996026748733e+04 +1.5113735857900046e+06 +2.0255506852521509e+08 
+5.9999999999999998e-01 -1.1004932064351161e+00 +2.4682517998072431e+00 +2.2697016444504516e+01 -1.3269404386626644e+02 -3.3829859028672137e+04 +1.4612390739054068e+06 +2.0749562059585851e+08 
+6.9999999999999996e-01 -1.1004913417286746e+00 +2.4682582381866651e+00 +2.2707087866421137e+01 -1.3166054302090859e+02 -3.4201063447836757e+04 +1.4529145384003923e+06 +2.0960324763011700e+08 
+7.9999999999999993e-01 -1.1004894137383003e+00 +2.4684406826670773e+00 +2.2692795871463314e+01 -1.3617759783012878e+02 -3.4043634917393858e+04 +1.4793454232261516e+06 +2.0914857103927338e+08 
+8.9999999999999991e-01 -1.1004874416769199e+00 +2.4687599233031703e+00 +2.2657270717360021e+01 -1.4509666623872056e+02 -3.3417598925655402e+04 +1.5334771649683160e+06 +2.0640221097196987e+08 
+9.9999999999999989e-01 -1.1004854447566206e+00 +2.4691767499128794e+00 +2.2603642559954267e+01 -1.5726919823780392e+02 -3.2382978955817394e+04 +1.6082551463519111e+06 +2.0163477774358818e+08 
+1.0999999999999999e+00 -1.1004834421880307e+00 +2.4696519519409033e+00 +2.2535041372548321e+01 -1.7154663027575637e+02 -3.0999794942563058e+04 +1.6966246556644889e+06 +1.9511686471792677e+08 
+1.2000000000000000e+00 -1.1004814531796385e+00 +2.4701463182862935e+00 +2.2454596858070968e+01 -1.8678037864045046e+02 -2.9328061609698907e+04 +1.7915308402584605e+06 +1.8711904068107605e+08 
+1.3000000000000000e+00 -1.1004794969370295e+00 +2.4706206371643376e+00 +2.2365438353017101e+01 -2.0182183383177860e+02 -2.7427786650786373e+04 +1.8859186657959556e+06 +1.7791184145831409e+08 
+1.4000000000000001e+00 -1.1004775926623558e+00 +2.4710356959318052e+00 +2.2270694755821658e+01 -2.1552235387866622e+02 -2.5358969355346635e+04 +1.9727328693639005e+06 +1.6776576360588476e+08 
+1.5000000000000002e+00 -1.1004757595534245e+00 +2.4713522809443411e+00 +2.2173494412775348e+01 -2.2673325867939505e+02 -2.3181598463088787e+04 +2.0449179191219888e+06 +1.5695125455351579e+08 
+1.6000000000000003e+00 -1.1004740124612380e+00 +2.4715400736447708e+00 +2.2076791949468269e+01 -2.3455020543757433e+02 -2.0956570679979195e+04 +2.0969011674955911e+06 +1.4575587936708304e+08 
+1.7000000000000004e+00 -1.1004723502515117e+00 +2.4716041829626745e+00 +2.1982880676421324e+01 -2.3903837617532264e+02 -1.8747910436648224e+04 +2.1289864984756899e+06 +1.3452812056180027e+08 
+1.8000000000000005e+00 -1.1004707681422725e+00 +2.4715585397662605e+00 +2.1893896923169230e+01 -2.4050352805327896e+02 -1.6620303286948387e+04 +2.1429344636857333e+06 +1.2362984961111824e+08 
+1.9000000000000006e+00 -1.1004692613525107e+00 +2.4714170752764253e+00 +2.1811977153626835e+01 -2.3925142681495183e+02 -1.4638438003440806e+04 +2.1405056632568119e+06 +1.1342295661792426e+08 
+2.0000000000000004e+00 -1.1004678251026314e+00 +2.4711937211456547e+00 +2.1739258024236204e+01 -2.3558784918817972e+02 -1.2867007780621954e+04 +2.1234607612238158e+06 +1.0426935650625485e+08 
+2.1000000000000005e+00 -1.1004664546147138e+00 +2.4709024095664849e+00 +2.1677876418066965e+01 -2.2981858613175888e+02 -1.1370710972825858e+04 +2.0935605060530945e+06 +9.6530992949577063e+07 
+2.2000000000000006e+00 -1.1004651451128267e+00 +2.4705570733439681e+00 +2.1629969485936194e+01 -2.2224944508004299e+02 -1.0214251968845520e+04 +2.0525657454960407e+06 +9.0569842955135912e+07 
+2.3000000000000007e+00 -1.1004638918233203e+00 +2.4701716459956322e+00 +2.1597674684815743e+01 -2.1318625298427355e+02 -9.4623420155329204e+03 +2.0022374460243632e+06 +8.6747921213073120e+07 
+2.4000000000000008e+00 -1.1004626899751881e+00 +2.4697600618429822e+00 +2.1583129825300954e+01 -2.0293485906081028e+02 -9.1797002122936428e+03 +1.9443367104734883e+06 +8.5427285245615005e+07 
+2.5000000000000009e+00 -1.1004615348003641e+00 +2.4693362560898300e+00 +2.1588473107175943e+01 -1.9180113705703951e+02 -9.4310542407164194e+03 +1.8806247930715573e+06 +8.6970039230275899e+07 
+2.6000000000000010e+00 -1.1004604205915747e+00 +2.4689140481791911e+00 +2.1614843606563678e+01 -1.8011391373633967e+02 -1.0251831946565218e+04 +1.8130188754720781e+06 +9.1577522601511136e+07 
+2.7000000000000011e+00 -1.1004593369662992e+00 +2.4685080955384198e+00 +2.1659252108233229e+01 -1.6834359878486742e+02 -1.1556711637208116e+04 +1.7443466266520144e+06 +9.8788953954230890e+07 
+2.8000000000000012e+00 -1.1004582721242795e+00 +2.4681335996246614e+00 +2.1717639011394613e+01 -1.5700883118277278e+02 -1.3229141539936263e+04 +1.6777373237367764e+06 +1.0797240540227637e+08 
+2.9000000000000012e+00 -1.1004572142663680e+00 +2.4678057618724649e+00 +2.1785944762239129e+01 -1.4662826219438500e+02 -1.5152568450377159e+04 +1.6163203627818050e+06 +1.1849593075042492e+08 
+3.0000000000000013e+00 -1.1004561515946172e+00 +2.4675397836126280e+00 +2.1860109862319995e+01 -1.3772055369061587e+02 -1.7210437765484687e+04 +1.5632252534800207e+06 +1.2972756469069962e+08 
+3.1000000000000014e+00 -1.1004550723124045e+00 +2.4673508660820498e+00 +2.1936074876041506e+01 -1.3080437963393933e+02 -1.9286193405498234e+04 +1.5215816321678231e+06 +1.4103532130470923e+08 
+3.2000000000000015e+00 -1.1004539646244864e+00 +2.4672542103837358e+00 +2.2009780429707877e+01 -1.2639842613028706e+02 -2.1263277568860929e+04 +1.4945192666075910e+06 +1.5178719173744380e+08 
+3.3000000000000016e+00 -1.1004528167370529e+00 +2.4672650174676294e+00 +2.2077167210229447e+01 -1.2502139204165830e+02 -2.3025130485698945e+04 +1.4851680638542690e+06 +1.6135114188793716e+08 
+3.4000000000000017e+00 -1.1004516168577969e+00 +2.4673984881247804e+00 +2.2134175965284072e+01 -1.2719199004575754e+02 -2.4455190188470759e+04 +1.4966580808990377e+06 +1.6909511014952442e+08 
+3.5000000000000018e+00 -1.1004503531960275e+00 +2.4676698229523613e+00 +2.2176747511599707e+01 -1.3342894670079539e+02 -2.5436892483679723e+04 +1.5321195223982655e+06 +1.7438700564176545e+08 
+3.6000000000000019e+00 -1.1004490193543353e+00 +2.4680859236818757e+00 +2.2201936613513347e+01 -1.4399892156008715e+02 -2.5887311116946283e+04 +1.5931508989806480e+06 +1.7677674339627030e+08 
+3.7000000000000020e+00 -1.1004476298506198e+00 +2.4686185523484201e+00 +2.2211531946202580e+01 -1.5807777647607153e+02 -2.5867600945658167e+04 +1.6747678486059071e+06 +1.7660207178559470e+08 
+3.8000000000000020e+00 -1.1004462043239498e+00 +2.4692301530607748e+00 +2.2208588690797932e+01 -1.7454610122977277e+02 -2.5477712268214280e+04 +1.7702129246460802e+06 +1.7441473861902973e+08 
+3.9000000000000021e+00 -1.1004447624073710e+00 +2.4698831690553580e+00 +2.2196161401770237e+01 -1.9228442995690841e+02 -2.4817586614362117e+04 +1.8727282338271455e+06 +1.7076646648015746e+08 
+4.0000000000000018e+00 -1.1004433237270854e+00 +2.4705400428485738e+00 +2.2177303889389414e+01 -2.1017324598920430e+02 -2.3987154239665349e+04 +1.9755554584935731e+06 +1.6620894076167238e+08 
+4.1000000000000014e+00 -1.1004419079020111e+00 +2.4711632162035508e+00 +2.2155069172368911e+01 -2.2709297883457342e+02 -2.3086333436460493e+04 +2.0719358302448287e+06 +1.6129380758751374e+08 
+4.2000000000000011e+00 -1.1004405345434030e+00 +2.4717151300806979e+00 +2.2132509439871949e+01 -2.4192400067015302e+02 -2.2215030036462129e+04 +2.1551101007262790e+06 +1.5657267268601626e+08 
+4.3000000000000007e+00 -1.1004392232543190e+00 +2.4721582245921101e+00 +2.2112675992288601e+01 -2.5354662295663340e+02 -2.1473136499508269e+04 +2.2183185131065785e+06 +1.5259709826512673e+08 
+4.4000000000000004e+00 -1.1004379936291948e+00 +2.4724549389518127e+00 +2.2098619198371654e+01 -2.6084109294210958e+02 -2.0960531322545459e+04 +2.2548007729769829e+06 +1.4991860143126461e+08 
+4.5000000000000000e+00 -1.1004368652532670e+00 +2.4725677115032303e+00 +2.2093388435016447e+01 -2.6268759384912113e+02 -2.0777078214907495e+04 +2.2577960658287620e+06 +1.4908865375360337e+08 
+4.5999999999999996e+00 -1.1004358521488169e+00 +2.4724711344133627e+00 +2.2099309160817810e+01 -2.5832481033458311e+02 -2.0997382078552764e+04 +2.2227631107661920e+06 +1.5052086331051171e+08 
+4.6999999999999993e+00 -1.1004349478615694e+00 +2.4721903463643975e+00 +2.2115370406499832e+01 -2.4851758366186837e+02 -2.1579427868972522e+04 +2.1545346322604022e+06 +1.5397509344403943e+08 
+4.7999999999999989e+00 -1.1004341411571368e+00 +2.4717637091320945e+00 +2.2139594934368507e+01 -2.3443964239956171e+02 -2.2447511595250966e+04 +2.0604420287915184e+06 +1.5901884929082152e+08 
+4.8999999999999986e+00 -1.1004334208105961e+00 +2.4712295864470071e+00 +2.2170006645553350e+01 -2.1726481963411482e+02 -2.3525948597956020e+04 +1.9478175143331748e+06 +1.6521971367222974e+08 
+4.9999999999999982e+00 -1.1004327756076295e+00 +2.4706263436337483e+00 +2.2204630782963378e+01 -1.9816703848850031e+02 -2.4739078574028586e+04 +1.8239940317110745e+06 +1.7214537406198913e+08 
+5.0999999999999979e+00 -1.1004321943451776e+00 +2.4699923476712002e+00 +2.2241494009185839e+01 -1.7832031626599991e+02 -2.6011266954651968e+04 +1.6963052878999647e+06 +1.7936362839773622e+08 
+5.1999999999999975e+00 -1.1004316658320525e+00 +2.4693659672893786e+00 +2.2278624487397590e+01 -1.5889876967418596e+02 -2.7266906392554272e+04 +1.5720857956409710e+06 +1.8644239154594606e+08 
+5.2999999999999972e+00 -1.1004311788894765e+00 +2.4687855730471595e+00 +2.2314051945354517e+01 -1.4107661949478975e+02 -2.8430417886047635e+04 +1.4586709118358649e+06 +1.9294969993698594e+08 
+5.3999999999999968e+00 -1.1004307223517458e+00 +2.4682895374228768e+00 +2.2345807760983984e+01 -1.2602819561580863e+02 -2.9426252338413105e+04 +1.3633968779839759e+06 +1.9845371832517448e+08 
+5.4999999999999964e+00 -1.1004302850670860e+00 +2.4679162347963244e+00 +2.2371925058350666e+01 -1.1492793638953012e+02 -3.0178892089317160e+04 +1.2936007889463985e+06 +2.0252274280859816e+08 
+5.5999999999999961e+00 -1.1004298584639718e+00 +2.4676945648178377e+00 +2.2390821505697787e+01 -1.0867322170413669e+02 -3.0628335013012864e+04 +1.2548715121395169e+06 +2.0481128347406775e+08 
+5.6999999999999957e+00 -1.1004294426267549e+00 +2.4676139010621854e+00 +2.2402877201597736e+01 -1.0697426027800405e+02 -3.0791444157777994e+04 +1.2453753939231953e+06 +2.0541800227033740e+08 
+5.7999999999999954e+00 -1.1004290394966225e+00 +2.4676532062041203e+00 +2.2409091997097921e+01 -1.0921962090325917e+02 -3.0708676031348878e+04 +1.2612775587250851e+06 +2.0458102474214661e+08 
+5.8999999999999950e+00 -1.1004286510086516e+00 +2.4677914401507910e+00 +2.2410465050235192e+01 -1.1479774320126326e+02 -3.0420475699732033e+04 +1.2987421484585803e+06 +2.0253843086608380e+08 
+5.9999999999999947e+00 -1.1004282790906503e+00 +2.4680075605814675e+00 +2.2407994601374220e+01 -1.2309696071764182e+02 -2.9967270815572385e+04 +1.3539324745490204e+06 +1.9952822099916369e+08 
+6.0999999999999943e+00 -1.1004279256628864e+00 +2.4682805228493563e+00 +2.2402677939917162e+01 -1.3350549613331242e+02 -2.9389470994563551e+04 +1.4230109801859348e+06 +1.9578831310933265e+08 
+6.1999999999999940e+00 -1.1004275926377192e+00 +2.4685892798718423e+00 +2.2395511356572637e+01 -1.4541145614879045e+02 -2.8727466907402137e+04 +1.5021392006880757e+06 +1.9155653862049836e+08 
+6.2999999999999936e+00 -1.1004272819191481e+00 +2.4689127820587387e+00 +2.2387490086413251e+01 -1.5820282746707602e+02 -2.8021629202662247e+04 +1.5874777302259933e+06 +1.8707063747651544e+08 
+6.3999999999999932e+00 -1.1004269954026387e+00 +2.4692299771727342e+00 +2.2379608285463675e+01 -1.7126747081631899e+02 -2.7312308055370293e+04 +1.6751861772282463e+06 +1.8256825614176616e+08 
+6.4999999999999929e+00 -1.1004267349745029e+00 +2.4695198103180429e+00 +2.2372858960225802e+01 -1.8399311744005266e+02 -2.6639831644783513e+04 +1.7614231493301638e+06 +1.7828694152601647e+08 
+6.5999999999999925e+00 -1.1004265006900089e+00 +2.4697645752597497e+00 +2.2368101723427223e+01 -1.9582741293839877e+02 -2.6039300301681807e+04 +1.8426743671065443e+06 +1.7443405990032929e+08 
+6.6999999999999922e+00 -1.1004262846939268e+00 +2.4699605587680540e+00 +2.2365303162312259e+01 -2.0648881897747336e+02 -2.5518054469440234e+04 +1.9169177262194948e+06 +1.7105958039888582e+08 
+6.7999999999999918e+00 -1.1004260770033651e+00 +2.4701077421481576e+00 +2.2364112882745367e+01 -2.1577249065782541e+02 -2.5074611598880616e+04 +1.9825597094493853e+06 +1.6816394495474133e+08 
+6.8999999999999915e+00 -1.1004258676337604e+00 +2.4702061092597090e+00 +2.2364180030602565e+01 -2.2347367769881905e+02 -2.4707479910364662e+04 +2.0380074814412058e+06 +1.6574755547288907e+08 
+6.9999999999999911e+00 -1.1004256465989979e+00 +2.4702556463661618e+00 +2.2365153329178010e+01 -2.2938771832897433e+02 -2.4415159588061801e+04 +2.0816688430849372e+06 +1.6381078202353719e+08 
+7.0999999999999908e+00 -1.1004254039113703e+00 +2.4702563422221844e+00 +2.2366681067513209e+01 -2.3331004262090178e+02 -2.4196142565562015e+04 +2.1119522559122322e+06 +1.6235396205917156e+08 
+7.1999999999999904e+00 -1.1004251295815604e+00 +2.4702081881729296e+00 +2.2368411088144420e+01 -2.3503617614839590e+02 -2.4048912281792778e+04 +2.1272668682991103e+06 +1.6137739944204503e+08 
+7.2999999999999901e+00 -1.1004248136185912e+00 +2.4701111782495655e+00 +2.2369990774370201e+01 -2.3436174356157301e+02 -2.3971943450456652e+04 +2.1260225412687082e+06 +1.6088136359943244e+08 
+7.3999999999999897e+00 -1.1004244460298152e+00 +2.4699653092568408e+00 +2.2371067039274891e+01 -2.3108247189680557e+02 -2.3963701838207944e+04 +2.1066298726436649e+06 +1.6086608864872617e+08 
+7.4999999999999893e+00 -1.1004240168200035e+00 +2.4697705809244530e+00 +2.2371286198290441e+01 -2.2499420551317377e+02 -2.4022642879907489e+04 +2.0675003333084981e+06 +1.6133177236529550e+08 
+7.5999999999999890e+00 -1.1004235172061434e+00 +2.4695297193059522e+00 +2.2370200072315850e+01 -2.1604457757318323e+02 -2.4143781860718682e+04 +2.0081124561506270e+06 +1.6226223957290286e+08 
+7.6999999999999886e+00 -1.1004229484895074e+00 +2.4692570018474940e+00 +2.2367465182171042e+01 -2.0481443225381918e+02 -2.4309049061198046e+04 +1.9323370468586700e+06 +1.6354997423614195e+08 
+7.7999999999999883e+00 -1.1004223156525470e+00 +2.4689698311250061e+00 +2.2362859269841106e+01 -1.9205477030366336e+02 -2.4496636826741571e+04 +1.8452140618042550e+06 +1.6505488038768962e+08 
+7.8999999999999879e+00 -1.1004216236863176e+00 +2.4686856086622115e+00 +2.2356161335305320e+01 -1.7851657877381743e+02 -2.4684758003783088e+04 +1.7517833932803913e+06 +1.6663693599061164e+08 
+7.9999999999999876e+00 -1.1004208775914808e+00 +2.4684217341252945e+00 +2.2347151845606017e+01 -1.6495079227688609e+02 -2.4851652338288332e+04 +1.6570846073589087e+06 +1.6815623063945580e+08 
+8.0999999999999872e+00 -1.1004200823785888e+00 +2.4681956052752860e+00 +2.2335612778343737e+01 -1.5210829163343863e+02 -2.4975587265974082e+04 +1.5661569351997294e+06 +1.6947296877516583e+08 
+8.1999999999999869e+00 -1.1004192430684767e+00 +2.4680246179068539e+00 +2.2321327682168619e+01 -1.4073990212767583e+02 -2.5034859044935434e+04 +1.4840392620691012e+06 +1.7044747457765576e+08 
+8.2999999999999865e+00 -1.1004183646925156e+00 +2.4679261657665830e+00 +2.2304081715927218e+01 -1.3159639116006318e+02 -2.5007793466359581e+04 +1.4157701128638030e+06 +1.7094019481781018e+08 
+8.3999999999999861e+00 -1.1004174522929360e+00 +2.4679176405138099e+00 +2.2283661699766153e+01 -1.2542846713663103e+02 -2.4872746797215201e+04 +1.3663876448111020e+06 +1.7081170281127799e+08 
+8.4999999999999858e+00 -1.1004165109252353e+00 +2.4680164317135023e+00 +2.2259856451050027e+01 -1.2298676701387105e+02 -2.4608111258669116e+04 +1.3409294670683374e+06 +1.6992271402071145e+08 
+8.5999999999999854e+00 -1.1004155530691646e+00 +2.4682326062465347e+00 +2.2233022226162127e+01 -1.2476739646896935e+02 -2.4206015459574348e+04 +1.3427723763779174e+06 +1.6820038360053805e+08 
+8.6999999999999851e+00 -1.1004146110497641e+00 +2.4685456151353367e+00 +2.2205176039994655e+01 -1.3017914046921535e+02 -2.3712929114278144e+04 +1.3682885921895450e+06 +1.6587696024999934e+08 
+8.7999999999999847e+00 -1.1004137199670834e+00 +2.4689267748784336e+00 +2.2178647379492119e+01 -1.3833299366693419e+02 -2.3190096265684915e+04 +1.4119413893868679e+06 +1.6327786138081998e+08 
+8.8999999999999844e+00 -1.1004129149076540e+00 +2.4693474000832225e+00 +2.2155764184426999e+01 -1.4833984173605529e+02 -2.2698738173826681e+04 +1.4681932292541033e+06 +1.6072842837612218e+08 
+8.9999999999999840e+00 -1.1004122309423656e+00 +2.4697788050544189e+00 +2.2138852409311642e+01 -1.5931053757462988e+02 -2.2300040031133380e+04 +1.5315062828045073e+06 +1.5855384708354390e+08 
+9.0999999999999837e+00 -1.1004117031260694e+00 +2.4701923037607871e+00 +2.2130235972533100e+01 -1.7035589972355700e+02 -2.2055150045719252e+04 +1.5963424190266381e+06 +1.5707914393248817e+08 
+9.1999999999999833e+00 -1.1004113664970570e+00 +2.4705592098617970e+00 +2.2132236690019916e+01 -1.8058671243714591e+02 -2.2025178223080162e+04 +1.6571632024615612e+06 +1.5662918059371927e+08 
+9.2999999999999829e+00 -1.1004112560766106e+00 +2.4708508366823461e+00 +2.2147174217203297e+01 -1.8911372433116708e+02 -2.2271195318306538e+04 +1.7084298827805542e+06 +1.5752864949471483e+08 
+9.3999999999999826e+00 -1.1004114068686073e+00 +2.4710384972216111e+00 +2.2177365997751270e+01 -1.9504764797260924e+02 -2.2854231894997622e+04 +1.7446033896722272e+06 +1.6010206976696831e+08 
+9.4999999999999822e+00 -1.1004118538546876e+00 +2.4710935031955992e+00 +2.2225126530935583e+01 -1.9749913458246255e+02 -2.3835263002278323e+04 +1.7601443532775468e+06 +1.6467372502085763e+08 
+9.5999999999999819e+00 -1.1004126086836055e+00 +2.4709962675672767e+00 +2.2291146704152343e+01 -1.9582916386528734e+02 -2.5240644326874619e+04 +1.7510693675934486e+06 +1.7140282429871261e+08 
+9.6999999999999815e+00 -1.1004136019066295e+00 +2.4707662357867983e+00 +2.2370245790902320e+01 -1.9053489845107555e+02 -2.6961864872771879e+04 +1.7203150100707253e+06 +1.7976861234939080e+08 
+9.7999999999999812e+00 -1.1004147463476250e+00 +2.4704334365436624e+00 +2.2455838055445202e+01 -1.8243960953489909e+02 -2.8855085075206349e+04 +1.6727890464823761e+06 +1.8906242826089260e+08 
+9.8999999999999808e+00 -1.1004159548466197e+00 +2.4700279061099546e+00 +2.2541339497052139e+01 -1.7236690202296793e+02 -3.0776491509346022e+04 +1.6134016017714497e+06 +1.9857571165423471e+08 
+9.9999999999999805e+00 -1.1004171402633427e+00 +2.4695796860164432e+00 +2.2620168584404830e+01 -1.6114060954595632e+02 -3.2582317944799641e+04 +1.5470644834456146e+06 +2.0760012341059887e+08 
+1.0099999999999980e+01 -1.1004182154776829e+00 +2.4691188231607288e+00 +2.2685746314703799e+01 -1.4958479947189244e+02 -3.4128846482063425e+04 +1.4786912195062872e+06 +2.1542755100256190e+08 
