# multipoles
# s[mm] polynom_b[n=0][T/m^n] polynom_b[n=1][T/m^n] polynom_b[n=2][T/m^n] polynom_b[n=3][T/m^n] polynom_b[n=4][T/m^n] polynom_b[n=5][T/m^n] polynom_b[n=6][T/m^n] 
+0.0000000000000000e+00 -1.0310005525886439e+00 +2.2713527603693020e+00 +1.7261888087685048e+01 +7.7308795020354682e+02 +4.7151737872822698e+04 -4.4072352354117008e+06 -1.6046273228489220e+08 
+1.0005104645227200e-01 -1.0310006253507600e+00 +2.2715496448140331e+00 +1.7305520034857093e+01 +7.6674805451315262e+02 +4.6607276038688760e+04 -4.3629204396356354e+06 -1.5831578834555143e+08 
+2.0010209290454301e-01 -1.0310007173868527e+00 +2.2717254606039488e+00 +1.7347990181658723e+01 +7.6075843723572302e+02 +4.6097737159316443e+04 -4.3201867225095071e+06 -1.5638638548686725e+08 
+3.0015313935681498e-01 -1.0310008369898831e+00 +2.2718815559815315e+00 +1.7389893015031962e+01 +7.5507098701306586e+02 +4.5614423400341097e+04 -4.2787813773941724e+06 -1.5464243640404019e+08 
+4.0020418580908601e-01 -1.0310009924526431e+00 +2.2720192791540259e+00 +1.7431823004781005e+01 +7.4963759350593205e+02 +4.5148637270209132e+04 -4.2384517028914448e+06 -1.5305185559504735e+08 
+5.0025523226135804e-01 -1.0310011920677715e+00 +2.2721399782748692e+00 +1.7474374607292606e+01 +7.4441014791382588e+02 +4.4691681558709293e+04 -4.1989450056526512e+06 -1.5158255912211439e+08 
+6.0030627871362996e-01 -1.0310014421506206e+00 +2.2722451238824197e+00 +1.7518017807778524e+01 +7.3934023852415237e+02 +4.4236695927175693e+04 -4.1600059634125247e+06 -1.5020907792529988e+08 
+7.0035732516590099e-01 -1.0310017411918742e+00 +2.2723366710867592e+00 +1.7562731151180767e+01 +7.3437835792408043e+02 +4.3784044333379410e+04 -4.1213703581648502e+06 -1.4893187348832610e+08 
+8.0040837161817302e-01 -1.0310020857467161e+00 +2.2724166948054791e+00 +1.7608371892500230e+01 +7.2947475661046224e+02 +4.3335866879093483e+04 -4.0827721628003535e+06 -1.4775776183159679e+08 
+9.0045941807044405e-01 -1.0310024723702953e+00 +2.2724872699289222e+00 +1.7654797286434214e+01 +7.2457968567549710e+02 +4.2894303727118757e+04 -4.0439453522008872e+06 -1.4669355957924509e+08 
+1.0005104645227201e+00 -1.0310028976177614e+00 +2.2725504713327274e+00 +1.7701864590854761e+01 +7.1964339640577725e+02 +4.2461495027491255e+04 -4.0046239008079302e+06 -1.4574608358601537e+08 
+1.1005615109749900e+00 -1.0310033580442535e+00 +2.2726083738774689e+00 +1.7749431063951683e+01 +7.1461614024016103e+02 +4.2039580988670088e+04 -3.9645417821918521e+06 -1.4492215132341424e+08 
+1.2006125574272599e+00 -1.0310038502050318e+00 +2.2726630524148326e+00 +1.7797353979906063e+01 +7.0944816855045792e+02 +4.1630701576231826e+04 -3.9234329676710484e+06 -1.4422857944110936e+08 
+1.3006636038795301e+00 -1.0310043706553804e+00 +2.2727165818046351e+00 +1.7845490618534839e+01 +7.0408973210285785e+02 +4.1236996718049057e+04 -3.8810314229976805e+06 -1.4367218476354927e+08 
+1.4007146503318000e+00 -1.0310049159507504e+00 +2.2727710369054894e+00 +1.7893698279130945e+01 +6.9849108128427395e+02 +4.0860606045906396e+04 -3.8370711095641493e+06 -1.4325978307785711e+08 
+1.5007656967840699e+00 -1.0310054826467343e+00 +2.2728284925955502e+00 +1.7941834280754758e+01 +6.9260246545157088e+02 +4.0503668890938257e+04 -3.7912859804246835e+06 -1.4299818911329249e+08 
+1.6008167432363500e+00 -1.0310060672991286e+00 +2.2728910237722437e+00 +1.7989755966040956e+01 +6.8637413290030395e+02 +4.0168324219672351e+04 -3.7434099800171461e+06 -1.4289421626404935e+08 
+1.7008677896886200e+00 -1.0310066664639037e+00 +2.2729607053565792e+00 +1.8037320698268278e+01 +6.7975633068400180e+02 +3.9856710694787369e+04 -3.6931770429165876e+06 -1.4295467689092216e+08 
+1.8009188361408901e+00 -1.0310072766973246e+00 +2.2730396123106078e+00 +1.8084385876298715e+01 +6.7269930407549316e+02 +3.9570966391989939e+04 -3.6403210905921333e+06 -1.4318638097832000e+08 
+1.9009698825931600e+00 -1.0310078945559240e+00 +2.2731298196290659e+00 +1.8130808930069897e+01 +6.6515329675871362e+02 +3.9313228893581530e+04 -3.5845760323729985e+06 -1.4359613660340303e+08 
+2.0010209290454299e+00 -1.0310085165965344e+00 +2.2732334023578589e+00 +1.8176447325066793e+01 +6.5706855025075288e+02 +3.9085635205086706e+04 -3.5256757619194416e+06 -1.4419074954410404e+08 
+2.1010719754977001e+00 -1.0310091393763710e+00 +2.2733524355949757e+00 +1.8221158569654037e+01 +6.4839530381739473e+02 +3.8890321624528675e+04 -3.4633541566030299e+06 -1.4497702268364775e+08 
+2.2011230219499698e+00 -1.0310097594529541e+00 +2.2734889944999943e+00 +1.8264800207718167e+01 +6.3908379417147444e+02 +3.8729423887486169e+04 -3.3973450756008150e+06 -1.4596175671451131e+08 
+2.3011740684022501e+00 -1.0310103733843150e+00 +2.2736451542976015e+00 +1.8307229843444418e+01 +6.2908425531694616e+02 +3.8605076688566471e+04 -3.3273823588406257e+06 -1.4715174783996260e+08 
+2.4012251148545198e+00 -1.0310109777288274e+00 +2.2738229902882563e+00 +1.8348305117188659e+01 +6.1834691818641784e+02 +3.8519414164218622e+04 -3.2531998247438399e+06 -1.4855379014499295e+08 
+2.5012761613067900e+00 -1.0310115690454260e+00 +2.2740245778460446e+00 +1.8387883733681651e+01 +6.0682201070124381e+02 +3.8474569352438826e+04 -3.1745312708076765e+06 -1.5017467303784621e+08 
+2.6013272077590601e+00 -1.0310121441319717e+00 +2.2742513074898900e+00 +1.8425851704733248e+01 +5.9448186702061048e+02 +3.8471516972621248e+04 -3.0912420435907468e+06 -1.5201456124721727e+08 
+2.7013782542113298e+00 -1.0310127006808807e+00 +2.2745018839977558e+00 +1.8462221024433553e+01 +5.8138642935546216e+02 +3.8506176541874411e+04 -3.0037177533524777e+06 -1.5404450055466971e+08 
+2.8014293006636000e+00 -1.0310132365965796e+00 +2.2747743523131652e+00 +1.8497038587870907e+01 +5.6761739772389740e+02 +3.8573094902496858e+04 -2.9124730135819688e+06 -1.5622759319892150e+08 
+2.9014803471158799e+00 -1.0310137497833691e+00 +2.2750667574236738e+00 +1.8530351264989331e+01 +5.5325647233705024e+02 +3.8666819346176868e+04 -2.8180224459601254e+06 -1.5852694312073126e+08 
+3.0015313935681500e+00 -1.0310142381453060e+00 +2.2753771443696298e+00 +1.8562205886184884e+01 +5.3838535351292751e+02 +3.8781897874100716e+04 -2.7208806806854154e+06 -1.6090565711845237e+08 
+3.1015824400204202e+00 -1.0310146995862925e+00 +2.2757035582289888e+00 +1.8592649252812226e+01 +5.2308574226693281e+02 +3.8912878987964017e+04 -2.6215623606439959e+06 -1.6332684378145024e+08 
+3.2016334864726899e+00 -1.0310151320099405e+00 +2.2760440441439589e+00 +1.8621728118716234e+01 +5.0743933969593792e+02 +3.9054312028725355e+04 -2.5205821386334100e+06 -1.6575361502788574e+08 
+3.3016845329249600e+00 -1.0310155333196036e+00 +2.2763966472946344e+00 +1.8649489193399344e+01 +4.9152784795476163e+02 +3.9200747113464342e+04 -2.4184546839555502e+06 -1.6814908574792722e+08 
+3.4017355793772301e+00 -1.0310159014183069e+00 +2.2767594129228033e+00 +1.8675979135316616e+01 +4.7543296968472220e+02 +3.9346735246023949e+04 -2.3156946797410846e+06 -1.7047637424309695e+08 
+3.5017866258295101e+00 -1.0310162342087492e+00 +2.2771303863232086e+00 +1.8701244548170532e+01 +4.5923640847441891e+02 +3.9486828379643761e+04 -2.2128168265930219e+06 -1.7269860245807162e+08 
+3.6018376722817802e+00 -1.0310165295932519e+00 +2.2775076128445506e+00 +1.8725331975256683e+01 +4.4301986895705977e+02 +3.9615579516768288e+04 -2.1103358438073453e+06 -1.7477889638815886e+08 
+3.7018887187340499e+00 -1.0310167854736898e+00 +2.2778891378956740e+00 +1.8748287890345026e+01 +4.2686505684211897e+02 +3.9727542871374055e+04 -2.0087664705037600e+06 -1.7668038678084502e+08 
+3.8019397651863200e+00 -1.0310169997515692e+00 +2.2782730069445125e+00 +1.8770158707325646e+01 +4.1085367907515587e+02 +3.9817273671870498e+04 -1.9086234672314289e+06 -1.7836620811302942e+08 
+3.9019908116385902e+00 -1.0310171703278996e+00 +2.2786572655173494e+00 +1.8790990760880643e+01 +3.9506744405441003e+02 +3.9879328526475074e+04 -1.8104216181531525e+06 -1.7979950028146461e+08 
+4.0020418580908599e+00 -1.0310172951031724e+00 +2.2790399592064681e+00 +1.8810830306894928e+01 +3.7958806156110631e+02 +3.9908265398803167e+04 -1.7146757313553337e+06 -1.8094340839675239e+08 
+4.1020929045431300e+00 -1.0310173719773734e+00 +2.2794191336659231e+00 +1.8829723521873614e+01 +3.6449724305002957e+02 +3.9898643609091538e+04 -1.6219006413664818e+06 -1.8176108271696708e+08 
+4.2021439509954099e+00 -1.0310173988499149e+00 +2.2797928346153493e+00 +1.8847716491915900e+01 +3.4987670171436810e+02 +3.9845024040827804e+04 -1.5326112103750866e+06 -1.8221567958021349e+08 
+4.3021949974476801e+00 -1.0310173736196295e+00 +2.2801591078457655e+00 +1.8864855213766948e+01 +3.3580815247888967e+02 +3.9741969103693918e+04 -1.4473223289610217e+06 -1.8227036113513836e+08 
+4.4022460438999502e+00 -1.0310172941847109e+00 +2.2805159992110720e+00 +1.8881185585265687e+01 +3.2237331240698899e+02 +3.9584042908741176e+04 -1.3665489192534119e+06 -1.8188829611559433e+08 
+4.5022970903522204e+00 -1.0310171584427075e+00 +2.2808615546369011e+00 +1.8896753404860210e+01 +3.0965390039820710e+02 +3.9365811252253821e+04 -1.2908059323127209e+06 -1.8103265952718702e+08 
+4.6023481368044896e+00 -1.0310169659729365e+00 +2.2811941782405061e+00 +1.8911665232967451e+01 +2.9771014755975864e+02 +3.9082555586345516e+04 -1.2204602862073071e+06 -1.7967464840230075e+08 
+4.7023991832567598e+00 -1.0310167226449849e+00 +2.2815138234310779e+00 +1.8926236005057294e+01 +2.8651142450061519e+02 +3.8733388016024866e+04 -1.1552583258276824e+06 -1.7782342067629501e+08 
+4.8024502297090397e+00 -1.0310164357925877e+00 +2.2818208619540337e+00 +1.8940823350857258e+01 +2.7600304117799811e+02 +3.8318639590982675e+04 -1.0947831836074817e+06 -1.7549918610126463e+08 
+4.9025012761613098e+00 -1.0310161127496289e+00 +2.2821156653675478e+00 +1.8955784946856216e+01 +2.6613031087361162e+02 +3.7838640427626247e+04 -1.0386180008241585e+06 -1.7272215050440642e+08 
+5.0025523226135800e+00 -1.0310157608500687e+00 +2.2823986050218203e+00 +1.8971478510754260e+01 +2.5683855071067956e+02 +3.7293719803275562e+04 -9.8634592996855045e+05 -1.6951251624403226e+08 
+5.1026033690658501e+00 -1.0310153874281576e+00 +2.2826700520532772e+00 +1.8988261827383038e+01 +2.4807308162803457e+02 +3.6684205656700477e+04 -9.3755013370793941e+05 -1.6589047986409622e+08 
+5.2026544155181202e+00 -1.0310149998182292e+00 +2.2829303773644494e+00 +1.9006492727204439e+01 +2.3977922880519580e+02 +3.6010424998176153e+04 -8.9181378650005744e+05 -1.6187623409842142e+08 
+5.3027054619703904e+00 -1.0310146053549134e+00 +2.2831799516168214e+00 +1.9026529111515991e+01 +2.3190232168106107e+02 +3.5272703432564813e+04 -8.4872007383082621e+05 -1.5748996565693292e+08 
+5.4027565084226703e+00 -1.0310142113730298e+00 +2.2834191452171315e+00 +1.9048728946118164e+01 +2.2438769420904669e+02 +3.4471365268239875e+04 -8.0785219287483359e+05 -1.5275185576165617e+08 
+5.5028075548749404e+00 -1.0310138252076086e+00 +2.2836483283057256e+00 +1.9073450260451136e+01 +2.1718068497615587e+02 +3.3606733543386872e+04 -7.6879335224203649e+05 -1.4768208034812707e+08 
+5.6028586013272097e+00 -1.0310134541939802e+00 +2.2838678707467399e+00 +1.9101051164162122e+01 +2.1022663734918595e+02 +3.2679129702047245e+04 -7.3112677202914271e+05 -1.4230080854979518e+08 
+5.7029096477794798e+00 -1.0310131056677265e+00 +2.2840781421097698e+00 +1.9131889841570153e+01 +2.0347089981612953e+02 +3.1688873700924476e+04 -6.9443568491066888e+05 -1.3662820325786680e+08 
+5.8029606942317500e+00 -1.0310127869646779e+00 +2.2842795116638799e+00 +1.9166324553157850e+01 +1.9685882599815216e+02 +3.0636283981698110e+04 -6.5830333536890068e+05 -1.3068442104334694e+08 
+5.9030117406840201e+00 -1.0310125054210286e+00 +2.2844723483674882e+00 +1.9204713652953817e+01 +1.9033577474910865e+02 +2.9521677133962399e+04 -6.2231297934669140e+05 -1.2448961058228721e+08 
+6.0030627871363000e+00 -1.0310122683732350e+00 +2.2846570208475043e+00 +1.9247415575953482e+01 +1.8384711060477395e+02 +2.8345368134448312e+04 -5.8604788606168784e+05 -1.1806391384486769e+08 
+6.1031138335885702e+00 -1.0310120831581093e+00 +2.2848338973946127e+00 +1.9294788852372442e+01 +1.7733820373988243e+02 +2.7107670082225224e+04 -5.4909133685942437e+05 -1.1142746490122534e+08 
+6.2031648800408403e+00 -1.0310119571127740e+00 +2.2850033459478536e+00 +1.9347192104487860e+01 +1.7075443023666531e+02 +2.5808894247002012e+04 -5.1102662589803868e+05 -1.0460039016892028e+08 
+6.3032159264931096e+00 -1.0310118975747569e+00 +2.2851657340851181e+00 +1.9404984059840906e+01 +1.6404117220211606e+02 +2.4449349820771902e+04 -4.7143706001181802e+05 -9.7602807285590917e+07 
+6.4032669729453797e+00 -1.0310119118819132e+00 +2.2853214290087420e+00 +1.9468523543806249e+01 +1.5714381799217591e+02 +2.3029344061274140e+04 -4.2990595908051968e+05 -9.0454825851277769e+07 
+6.5033180193976499e+00 -1.0310120073725904e+00 +2.2854707975601491e+00 +1.9538169507619418e+01 +1.5000776197654770e+02 +2.1549181741317563e+04 -3.8601665668603353e+05 -8.3176545008049741e+07 
+6.6033690658499298e+00 -1.0310121895594022e+00 +2.2856140235452651e+00 +1.9614168278411487e+01 +1.4259360691353351e+02 +2.0009715083267358e+04 -3.3946096394166356e+05 -7.5786642121942401e+07 
+6.7034201123021999e+00 -1.0310124569668473e+00 +2.2857504574217766e+00 +1.9696319828648107e+01 +1.3492775011961740e+02 +1.8413650103562901e+04 -2.9039439538741007e+05 -6.8295415322669193e+07 
+6.8034711587544701e+00 -1.0310128064497874e+00 +2.2858792158084751e+00 +1.9784314836235566e+01 +1.2705436310919715e+02 +1.6764038182738419e+04 -2.3909664370896807e+05 -6.0710222559959814e+07 
+6.9035222052067402e+00 -1.0310132348623231e+00 +2.2859994155272694e+00 +1.9877843861914045e+01 +1.1901761123121533e+02 +1.5063933120113676e+04 -1.8584736213702228e+05 -5.3038434162530191e+07 
+7.0035732516590103e+00 -1.0310137390576852e+00 +2.2861101736186016e+00 +1.9976597329616649e+01 +1.1086165304240556e+02 +1.3316391545840805e+04 -1.3092616041358428e+05 -4.5287434920853905e+07 
+7.1036242981112796e+00 -1.0310143158883212e+00 +2.2862106073525852e+00 +2.0080265537802791e+01 +1.0263063999522493e+02 +1.1524472714491530e+04 -7.4612602920229911e+04 -3.7464623130839832e+07 
+7.2036753445635497e+00 -1.0310149622057541e+00 +2.2862998342419099e+00 +2.0188538640774837e+01 +9.4368716087895180e+01 +9.6912388682125293e+03 -1.7186206684025801e+04 -2.9577412351525720e+07 
+7.3037263910158297e+00 -1.0310156748605961e+00 +2.2863769720477194e+00 +2.0301106646289515e+01 +8.6120017673601794e+01 +7.8197552970010565e+03 +4.1073559808822196e+04 -2.1633231735130411e+07 
+7.4037774374680998e+00 -1.0310164507025319e+00 +2.2864411388005181e+00 +2.0417659416553878e+01 +7.7928672875877609e+01 +5.9130903208695572e+03 +9.9887280037457545e+04 -1.3639525949370096e+07 
+7.5038284839203699e+00 -1.0310172865802834e+00 +2.2864914528023395e+00 +2.0537886658379396e+01 +6.9838801532193742e+01 +3.9743154921971368e+03 +1.5897558975522837e+05 -5.6037561888194187e+06 
+7.6038795303726401e+00 -1.0310181793415552e+00 +2.2865270326416627e+00 +2.0661477916957615e+01 +6.1894514758027341e+01 +2.0065057281279571e+03 +2.1805917960831366e+05 +2.4665991542560188e+06 
+7.7039305768249102e+00 -1.0310191258330619e+00 +2.2865469972026209e+00 +2.0788122576508918e+01 +5.4139914694766212e+01 +1.2739294226879581e+01 +2.7685879655967694e+05 +1.0564044575224891e+07 
+7.8039816232771804e+00 -1.0310201229004097e+00 +2.2865504656740328e+00 +2.0917509847321593e+01 +4.6619094247438099e+01 -2.0039019272502933e+03 +3.3509524552269198e+05 +1.8681066110811211e+07 
+7.9040326697294496e+00 -1.0310211673881737e+00 +2.2865365575684908e+00 +2.1049328769376668e+01 +3.9376136542621836e+01 -4.0403324995219104e+03 +3.9248939245799900e+05 +2.6810131617716365e+07 
+8.0040837161817304e+00 -1.0310222561397726e+00 +2.2865043927239781e+00 +2.1183268199441279e+01 +3.2455114885078501e+01 -6.0934631809355951e+03 +4.4876216469750262e+05 +3.4943689561399169e+07 
+8.1041347626340006e+00 -1.0310233859974927e+00 +2.2864530913211469e+00 +2.1319016809053529e+01 +2.5900092256016535e+01 -8.1602008681060252e+03 +5.0363455388529779e+05 +4.3074168687716812e+07 
+8.2041858090862707e+00 -1.0310245538024809e+00 +2.2863817738913825e+00 +2.1456263085766743e+01 +1.9755121095639900e+01 -1.0237448623439515e+04 +5.5682761725280806e+05 +5.1193978162982814e+07 
+8.3042368555385409e+00 -1.0310257563946437e+00 +2.2862895613276839e+00 +2.1594695316469330e+01 +1.4064242992933517e+01 -1.2322105333979087e+04 +6.0806247943917790e+05 +5.9295505878750928e+07 
+8.4042879019908092e+00 -1.0310269906126646e+00 +2.2861755748968449e+00 +2.1734001589460625e+01 +8.8714883195194911e+00 -1.4411065749191586e+04 +6.5706033471123106e+05 +6.7371118622435257e+07 
+8.5043389484430794e+00 -1.0310282532934680e+00 +2.2860389363024032e+00 +2.1873869755210464e+01 +4.2208760312990696e+00 -1.6501219672323343e+04 +7.0354244438616594e+05 +7.5413157901517972e+07 
+8.6043899948953602e+00 -1.0310295402395850e+00 +2.2858795271034609e+00 +2.2013905158118092e+01 +1.4146256790758227e-01 -1.8588160221417209e+04 +7.4729573252365913e+05 +8.3408835737975657e+07 
+8.7044410413476303e+00 -1.0310308440392271e+00 +2.2856999319066378e+00 +2.2153412728724803e+01 -3.3900558649374761e+00 -2.0662761487370513e+04 +7.8832866385162191e+05 +9.1327409853381023e+07 
+8.8044920877999004e+00 -1.0310321566576943e+00 +2.2855033391805941e+00 +2.2291627311629920e+01 -6.4083837484059059e+00 -2.2714794990099876e+04 +8.2669533514605649e+05 +9.9134115709789813e+07 
+8.9045431342521706e+00 -1.0310334700615602e+00 +2.2852929378738143e+00 +2.2427783821640215e+01 -8.9482372825679022e+00 -2.4734033305105062e+04 +8.6244989532411087e+05 +1.0679419488455307e+08 
+9.0045941807044407e+00 -1.0310347762186993e+00 +2.2850719174355225e+00 +2.2561117243651061e+01 -1.1044345074448980e+01 -2.6710250037358979e+04 +8.9564655019779957e+05 +1.1427289484845568e+08 
+9.1046452271567109e+00 -1.0310360670982766e+00 +2.2848434678316059e+00 +2.2690862629692834e+01 -1.2731448513295328e+01 -2.8633219757390980e+04 +9.2633956410363177e+05 +1.2153546869717556e+08 
+9.2046962736089899e+00 -1.0310373346708601e+00 +2.2846107795568384e+00 +2.2816255107958774e+01 -1.4044302079913676e+01 -3.0492718160741570e+04 +9.5458326124878775e+05 +1.2854717593460029e+08 
+9.3047473200612600e+00 -1.0310385709084335e+00 +2.2843770436436919e+00 +2.2936529885010984e+01 -1.5017673498387717e+01 -3.2278522110662816e+04 +9.8043202600728360e+05 +1.3527328273341021e+08 
+9.4047983665135302e+00 -1.0310397677844338e+00 +2.2841454516831083e+00 +2.3050922245547621e+01 -1.5686344304023196e+01 -3.3980409622067265e+04 +1.0039403058032386e+06 +1.4167906188611794e+08 
+9.5048494129658003e+00 -1.0310409172737924e+00 +2.2839191958284717e+00 +2.3158667556636317e+01 -1.6085109840418564e+01 -3.5588159937931516e+04 +1.0251626104507155e+06 +1.4772979321281129e+08 
+9.6049004594180705e+00 -1.0310420113530052e+00 +2.2837014688099853e+00 +2.3259001274394755e+01 -1.6248779633994136e+01 -3.7091553651875525e+04 +1.0441535139163357e+06 +1.5339076419285819e+08 
+9.7049515058703406e+00 -1.0310430420001642e+00 +2.2834954639544733e+00 +2.3351158943490670e+01 -1.6212177903506738e+01 -3.8480372684775626e+04 +1.0609676567631669e+06 +1.5862726986709628e+08 
+9.8050025523226108e+00 -1.0310440011949629e+00 +2.2833043751876763e+00 +2.3434376198080756e+01 -1.6010143521378694e+01 -3.9744400306999014e+04 +1.0756597453399843e+06 +1.6340461301864558e+08 
+9.9050535987748898e+00 -1.0310448809188211e+00 +2.2831313970541021e+00 +2.3507888771717656e+01 -1.5677530553118052e+01 -4.0873421310533420e+04 +1.0882845544797594e+06 +1.6768810500197816e+08 
+1.0005104645227201e+01 -1.0310456731548359e+00 +2.2829797247274084e+00 +2.3570932492788742e+01 -1.5249208452725327e+01 -4.1857221921147189e+04 +1.0988969280643023e+06 +1.7144306537985030e+08 
+1.0105155691679400e+01 -1.0310463698879231e+00 +2.2828525540217166e+00 +2.3622743296898001e+01 -1.4760062339599811e+01 -4.2685590027084916e+04 +1.1075517801324083e+06 +1.7463482304909107e+08 
