# trajectory
# s[mm] rx[mm] ry[mm] rz[mm] px[rad] py[rad] pz[rad]
0.0000000000000000e+00 +9.1613000000000007e+00 +0.0000000000000000e+00 +0.0000000000000000e+00 +0.0000000000000000e+00 +0.0000000000000000e+00 +1.0000000000000000e+00
-1.0000000000000001e-01 +9.1612994839634574e+00 +0.0000000000000000e+00 -9.9999999998224703e-02 +1.0320722339339804e-05 +0.0000000000000000e+00 +9.9999999994674138e-01
-2.0000000000000001e-01 +9.1612979358572275e+00 +0.0000000000000000e+00 -1.9999999998579771e-01 +2.0641393806660016e-05 +0.0000000000000000e+00 +9.9999999978696652e-01
-3.0000000000000004e-01 +9.1612953556863719e+00 +0.0000000000000000e+00 -2.9999999995206750e-01 +3.0962014984268708e-05 +0.0000000000000000e+00 +9.9999999952067686e-01
-4.0000000000000002e-01 +9.1612917434558820e+00 +0.0000000000000000e+00 -3.9999999988638263e-01 +4.1282586639519679e-05 +0.0000000000000000e+00 +9.9999999914787407e-01
-5.0000000000000000e-01 +9.1612870991706643e+00 +0.0000000000000000e+00 -4.9999999977809190e-01 +5.1603109724813640e-05 +0.0000000000000000e+00 +9.9999999866855960e-01
-5.9999999999999998e-01 +9.1612814228355184e+00 +0.0000000000000000e+00 -5.9999999961654416e-01 +6.1923585377599688e-05 +0.0000000000000000e+00 +9.9999999808273488e-01
-6.9999999999999996e-01 +9.1612747144551250e+00 +0.0000000000000000e+00 -6.9999999939108859e-01 +7.2244014920377089e-05 +0.0000000000000000e+00 +9.9999999739040124e-01
-7.9999999999999993e-01 +9.1612669740340209e+00 +0.0000000000000000e+00 -7.9999999909107422e-01 +8.2564399860697373e-05 +0.0000000000000000e+00 +9.9999999659156003e-01
-8.9999999999999991e-01 +9.1612582015765831e+00 +0.0000000000000000e+00 -8.9999999870585046e-01 +9.2884741891166678e-05 +0.0000000000000000e+00 +9.9999999568621245e-01
-9.9999999999999989e-01 +9.1612483970870109e+00 +0.0000000000000000e+00 -9.9999999822476660e-01 +1.0320504288944847e-04 +0.0000000000000000e+00 +9.9999999467435963e-01
-1.0999999999999999e+00 +9.1612375605693046e+00 +0.0000000000000000e+00 -1.0999999976371722e+00 +1.1352530491826653e-04 +0.0000000000000000e+00 +9.9999999355600266e-01
-1.2000000000000000e+00 +9.1612256920272515e+00 +0.0000000000000000e+00 -1.1999999969324169e+00 +1.2384553022540821e-04 +0.0000000000000000e+00 +9.9999999233114245e-01
-1.3000000000000000e+00 +9.1612127914644024e+00 +0.0000000000000000e+00 -1.2999999960998505e+00 +1.3416572124372802e-04 +0.0000000000000000e+00 +9.9999999099977976e-01
-1.4000000000000001e+00 +9.1611988588840578e+00 +0.0000000000000000e+00 -1.3999999951288227e+00 +1.4448588059115153e-04 +0.0000000000000000e+00 +9.9999998956191527e-01
-1.5000000000000002e+00 +9.1611838942892465e+00 +0.0000000000000000e+00 -1.4999999940086834e+00 +1.5480601107067956e-04 +0.0000000000000000e+00 +9.9999998801754952e-01
-1.6000000000000003e+00 +9.1611678976827076e+00 +0.0000000000000000e+00 -1.5999999927287827e+00 +1.6512611565905479e-04 +0.0000000000000000e+00 +9.9999998636668297e-01
-1.7000000000000004e+00 +9.1611508690668781e+00 +0.0000000000000000e+00 -1.6999999912784700e+00 +1.7544619738204897e-04 +0.0000000000000000e+00 +9.9999998460931594e-01
-1.8000000000000005e+00 +9.1611328084438952e+00 +0.0000000000000000e+00 -1.7999999896470957e+00 +1.8576625918974735e-04 +0.0000000000000000e+00 +9.9999998274544843e-01
-1.9000000000000006e+00 +9.1611137158156080e+00 +0.0000000000000000e+00 -1.8999999878240097e+00 +1.9608630394520998e-04 +0.0000000000000000e+00 +9.9999998077508068e-01
-2.0000000000000004e+00 +9.1610935911835814e+00 +0.0000000000000000e+00 -1.9999999857985618e+00 +2.0640633442447034e-04 +0.0000000000000000e+00 +9.9999997869821244e-01
-2.1000000000000005e+00 +9.1610724345491086e+00 +0.0000000000000000e+00 -2.0999999835601022e+00 +2.1672635331653332e-04 +0.0000000000000000e+00 +9.9999997651484374e-01
-2.2000000000000006e+00 +9.1610502459132181e+00 +0.0000000000000000e+00 -2.1999999810979807e+00 +2.2704636322337283e-04 +0.0000000000000000e+00 +9.9999997422497422e-01
-2.3000000000000007e+00 +9.1610270252766810e+00 +0.0000000000000000e+00 -2.2999999784015470e+00 +2.3736636665992869e-04 +0.0000000000000000e+00 +9.9999997182860367e-01
-2.4000000000000008e+00 +9.1610027726400212e+00 +0.0000000000000000e+00 -2.3999999754601511e+00 +2.4768636605410315e-04 +0.0000000000000000e+00 +9.9999996932573165e-01
-2.5000000000000009e+00 +9.1609774880035264e+00 +0.0000000000000000e+00 -2.4999999722631432e+00 +2.5800636374675675e-04 +0.0000000000000000e+00 +9.9999996671635771e-01
-2.6000000000000010e+00 +9.1609511713672536e+00 +0.0000000000000000e+00 -2.5999999687998727e+00 +2.6832636199170375e-04 +0.0000000000000000e+00 +9.9999996400048119e-01
-2.7000000000000011e+00 +9.1609238227310374e+00 +0.0000000000000000e+00 -2.6999999650596895e+00 +2.7864636295570690e-04 +0.0000000000000000e+00 +9.9999996117810153e-01
-2.8000000000000012e+00 +9.1608954420945015e+00 +0.0000000000000000e+00 -2.7999999610319430e+00 +2.8896636871847192e-04 +0.0000000000000000e+00 +9.9999995824921806e-01
-2.9000000000000012e+00 +9.1608660294570665e+00 +0.0000000000000000e+00 -2.8999999567059831e+00 +2.9928638127264102e-04 +0.0000000000000000e+00 +9.9999995521383001e-01
-3.0000000000000013e+00 +9.1608355848179563e+00 +0.0000000000000000e+00 -2.9999999520711591e+00 +3.0960640252378631e-04 +0.0000000000000000e+00 +9.9999995207193659e-01
-3.1000000000000014e+00 +9.1608041081762099e+00 +0.0000000000000000e+00 -3.0999999471168205e+00 +3.1992643429040247e-04 +0.0000000000000000e+00 +9.9999994882353704e-01
-3.2000000000000015e+00 +9.1607715995306886e+00 +0.0000000000000000e+00 -3.1999999418323166e+00 +3.3024647830389890e-04 +0.0000000000000000e+00 +9.9999994546863036e-01
-3.3000000000000016e+00 +9.1607380588800851e+00 +0.0000000000000000e+00 -3.2999999362069965e+00 +3.4056653620859135e-04 +0.0000000000000000e+00 +9.9999994200721554e-01
-3.4000000000000017e+00 +9.1607034862229320e+00 +0.0000000000000000e+00 -3.3999999302302095e+00 +3.5088660956169302e-04 +0.0000000000000000e+00 +9.9999993843929169e-01
-3.5000000000000018e+00 +9.1606678815576092e+00 +0.0000000000000000e+00 -3.4999999238913047e+00 +3.6120669983330511e-04 +0.0000000000000000e+00 +9.9999993476485782e-01
-3.6000000000000019e+00 +9.1606312448823548e+00 +0.0000000000000000e+00 -3.5999999171796309e+00 +3.7152680840556640e-04 +0.0000000000000000e+00 +9.9999993098391293e-01
-3.7000000000000020e+00 +9.1605935761952750e+00 +0.0000000000000000e+00 -3.6999999100845371e+00 +3.8184693656339821e-04 +0.0000000000000000e+00 +9.9999992709645591e-01
-3.8000000000000020e+00 +9.1605548754943502e+00 +0.0000000000000000e+00 -3.7999999025953719e+00 +3.9216708548525572e-04 +0.0000000000000000e+00 +9.9999992310248564e-01
-3.9000000000000021e+00 +9.1605151427774505e+00 +0.0000000000000000e+00 -3.8999998947014838e+00 +4.0248725624228746e-04 +0.0000000000000000e+00 +9.9999991900200103e-01
-4.0000000000000018e+00 +9.1604743780423430e+00 +0.0000000000000000e+00 -3.9999998863922217e+00 +4.1280744979833601e-04 +0.0000000000000000e+00 +9.9999991479500105e-01
-4.1000000000000014e+00 +9.1604325812867025e+00 +0.0000000000000000e+00 -4.0999998776569333e+00 +4.2312766700993890e-04 +0.0000000000000000e+00 +9.9999991048148473e-01
-4.2000000000000011e+00 +9.1603897525081273e+00 +0.0000000000000000e+00 -4.1999998684849675e+00 +4.3344790862632977e-04 +0.0000000000000000e+00 +9.9999990606145084e-01
-4.3000000000000007e+00 +9.1603458917041429e+00 +0.0000000000000000e+00 -4.2999998588656725e+00 +4.4376817528943974e-04 +0.0000000000000000e+00 +9.9999990153489848e-01
-4.4000000000000004e+00 +9.1603009988722164e+00 +0.0000000000000000e+00 -4.3999998487883962e+00 +4.5408846753389903e-04 +0.0000000000000000e+00 +9.9999989690182656e-01
-4.5000000000000000e+00 +9.1602550740097684e+00 +0.0000000000000000e+00 -4.4999998382424868e+00 +4.6440878578703877e-04 +0.0000000000000000e+00 +9.9999989216223406e-01
-4.5999999999999996e+00 +9.1602081171141805e+00 +0.0000000000000000e+00 -4.5999998272172924e+00 +4.7472913036889310e-04 +0.0000000000000000e+00 +9.9999988731612011e-01
-4.6999999999999993e+00 +9.1601601281828096e+00 +0.0000000000000000e+00 -4.6999998157021601e+00 +4.8504950149220159e-04 +0.0000000000000000e+00 +9.9999988236348369e-01
-4.7999999999999989e+00 +9.1601111072129946e+00 +0.0000000000000000e+00 -4.7999998036864380e+00 +4.9536989926241178e-04 +0.0000000000000000e+00 +9.9999987730432394e-01
-4.8999999999999986e+00 +9.1600610542020693e+00 +0.0000000000000000e+00 -4.8999997911594741e+00 +5.0569032367768193e-04 +0.0000000000000000e+00 +9.9999987213864006e-01
-4.9999999999999982e+00 +9.1600099691473744e+00 +0.0000000000000000e+00 -4.9999997781106158e+00 +5.1601077462888406e-04 +0.0000000000000000e+00 +9.9999986686643139e-01
-5.0999999999999979e+00 +9.1599578520462668e+00 +0.0000000000000000e+00 -5.0999997645292101e+00 +5.2633125189960751e-04 +0.0000000000000000e+00 +9.9999986148769704e-01
-5.1999999999999975e+00 +9.1599047028961280e+00 +0.0000000000000000e+00 -5.1999997504046043e+00 +5.3665175516616210e-04 +0.0000000000000000e+00 +9.9999985600243646e-01
-5.2999999999999972e+00 +9.1598505216943806e+00 +0.0000000000000000e+00 -5.2999997357261464e+00 +5.4697228399758224e-04 +0.0000000000000000e+00 +9.9999985041064909e-01
-5.3999999999999968e+00 +9.1597953084384933e+00 +0.0000000000000000e+00 -5.3999997204831836e+00 +5.5729283785563083e-04 +0.0000000000000000e+00 +9.9999984471233438e-01
-5.4999999999999964e+00 +9.1597390631259952e+00 +0.0000000000000000e+00 -5.4999997046650630e+00 +5.6761341609480348e-04 +0.0000000000000000e+00 +9.9999983890749200e-01
-5.5999999999999961e+00 +9.1596817857544863e+00 +0.0000000000000000e+00 -5.5999996882611311e+00 +5.7793401796935344e-04 +0.0000000000000000e+00 +9.9999983299612150e-01
-5.6999999999999957e+00 +9.1596234763216398e+00 +0.0000000000000000e+00 -5.6999996712607359e+00 +5.8825464271052203e-04 +0.0000000000000000e+00 +9.9999982697822265e-01
-5.7999999999999954e+00 +9.1595641348252066e+00 +0.0000000000000000e+00 -5.7999996536532246e+00 +5.9857528960377006e-04 +0.0000000000000000e+00 +9.9999982085379524e-01
-5.8999999999999950e+00 +9.1595037612630037e+00 +0.0000000000000000e+00 -5.8999996354279443e+00 +6.0889595799580446e-04 +0.0000000000000000e+00 +9.9999981462283893e-01
-5.9999999999999947e+00 +9.1594423556329119e+00 +0.0000000000000000e+00 -5.9999996165742413e+00 +6.1921664729458470e-04 +0.0000000000000000e+00 +9.9999980828535340e-01
-6.0999999999999943e+00 +9.1593799179328670e+00 +0.0000000000000000e+00 -6.0999995970814638e+00 +6.2953735696932942e-04 +0.0000000000000000e+00 +9.9999980184133841e-01
-6.1999999999999940e+00 +9.1593164481608547e+00 +0.0000000000000000e+00 -6.1999995769389580e+00 +6.3985808655052335e-04 +0.0000000000000000e+00 +9.9999979529079353e-01
-6.2999999999999936e+00 +9.1592519463149067e+00 +0.0000000000000000e+00 -6.2999995561360711e+00 +6.5017883562992458e-04 +0.0000000000000000e+00 +9.9999978863371841e-01
-6.3999999999999932e+00 +9.1591864123930904e+00 +0.0000000000000000e+00 -6.3999995346621503e+00 +6.6049960386057205e-04 +0.0000000000000000e+00 +9.9999978187011274e-01
-6.4999999999999929e+00 +9.1591198463935051e+00 +0.0000000000000000e+00 -6.4999995125065428e+00 +6.7082039095679301e-04 +0.0000000000000000e+00 +9.9999977499997605e-01
-6.5999999999999925e+00 +9.1590522483142767e+00 +0.0000000000000000e+00 -6.5999994896585950e+00 +6.8114119669421150e-04 +0.0000000000000000e+00 +9.9999976802330803e-01
-6.6999999999999922e+00 +9.1589836181535507e+00 +0.0000000000000000e+00 -6.6999994661076538e+00 +6.9146202090975646e-04 +0.0000000000000000e+00 +9.9999976094010812e-01
-6.7999999999999918e+00 +9.1589139559094832e+00 +0.0000000000000000e+00 -6.7999994418430658e+00 +7.0178286350167009e-04 +0.0000000000000000e+00 +9.9999975375037575e-01
-6.8999999999999915e+00 +9.1588432615802393e+00 +0.0000000000000000e+00 -6.8999994168541781e+00 +7.1210372442951720e-04 +0.0000000000000000e+00 +9.9999974645411049e-01
-6.9999999999999911e+00 +9.1587715351639858e+00 +0.0000000000000000e+00 -6.9999993911303369e+00 +7.2242460371419381e-04 +0.0000000000000000e+00 +9.9999973905131179e-01
-7.0999999999999908e+00 +9.1586987766588823e+00 +0.0000000000000000e+00 -7.0999993646608894e+00 +7.3274550143793700e-04 +0.0000000000000000e+00 +9.9999973154197885e-01
-7.1999999999999904e+00 +9.1586249860630780e+00 +0.0000000000000000e+00 -7.1999993374351821e+00 +7.4306641774433448e-04 +0.0000000000000000e+00 +9.9999972392611114e-01
-7.2999999999999901e+00 +9.1585501633747057e+00 +0.0000000000000000e+00 -7.2999993094425610e+00 +7.5338735283833440e-04 +0.0000000000000000e+00 +9.9999971620370787e-01
-7.3999999999999897e+00 +9.1584743085918738e+00 +0.0000000000000000e+00 -7.3999992806723727e+00 +7.6370830698625585e-04 +0.0000000000000000e+00 +9.9999970837476826e-01
-7.4999999999999893e+00 +9.1583974217126620e+00 +0.0000000000000000e+00 -7.4999992511139633e+00 +7.7402928051579915e-04 +0.0000000000000000e+00 +9.9999970043929143e-01
-7.5999999999999890e+00 +9.1583195027351127e+00 +0.0000000000000000e+00 -7.5999992207566791e+00 +7.8435027381225061e-04 +0.0000000000000000e+00 +9.9999969239727649e-01
-7.6999999999999886e+00 +9.1582405516572276e+00 +0.0000000000000000e+00 -7.6999991895898665e+00 +7.9467128727662018e-04 +0.0000000000000000e+00 +9.9999968424872254e-01
-7.7999999999999883e+00 +9.1581605684769727e+00 +0.0000000000000000e+00 -7.7999991576028718e+00 +8.0499232128376059e-04 +0.0000000000000000e+00 +9.9999967599362860e-01
-7.8999999999999879e+00 +9.1580795531922750e+00 +0.0000000000000000e+00 -7.8999991247850403e+00 +8.1531337617853908e-04 +0.0000000000000000e+00 +9.9999966763199388e-01
-7.9999999999999876e+00 +9.1579975058010294e+00 +0.0000000000000000e+00 -7.9999990911257184e+00 +8.2563445227581468e-04 +0.0000000000000000e+00 +9.9999965916381728e-01
-8.0999999999999872e+00 +9.1579144263011028e+00 +0.0000000000000000e+00 -8.0999990566142515e+00 +8.3595554986041435e-04 +0.0000000000000000e+00 +9.9999965058909801e-01
-8.1999999999999869e+00 +9.1578303146903330e+00 +0.0000000000000000e+00 -8.1999990212399858e+00 +8.4627666918710815e-04 +0.0000000000000000e+00 +9.9999964190783519e-01
-8.2999999999999865e+00 +9.1577451709665336e+00 +0.0000000000000000e+00 -8.2999989849922677e+00 +8.5659781048058440e-04 +0.0000000000000000e+00 +9.9999963312002793e-01
-8.3999999999999861e+00 +9.1576589951274983e+00 +0.0000000000000000e+00 -8.3999989478604409e+00 +8.6691897393542292e-04 +0.0000000000000000e+00 +9.9999962422567545e-01
-8.4999999999999858e+00 +9.1575717871710030e+00 +0.0000000000000000e+00 -8.4999989098338506e+00 +8.7724015971606844e-04 +0.0000000000000000e+00 +9.9999961522477676e-01
-8.5999999999999854e+00 +9.1574835470948077e+00 +0.0000000000000000e+00 -8.5999988709018442e+00 +8.8756136795680276e-04 +0.0000000000000000e+00 +9.9999960611733119e-01
-8.6999999999999851e+00 +9.1573942748966601e+00 +0.0000000000000000e+00 -8.6999988310537653e+00 +8.9788259876171623e-04 +0.0000000000000000e+00 +9.9999959690333784e-01
-8.7999999999999847e+00 +9.1573039705743007e+00 +0.0000000000000000e+00 -8.7999987902789591e+00 +9.0820385220467836e-04 +0.0000000000000000e+00 +9.9999958758279606e-01
-8.8999999999999844e+00 +9.1572126341254627e+00 +0.0000000000000000e+00 -8.8999987485667713e+00 +9.1852512832930747e-04 +0.0000000000000000e+00 +9.9999957815570506e-01
-8.9999999999999840e+00 +9.1571202655478778e+00 +0.0000000000000000e+00 -8.9999987059065472e+00 +9.2884642714894002e-04 +0.0000000000000000e+00 +9.9999956862206407e-01
-9.0999999999999837e+00 +9.1570268648392776e+00 +0.0000000000000000e+00 -9.0999986622876321e+00 +9.3916774864659879e-04 +0.0000000000000000e+00 +9.9999955898187243e-01
-9.1999999999999833e+00 +9.1569324319973955e+00 +0.0000000000000000e+00 -9.1999986176993698e+00 +9.4948909277496032e-04 +0.0000000000000000e+00 +9.9999954923512946e-01
-9.2999999999999829e+00 +9.1568369670199719e+00 +0.0000000000000000e+00 -9.2999985721311056e+00 +9.5981045945632147e-04 +0.0000000000000000e+00 +9.9999953938183461e-01
-9.3999999999999826e+00 +9.1567404699047561e+00 +0.0000000000000000e+00 -9.3999985255721850e+00 +9.7013184858256549e-04 +0.0000000000000000e+00 +9.9999952942198722e-01
-9.4999999999999822e+00 +9.1566429406495118e+00 +0.0000000000000000e+00 -9.4999984780119515e+00 +9.8045326001512667e-04 +0.0000000000000000e+00 +9.9999951935558673e-01
-9.5999999999999819e+00 +9.1565443792520149e+00 +0.0000000000000000e+00 -9.5999984294397507e+00 +9.9077469358066516e-04 +0.0000000000000000e+00 +9.9999950918263258e-01
-9.6999999999999815e+00 +9.1564447857100664e+00 +0.0000000000000000e+00 -9.6999983798449261e+00 +1.0010961490238485e-03 +0.0000000000000000e+00 +9.9999949890312445e-01
-9.7999999999999812e+00 +9.1563441600214936e+00 +0.0000000000000000e+00 -9.7999983292168231e+00 +1.0114176259601853e-03 +0.0000000000000000e+00 +9.9999948851706189e-01
-9.8999999999999808e+00 +9.1562425021841740e+00 +0.0000000000000000e+00 -9.8999982775447872e+00 +1.0217391238717933e-03 +0.0000000000000000e+00 +9.9999947802444489e-01
-9.9999999999999805e+00 +9.1561398121960416e+00 +0.0000000000000000e+00 -9.9999982248181603e+00 +1.0320606421074618e-03 +0.0000000000000000e+00 +9.9999946742527346e-01
-1.0099999999999980e+01 +9.1560360900551014e+00 +0.0000000000000000e+00 -1.0099998171026289e+01 +1.0423821798827152e-03 +0.0000000000000000e+00 +9.9999945671954771e-01
-1.0199999999999980e+01 +9.1559313357594441e+00 +0.0000000000000000e+00 -1.0199998116158518e+01 +1.0527037362798790e-03 +0.0000000000000000e+00 +9.9999944590726808e-01
-1.0299999999999979e+01 +9.1558255493072593e+00 +0.0000000000000000e+00 -1.0299998060204191e+01 +1.0630253102481468e-03 +0.0000000000000000e+00 +9.9999943498843502e-01
-1.0399999999999979e+01 +9.1557187306968473e+00 +0.0000000000000000e+00 -1.0399998003152653e+01 +1.0733469006036496e-03 +0.0000000000000000e+00 +9.9999942396304931e-01
-1.0499999999999979e+01 +9.1556108799266358e+00 +0.0000000000000000e+00 -1.0499997944993249e+01 +1.0836685060295263e-03 +0.0000000000000000e+00 +9.9999941283111182e-01
-1.0599999999999978e+01 +9.1555019969951879e+00 +0.0000000000000000e+00 -1.0599997885715323e+01 +1.0939901250759964e-03 +0.0000000000000000e+00 +9.9999940159262379e-01
-1.0699999999999978e+01 +9.1553920819012191e+00 +0.0000000000000000e+00 -1.0699997825308222e+01 +1.1043117561604337e-03 +0.0000000000000000e+00 +9.9999939024758644e-01
-1.0799999999999978e+01 +9.1552811346436105e+00 +0.0000000000000000e+00 -1.0799997763761288e+01 +1.1146333975674428e-03 +0.0000000000000000e+00 +9.9999937879600131e-01
-1.0899999999999977e+01 +9.1551691552214223e+00 +0.0000000000000000e+00 -1.0899997701063869e+01 +1.1249550474489362e-03 +0.0000000000000000e+00 +9.9999936723787020e-01
-1.0999999999999977e+01 +9.1550561436339049e+00 +0.0000000000000000e+00 -1.0999997637205309e+01 +1.1352767038242139e-03 +0.0000000000000000e+00 +9.9999935557319497e-01
-1.1099999999999977e+01 +9.1549420998805111e+00 +0.0000000000000000e+00 -1.1099997572174956e+01 +1.1455983645800439e-03 +0.0000000000000000e+00 +9.9999934380197797e-01
-1.1199999999999976e+01 +9.1548270239609160e+00 +0.0000000000000000e+00 -1.1199997505962154e+01 +1.1559200274707455e-03 +0.0000000000000000e+00 +9.9999933192422163e-01
-1.1299999999999976e+01 +9.1547109158750235e+00 +0.0000000000000000e+00 -1.1299997438556248e+01 +1.1662416901182732e-03 +0.0000000000000000e+00 +9.9999931993992863e-01
-1.1399999999999975e+01 +9.1545937756229829e+00 +0.0000000000000000e+00 -1.1399997369946588e+01 +1.1765633500123037e-03 +0.0000000000000000e+00 +9.9999930784910196e-01
-1.1499999999999975e+01 +9.1544756032052010e+00 +0.0000000000000000e+00 -1.1499997300122518e+01 +1.1868850045103224e-03 +0.0000000000000000e+00 +9.9999929565174472e-01
-1.1599999999999975e+01 +9.1543563986223528e+00 +0.0000000000000000e+00 -1.1599997229073386e+01 +1.1972066508578502e-03 +0.0000000000000000e+00 +9.9999928334786048e-01
-1.1699999999999974e+01 +9.1542361618753887e+00 +0.0000000000000000e+00 -1.1699997156788539e+01 +1.2075282864100121e-03 +0.0000000000000000e+00 +9.9999927093745267e-01
