# multipoles
# s[mm] polynom_b[n=0][T/m^n] polynom_b[n=1][T/m^n] polynom_b[n=2][T/m^n] polynom_b[n=3][T/m^n] polynom_b[n=4][T/m^n] polynom_b[n=5][T/m^n] polynom_b[n=6][T/m^n] 
+0.0000000000000000e+00 -3.4172061426951894e-01 +7.6260898433790636e-01 +7.1094197289673264e+00 +1.8569264785111795e+01 -6.3708988960019415e+03 +8.1135466048279530e+04 +3.4676977196647897e+07 
-1.0000000000000001e-01 -3.4172062632597566e-01 +7.6260257997439318e-01 +7.1129841927565884e+00 +1.8877609116909397e+01 -6.3852970701434115e+03 +7.8730941737253845e+04 +3.4617802652677283e+07 
-2.0000000000000001e-01 -3.4172063985907830e-01 +7.6259768866687339e-01 +7.1164063849061270e+00 +1.9161064393371721e+01 -6.3955152031731950e+03 +7.6407108223476767e+04 +3.4536580176550224e+07 
-3.0000000000000004e-01 -3.4172065513153504e-01 +7.6259420003575096e-01 +7.1197204897481816e+00 +1.9420440418721594e+01 -6.4024303020117613e+03 +7.4168261487888987e+04 +3.4437744749636456e+07 
-4.0000000000000002e-01 -3.4172067240603382e-01 +7.6259200370522451e-01 +7.1229606886741630e+00 +1.9656546847025115e+01 -6.4069193121348171e+03 +7.2018698569192464e+04 +3.4325731044262700e+07 
-5.0000000000000000e-01 -3.4172069194528903e-01 +7.6259098930049984e-01 +7.1261611658873454e+00 +1.9870193274310228e+01 -6.4098592279511595e+03 +6.9962716989731751e+04 +3.4204973952035159e+07 
-5.9999999999999998e-01 -3.4172071401200910e-01 +7.6259104644605680e-01 +7.1293561045804994e+00 +2.0062189296039875e+01 -6.4121270213980270e+03 +6.8004614392474250e+04 +3.4079908246070236e+07 
-6.9999999999999996e-01 -3.4172073886891763e-01 +7.6259206476901598e-01 +7.1325796897089422e+00 +2.0233344429120972e+01 -6.4145996973583824e+03 +6.6148688928943098e+04 +3.3954968851948299e+07 
-7.9999999999999993e-01 -3.4172076677873658e-01 +7.6259393389506758e-01 +7.1358661063710693e+00 +2.0384468237715005e+01 -6.4181542650159145e+03 +6.4399238495478472e+04 +3.3834590715524361e+07 
-8.9999999999999991e-01 -3.4172079800420246e-01 +7.6259654345108008e-01 +7.1392495414188577e+00 +2.0516370269222527e+01 -6.4236677678857741e+03 +6.2760561069223761e+04 +3.3723208944731988e+07 
-9.9999999999999989e-01 -3.4172083280805027e-01 +7.6259978306242904e-01 +7.1427641822764496e+00 +2.0629860145429152e+01 -6.4320172670793454e+03 +6.1236954124879980e+04 +3.3625258744035713e+07 
-1.0999999999999999e+00 -3.4172087145303137e-01 +7.6260354235491501e-01 +7.1464442188881732e+00 +2.0725747514310296e+01 -6.4440798765243753e+03 +5.9832714888413990e+04 +3.3545175576856140e+07 
-1.2000000000000000e+00 -3.4172091420189199e-01 +7.6260771095130953e-01 +7.1503238414924457e+00 +2.0804842169822180e+01 -6.4607327248781248e+03 +5.8552139575292029e+04 +3.3487394994499967e+07 
-1.3000000000000000e+00 -3.4172096131739871e-01 +7.6261217847396989e-01 +7.1544372438098636e+00 +2.0867953978471437e+01 -6.4828530168313409e+03 +5.7399523803635646e+04 +3.3456352929745711e+07 
-1.4000000000000001e+00 -3.4172101306230068e-01 +7.6261683454316775e-01 +7.1588186185468077e+00 +2.0915892951254239e+01 -6.5113179493821308e+03 +5.6379162096659697e+04 +3.3456485302376110e+07 
-1.5000000000000002e+00 -3.4172106969938137e-01 +7.6262156877622689e-01 +7.1635021640846812e+00 +2.0949469269002996e+01 -6.5470048414911453e+03 +5.5495347730790403e+04 +3.3492228641714085e+07 
-1.6000000000000003e+00 -3.4172113149142225e-01 +7.6262627078832801e-01 +7.1685220800914911e+00 +2.0969493278773143e+01 -6.5907910521007661e+03 +5.4752372688834868e+04 +3.3568019700489566e+07 
-1.7000000000000004e+00 -3.4172119870118328e-01 +7.6263083019060884e-01 +7.1739125653423228e+00 +2.0976775556801378e+01 -6.6435539413625675e+03 +5.4154527263438889e+04 +3.3688295276452973e+07 
-1.8000000000000005e+00 -3.4172127159147903e-01 +7.6263513659162652e-01 +7.1797078270997527e+00 +2.0972126881832036e+01 -6.7061710479585608e+03 +5.3706100158855697e+04 +3.3857493052374534e+07 
-1.9000000000000006e+00 -3.4172135042509388e-01 +7.6263907959625665e-01 +7.1859420712556030e+00 +2.0956358270363349e+01 -6.7795199079826443e+03 +5.3411378270175621e+04 +3.4080050751385614e+07 
-2.0000000000000004e+00 -3.4172143546482803e-01 +7.6264254880323301e-01 +7.1926495076540435e+00 +2.0930281077732996e+01 -6.8644781539066635e+03 +5.3274646002180081e+04 +3.4360406601065442e+07 
-2.1000000000000005e+00 -3.4172152680766554e-01 +7.6264546856376403e-01 +7.1998474200797915e+00 +2.0894512363401184e+01 -6.9615618741491871e+03 +5.3298302025078243e+04 +3.4701290528582908e+07 
-2.2000000000000006e+00 -3.4172162388362071e-01 +7.6264790930473192e-01 +7.2074839728418976e+00 +2.0848634618789131e+01 -7.0698244741512626e+03 +5.3478322995295704e+04 +3.5098588295176603e+07 
-2.3000000000000007e+00 -3.4172172595497524e-01 +7.6264997974581916e-01 +7.2154896776029434e+00 +2.0791909089042544e+01 -7.1879490123190217e+03 +5.3809339312182456e+04 +3.5546469419465519e+07 
-2.4000000000000008e+00 -3.4172183228399272e-01 +7.6265178861671046e-01 +7.2237950427996687e+00 +2.0723596727504230e+01 -7.3146184758003792e+03 +5.4285982989980766e+04 +3.6039103053231806e+07 
-2.5000000000000009e+00 -3.4172194213295509e-01 +7.6265344465389706e-01 +7.2323305784834373e+00 +2.0642958287860189e+01 -7.4485158728203014e+03 +5.4902887135581623e+04 +3.6570658418774284e+07 
-2.6000000000000010e+00 -3.4172205476414391e-01 +7.6265505660421506e-01 +7.2410267933665828e+00 +2.0549254205164246e+01 -7.5883241717492792e+03 +5.5654686679485480e+04 +3.7135304507432364e+07 
-2.7000000000000011e+00 -3.4172216943984057e-01 +7.6265673322550720e-01 +7.2498141946657704e+00 +2.0441744576761781e+01 -7.7327262958618876e+03 +5.6536018483635256e+04 +3.7727210048014246e+07 
-2.8000000000000012e+00 -3.4172228542233679e-01 +7.6265858328744485e-01 +7.2586232896745120e+00 +2.0319689123878579e+01 -7.8804051544637077e+03 +5.7541521598411382e+04 +3.8340543659233898e+07 
-2.9000000000000012e+00 -3.4172240197391196e-01 +7.6266071557351822e-01 +7.2673845821030856e+00 +2.0182347126319765e+01 -8.0300435668772225e+03 +5.8665837660216734e+04 +3.8969473471371278e+07 
-3.0000000000000013e+00 -3.4172251835687351e-01 +7.6266323888017173e-01 +7.2760285774694653e+00 +2.0028977448492537e+01 -8.1803243661793058e+03 +5.9903610729069667e+04 +3.9608167622478105e+07 
-3.1000000000000014e+00 -3.4172263383350338e-01 +7.6266626201899279e-01 +7.2844857757912740e+00 +1.9858838455160939e+01 -8.3299302558069794e+03 +6.1249487836687593e+04 +4.0250793565899089e+07 
-3.2000000000000015e+00 -3.4172274766610544e-01 +7.6266989381709993e-01 +7.2926866776458334e+00 +1.9671188005922307e+01 -8.4775439237577557e+03 +6.2698118989421106e+04 +4.0891518609967507e+07 
-3.3000000000000016e+00 -3.4172285911697764e-01 +7.6267424311979681e-01 +7.3005617803739158e+00 +1.9465283357462638e+01 -8.6218479690628901e+03 +6.4244157797209409e+04 +4.1524509565957159e+07 
-3.4000000000000017e+00 -3.4172296744842001e-01 +7.6267941878917345e-01 +7.3080415787741746e+00 +1.9240381208861081e+01 -8.7615249108616681e+03 +6.5882261187460375e+04 +4.2143932780028895e+07 
-3.5000000000000018e+00 -3.4172307192272999e-01 +7.6268552970637082e-01 +7.3150565644902574e+00 +1.8995737617694527e+01 -8.8952571762956377e+03 +6.7607089940549733e+04 +4.2743954074931420e+07 
-3.6000000000000019e+00 -3.4172317180222267e-01 +7.6269268477260521e-01 +7.3215372282183120e+00 +1.8730607967702827e+01 -9.0217271393828687e+03 +6.9413308877229138e+04 +4.3318738926889934e+07 
-3.7000000000000020e+00 -3.4172326634919081e-01 +7.6270099291022231e-01 +7.3274140547810074e+00 +1.8444246931416448e+01 -9.1396170266877743e+03 +7.1295587092366361e+04 +4.3862452015387677e+07 
-3.8000000000000020e+00 -3.4172335482594218e-01 +7.6271056306324103e-01 +7.3326175271594805e+00 +1.8135908444966276e+01 -9.2476089894414399e+03 +7.3248598122926545e+04 +4.4369257554478057e+07 
-3.9000000000000021e+00 -3.4172343649478859e-01 +7.6272150419872520e-01 +7.3370781252749797e+00 +1.7804845659241376e+01 -9.3443850803782643e+03 +7.5267020248445668e+04 +4.4833319183110170e+07 
-4.0000000000000018e+00 -3.4172351061802669e-01 +7.6273392530737372e-01 +7.3407263232699860e+00 +1.7450310910663070e+01 -9.4286271999098190e+03 +7.7345536695853851e+04 +4.5248799704359666e+07 
-4.1000000000000014e+00 -3.4172357662699615e-01 +7.6274789146524857e-01 +7.3435100057419609e+00 +1.7072198468612207e+01 -9.4993113049140411e+03 +7.9477476889358673e+04 +4.5611083934494764e+07 
-4.2000000000000011e+00 -3.4172363462856986e-01 +7.6276328428232776e-01 +7.3454488437100371e+00 +1.6673076863708520e+01 -9.5566206321859081e+03 +8.1650933634384230e+04 +4.5920504341269284e+07 
-4.3000000000000007e+00 -3.4172368489878141e-01 +7.6277993750727813e-01 +7.3465810752611755e+00 +1.6256205761134904e+01 -9.6010495031106057e+03 +8.3852790522397132e+04 +4.6178650253876477e+07 
-4.4000000000000004e+00 -3.4172372771367987e-01 +7.6279768488073163e-01 +7.3469449418284025e+00 +1.5824845047825082e+01 -9.6330923198057226e+03 +8.6069929958311724e+04 +4.6387111435501069e+07 
-4.5000000000000000e+00 -3.4172376334925997e-01 +7.6281636013134335e-01 +7.3465786797618007e+00 +1.5382254958043449e+01 -9.6532434091204741e+03 +8.8289232309992018e+04 +4.6547477363731667e+07 
-4.5999999999999996e+00 -3.4172379208151649e-01 +7.6283579697548864e-01 +7.3455205268191666e+00 +1.4931696090463033e+01 -9.6619971434355011e+03 +9.0497575789141207e+04 +4.6661337798096716e+07 
-4.6999999999999993e+00 -3.4172381418641501e-01 +7.6285582911780714e-01 +7.3438087192771508e+00 +1.4476429387238158e+01 -9.6598478933300958e+03 +9.2681836589735962e+04 +4.6730282577328898e+07 
-4.7999999999999989e+00 -3.4172382993990230e-01 +7.6287629024871129e-01 +7.3414814927369267e+00 +1.4019716209508948e+01 -9.6472900394108528e+03 +9.4828888442352545e+04 +4.6755901666409880e+07 
-4.8999999999999986e+00 -3.4172383961789338e-01 +7.6289701404259269e-01 +7.3385770811441402e+00 +1.3564818393284922e+01 -9.6248179590624895e+03 +9.6925602283107393e+04 +4.6739785109558702e+07 
-4.9999999999999982e+00 -3.4172384349628210e-01 +7.6291783415877146e-01 +7.3351337180168361e+00 +1.3114998216860718e+01 -9.5929260497945961e+03 +9.8958846461350186e+04 +4.6683523141647294e+07 
-5.0999999999999979e+00 -3.4172384185093546e-01 +7.6293858423781724e-01 +7.3311896358066244e+00 +1.2673518517638803e+01 -9.5521087189159316e+03 +1.0091548603285836e+05 +4.6588706145627007e+07 
-5.1999999999999975e+00 -3.4172383495769509e-01 +7.6295909790379368e-01 +7.3267830663803055e+00 +1.2243642613705338e+01 -9.5028603949875251e+03 +1.0278238325683303e+05 +4.6456924713463597e+07 
-5.2999999999999972e+00 -3.4172382309236587e-01 +7.6297920875922676e-01 +7.3219522397668984e+00 +1.1828634468801535e+01 -9.4456755057812497e+03 +1.0454639658865822e+05 +4.6289769547199279e+07 
-5.3999999999999968e+00 -3.4172380653072487e-01 +7.6299875038846465e-01 +7.3167353852755452e+00 +1.1431758580386036e+01 -9.3810485008578435e+03 +1.0619438137169034e+05 +4.6088831570931047e+07 
-5.4999999999999964e+00 -3.4172378554852550e-01 +7.6301755635104562e-01 +7.3111707322872324e+00 +1.1056280183448063e+01 -9.3094738692221290e+03 +1.0771318862546320e+05 +4.5855702022953734e+07 
-5.5999999999999961e+00 -3.4172376042147562e-01 +7.6303546018737034e-01 +7.3052965074948020e+00 +1.0705465077724632e+01 -9.2314460869866107e+03 +1.0908966607517778e+05 +4.5591972207598642e+07 
-5.6999999999999957e+00 -3.4172373142525425e-01 +7.6305229541143271e-01 +7.2991509373483812e+00 +1.0382579847704946e+01 -9.1474596674633158e+03 +1.1031065685117352e+05 +4.5299233744378291e+07 
-5.7999999999999954e+00 -3.4172369883549836e-01 +7.6306789551309706e-01 +7.2927722462070639e+00 +1.0090891796671190e+01 -9.0580091258048215e+03 +1.1136299987484857e+05 +4.4979078400588490e+07 
-5.8999999999999950e+00 -3.4172366292783585e-01 +7.6308209395643312e-01 +7.2861986612304559e+00 +9.8336689890535176e+00 -8.9635890770810493e+03 +1.1223352963222063e+05 +4.4633098571534887e+07 
-5.9999999999999947e+00 -3.4172362397781436e-01 +7.6309472417879209e-01 +7.2794684028828280e+00 +9.6141802639080165e+00 -8.8646940570803326e+03 +1.1290907604296417e+05 +4.4262886428461157e+07 
-6.0999999999999943e+00 -3.4172358231317718e-01 +7.6310565508642947e-01 +7.2726194331543326e+00 +9.4348023693102370e+00 -8.7618469523639815e+03 +1.1338112837487740e+05 +4.3870257106226064e+07 
-6.1999999999999940e+00 -3.4172353848048465e-01 +7.6311489763906148e-01 +7.2656874596012608e+00 +9.2946076610450099e+00 -8.6556488988308211e+03 +1.1365807895590200e+05 +4.3457729167448319e+07 
-6.2999999999999936e+00 -3.4172349308335609e-01 +7.6312249858946468e-01 +7.2587072997985125e+00 +9.1919018250273190e+00 -8.5467126074847183e+03 +1.1375214848015126e+05 +4.3027955932302751e+07 
-6.3999999999999932e+00 -3.4172344672544952e-01 +7.6312850468235505e-01 +7.2517137775736717e+00 +9.1249907285228495e+00 -8.4356509310762704e+03 +1.1367555718667130e+05 +4.2583591454459913e+07 
-6.4999999999999929e+00 -3.4172340001042312e-01 +7.6313296265951902e-01 +7.2447417186118042e+00 +9.0921802450951024e+00 -8.3230767807395969e+03 +1.1344052588771202e+05 +4.2127290129510358e+07 
-6.5999999999999925e+00 -3.4172335354196764e-01 +7.6313591925415680e-01 +7.2378259542090699e+00 +9.0917764220742239e+00 -8.2096031944219485e+03 +1.1305927500204509e+05 +4.1661707011306785e+07 
-6.6999999999999922e+00 -3.4172330792381905e-01 +7.6313742119559480e-01 +7.2310013231784938e+00 +9.1220853297183719e+00 -8.0958433778218268e+03 +1.1254402548752056e+05 +4.1189498020949624e+07 
-6.7999999999999918e+00 -3.4172326375972129e-01 +7.6313751520759032e-01 +7.2243026669392636e+00 +9.1814131178467147e+00 -7.9824106072558343e+03 +1.1190699850645215e+05 +4.0713319472704731e+07 
-6.8999999999999915e+00 -3.4172322165346031e-01 +7.6313624800631996e-01 +7.2177648339963429e+00 +9.2680660642631096e+00 -7.8699183179739402e+03 +1.1116041518843290e+05 +4.0235828502979748e+07 
-6.9999999999999911e+00 -3.4172318220884013e-01 +7.6313366630381396e-01 +7.2114226769869747e+00 +9.3803504786959024e+00 -7.7589800481521261e+03 +1.1031649719338366e+05 +3.9759682804448731e+07 
-7.0999999999999908e+00 -3.4172314602971843e-01 +7.6312981680405090e-01 +7.2053110572227856e+00 +9.5165728093618061e+00 -7.6502095261873546e+03 +1.0938746612762706e+05 +3.9287541042799480e+07 
-7.1999999999999904e+00 -3.4172311371996722e-01 +7.6312474620545867e-01 +7.1994648394357839e+00 +9.6750395704051257e+00 -7.5442205682538852e+03 +1.0838554398192481e+05 +3.8822062362826481e+07 
-7.2999999999999901e+00 -3.4172308588350525e-01 +7.6311850120144731e-01 +7.1939188965464895e+00 +9.8540573172460864e+00 -7.4416271748232193e+03 +1.0732295331575585e+05 +3.8365906862720825e+07 
-7.3999999999999897e+00 -3.4172306312429002e-01 +7.6311112847768447e-01 +7.1887081080659305e+00 +1.0051932733071023e+01 -7.3430434960801749e+03 +1.0621191675162202e+05 +3.7921735418862894e+07 
-7.4999999999999893e+00 -3.4172304604630349e-01 +7.6310267471353632e-01 +7.1838673586249344e+00 +1.0266972575158785e+01 -7.2490838063177234e+03 +1.0506465733122946e+05 +3.7492209568979129e+07 
-7.5999999999999890e+00 -3.4172303525358427e-01 +7.6309318658220104e-01 +7.1794315421208115e+00 +1.0497483671711878e+01 -7.1603625838380949e+03 +1.0389339855607401e+05 +3.7079991895525418e+07 
-7.6999999999999886e+00 -3.4172303135019305e-01 +7.6308271074943257e-01 +7.1754355571911441e+00 +1.0741772960505843e+01 -7.0774944241391977e+03 +1.0271036416349634e+05 +3.6687745610307477e+07 
-7.7999999999999883e+00 -3.4172303494025197e-01 +7.6307129387428907e-01 +7.1719143124426346e+00 +1.0998147456053765e+01 -7.0010941405551475e+03 +1.0152777837337520e+05 +3.6318135036050133e+07 
-7.8999999999999879e+00 -3.4172304662791614e-01 +7.6305898261033900e-01 +7.1689027227393982e+00 +1.1264914217099779e+01 -6.9317766946868023e+03 +1.0035786608405931e+05 +3.5973825278277226e+07 
-7.9999999999999876e+00 -3.4172306701738864e-01 +7.6304582360279949e-01 +7.1664357112847359e+00 +1.1540380469311346e+01 -6.8701572313956785e+03 +9.9212852064819541e+04 +3.5657482375340156e+07 
-8.0999999999999872e+00 -3.4172309645654769e-01 +7.6303186749565788e-01 +7.1645350981256728e+00 +1.1822981549034488e+01 -6.8166536701474188e+03 +9.8102886764389477e+04 +3.5370984325422414e+07 
-8.1999999999999869e+00 -3.4172313424287859e-01 +7.6301717637348099e-01 +7.1631663907651948e+00 +1.2111728266393216e+01 -6.7708361641362626e+03 +9.7028630437445318e+04 +3.5112918354519650e+07 
-8.2999999999999865e+00 -3.4172317940420482e-01 +7.6300181412123480e-01 +7.1622799568569491e+00 +1.2405801037737950e+01 -6.7320463709352525e+03 +9.5987910141027052e+04 +3.4881011545053571e+07 
-8.3999999999999861e+00 -3.4172323096828028e-01 +7.6298584464749497e-01 +7.1618261505612688e+00 +1.2704379782136312e+01 -6.6996256251734912e+03 +9.4978554188617665e+04 +3.4672989287347250e+07 
-8.4999999999999858e+00 -3.4172328796282703e-01 +7.6296933189163541e-01 +7.1617553174047410e+00 +1.3006643613614328e+01 -6.6729150213052826e+03 +9.3998394997694064e+04 +3.4486575566987984e+07 
-8.5999999999999854e+00 -3.4172334941553323e-01 +7.6295233981927879e-01 +7.1620177938199410e+00 +1.3311770991978941e+01 -6.6512554044994131e+03 +9.3045268141940614e+04 +3.4319492920725323e+07 
-8.6999999999999851e+00 -3.4172341435404063e-01 +7.6293493242650368e-01 +7.1625639055584944e+00 +1.3618939599347986e+01 -6.6339873372332995e+03 +9.2117013062412938e+04 +3.4169462265214480e+07 
-8.7999999999999847e+00 -3.4172348180595791e-01 +7.6291717373896206e-01 +7.1633439691057168e+00 +1.3927326369165554e+01 -6.6204511231133383e+03 +9.1211472872699349e+04 +3.4034203000929356e+07 
-8.8999999999999844e+00 -3.4172355079885114e-01 +7.6289912781435421e-01 +7.1643082902699033e+00 +1.4236107415199921e+01 -6.6099867791653132e+03 +9.0326494760417743e+04 +3.3911432877295226e+07 
-8.9999999999999840e+00 -3.4172362036023413e-01 +7.6288085874239864e-01 +7.1654071628939580e+00 +1.4544458041130932e+01 -6.6019340063200352e+03 +8.9459929888572529e+04 +3.3798867835006267e+07 
-9.0999999999999837e+00 -3.4172368951758791e-01 +7.6286243064432913e-01 +7.1665908710967310e+00 +1.4851552757876460e+01 -6.5956322319823039e+03 +8.8609633278974987e+04 +3.3694222208594278e+07 
-9.1999999999999833e+00 -3.4172375729833804e-01 +7.6284390767698518e-01 +7.1678096861909673e+00 +1.5156565168507683e+01 -6.5904205461944966e+03 +8.7773464451923239e+04 +3.3595208404744312e+07 
-9.2999999999999829e+00 -3.4172382272987861e-01 +7.6282535403250051e-01 +7.1690138698580599e+00 +1.5458667975010917e+01 -6.5856377634537703e+03 +8.6949287387480392e+04 +3.3499537201205943e+07 
-9.3999999999999826e+00 -3.4172388483954030e-01 +7.6280683393633830e-01 +7.1701536693354573e+00 +1.5757033050766202e+01 -6.5806223231306294e+03 +8.6134970038443309e+04 +3.3404917246880807e+07 
-9.4999999999999822e+00 -3.4172394265461420e-01 +7.6278841165204847e-01 +7.1711793210602313e+00 +1.6050831297853559e+01 -6.5747123625337099e+03 +8.5328385166820037e+04 +3.3309055419845682e+07 
-9.5999999999999819e+00 -3.4172399520233426e-01 +7.6277015148238303e-01 +7.1720410476678840e+00 +1.6339232617659412e+01 -6.5672456519108509e+03 +8.4527410491173156e+04 +3.3209656493504699e+07 
-9.6999999999999815e+00 -3.4172404150988783e-01 +7.6275211776508589e-01 +7.1726890593342176e+00 +1.6621406040659242e+01 -6.5575596201578046e+03 +8.3729927895595611e+04 +3.3104423258890472e+07 
-9.7999999999999812e+00 -3.4172408060441190e-01 +7.6273437487952489e-01 +7.1730735533615633e+00 +1.6896519537429324e+01 -6.5449913449516844e+03 +8.2933824506804609e+04 +3.2991056469756242e+07 
-9.8999999999999808e+00 -3.4172411151298693e-01 +7.6271698724628822e-01 +7.1731447128820811e+00 +1.7163740031358820e+01 -6.5288775228988015e+03 +8.2136992604309416e+04 +3.2867254685073826e+07 
-9.9999999999999805e+00 -3.4172413326261991e-01 +7.6270001931912235e-01 +7.1728527038658685e+00 +1.7422233608434343e+01 -6.5085544072640141e+03 +8.1337328825060176e+04 +3.2730713990896888e+07 
-1.0099999999999980e+01 -3.4172414517244903e-01 +7.6268351258420819e-01 +7.1721603971335828e+00 +1.7671643395852602e+01 -6.4835182158739844e+03 +8.0531562007529763e+04 +3.2579699415225316e+07 
