# field on trajectory
# s[mm] rx[mm] ry[mm] rz[mm] bx[T] by[T] bz[T]
-0.0000000000000000e+00 +9.1076201166355002e+00 +0.0000000000000000e+00 -0.0000000000000000e+00 +1.1091956852187088e-02 -1.0318876607369758e+00 -5.8822785050015876e-02
-1.0005104645227200e-01 +9.1076196006322601e+00 +0.0000000000000000e+00 -1.0005104645049701e-01 +1.1092059929822639e-02 -1.0318874876667121e+00 -5.8825571537466564e-02
-2.0010209290454301e-01 +9.1076180526189905e+00 +0.0000000000000000e+00 -2.0010209289035000e-01 +1.1092164001012842e-02 -1.0318872302179736e+00 -5.8828374111992474e-02
-3.0015313935681498e-01 +9.1076154725992300e+00 +0.0000000000000000e+00 -3.0015313930891202e-01 +1.1092268679581229e-02 -1.0318868963383478e+00 -5.8831192225753177e-02
-4.0020418580908601e-01 +9.1076118605712200e+00 +0.0000000000000000e+00 -4.0020418569554000e-01 +1.1092373579360906e-02 -1.0318864939753261e+00 -5.8834025330902297e-02
-5.0025523226135804e-01 +9.1076072165331805e+00 +0.0000000000000000e+00 -5.0025523203958799e-01 +1.1092478314190610e-02 -1.0318860310763236e+00 -5.8836872879586166e-02
-6.0030627871362996e-01 +9.1076015404886608e+00 +0.0000000000000000e+00 -6.0030627833041095e-01 +1.1092582497910720e-02 -1.0318855155887015e+00 -5.8839734323942398e-02
-7.0035732516590099e-01 +9.1075948324376501e+00 +0.0000000000000000e+00 -7.0035732455736299e-01 +1.1092685744359735e-02 -1.0318849554598200e+00 -5.8842609116100272e-02
-8.0040837161817302e-01 +9.1075870923766207e+00 +0.0000000000000000e+00 -8.0040837070980198e-01 +1.1092787667370435e-02 -1.0318843586370698e+00 -5.8845496708179644e-02
-9.0045941807044405e-01 +9.1075783203073204e+00 +0.0000000000000000e+00 -9.0045941677707997e-01 +1.1092887880765819e-02 -1.0318837330678869e+00 -5.8848396552289538e-02
-1.0005104645227201e+00 +9.1075685162297706e+00 +0.0000000000000000e+00 -1.0005104627485499e+00 +1.1092985998355509e-02 -1.0318830866998006e+00 -5.8851308100527876e-02
-1.1005615109749900e+00 +9.1075576801457405e+00 +0.0000000000000000e+00 -1.1005615086135800e+00 +1.1093081633931825e-02 -1.0318824274804590e+00 -5.8854230804980458e-02
-1.2006125574272599e+00 +9.1075458120516792e+00 +0.0000000000000000e+00 -1.2006125543615100e+00 +1.1093174401266184e-02 -1.0318817633576784e+00 -5.8857164117720955e-02
-1.3006636038795301e+00 +9.1075329119511395e+00 +0.0000000000000000e+00 -1.3006635999817000e+00 +1.1093263914104921e-02 -1.0318811022794463e+00 -5.8860107490808632e-02
-1.4007146503318000e+00 +9.1075189798405596e+00 +0.0000000000000000e+00 -1.4007146454635000e+00 +1.1093349786165893e-02 -1.0318804521939888e+00 -5.8863060376289321e-02
-1.5007656967840699e+00 +9.1075040157234994e+00 +0.0000000000000000e+00 -1.5007656907962801e+00 +1.1093431631134349e-02 -1.0318798210497706e+00 -5.8866022226192909e-02
-1.6008167432363500e+00 +9.1074880195981898e+00 +0.0000000000000000e+00 -1.6008167359693799e+00 +1.1093509243004370e-02 -1.0318792149303722e+00 -5.8868992367322827e-02
-1.7008677896886200e+00 +9.1074709914646199e+00 +0.0000000000000000e+00 -1.7008677809721600e+00 +1.1093583120749598e-02 -1.0318786326282721e+00 -5.8871969636995959e-02
-1.8009188361408901e+00 +9.1074529313228005e+00 +0.0000000000000000e+00 -1.8009188257939699e+00 +1.1093653935586388e-02 -1.0318780711547757e+00 -5.8874952752943070e-02
-1.9009698825931600e+00 +9.1074338391727103e+00 +0.0000000000000000e+00 -1.9009698704241800e+00 +1.1093722358726771e-02 -1.0318775275215113e+00 -5.8877940432905194e-02
-2.0010209290454299e+00 +9.1074137150161505e+00 +0.0000000000000000e+00 -2.0010209148521301e+00 +1.1093789061379991e-02 -1.0318769987404521e+00 -5.8880931394636217e-02
-2.1010719754977001e+00 +9.1073925588495506e+00 +0.0000000000000000e+00 -2.1010719590671898e+00 +1.1093854714754348e-02 -1.0318764818239563e+00 -5.8883924355906385e-02
-2.2011230219499698e+00 +9.1073703706746993e+00 +0.0000000000000000e+00 -2.2011230030586999e+00 +1.1093919990058482e-02 -1.0318759737847678e+00 -5.8886918034503972e-02
-2.3011740684022501e+00 +9.1073471504933696e+00 +0.0000000000000000e+00 -2.3011740468160200e+00 +1.1093985558503140e-02 -1.0318754716360550e+00 -5.8889911148238591e-02
-2.4012251148545198e+00 +9.1073228983037797e+00 +0.0000000000000000e+00 -2.4012250903285000e+00 +1.1094052091302924e-02 -1.0318749723914424e+00 -5.8892902414944388e-02
-2.5012761613067900e+00 +9.1072976141041497e+00 +0.0000000000000000e+00 -2.5012761335854998e+00 +1.1094120259677744e-02 -1.0318744730650284e+00 -5.8895890552482448e-02
-2.6013272077590601e+00 +9.1072712978980501e+00 +0.0000000000000000e+00 -2.6013271765763899e+00 +1.1094190734854327e-02 -1.0318739706713975e+00 -5.8898874278742991e-02
-2.7013782542113298e+00 +9.1072439496836903e+00 +0.0000000000000000e+00 -2.7013782192905000e+00 +1.1094264188068107e-02 -1.0318734622256709e+00 -5.8901852311649260e-02
-2.8014293006636000e+00 +9.1072155694610704e+00 +0.0000000000000000e+00 -2.8014292617172001e+00 +1.1094341290564656e-02 -1.0318729447435140e+00 -5.8904823369159580e-02
-2.9014803471158799e+00 +9.1071861572302009e+00 +0.0000000000000000e+00 -2.9014803038458301e+00 +1.1094422713601320e-02 -1.0318724152411662e+00 -5.8907786169270351e-02
-3.0015313935681500e+00 +9.1071557129910694e+00 +0.0000000000000000e+00 -3.0015313456657702e+00 +1.1094509128448865e-02 -1.0318718707354662e+00 -5.8910739430018802e-02
-3.1015824400204202e+00 +9.1071242367454595e+00 +0.0000000000000000e+00 -3.1015823871663502e+00 +1.1094601206393013e-02 -1.0318713082438726e+00 -5.8913681869485576e-02
-3.2016334864726899e+00 +9.1070917284915893e+00 +0.0000000000000000e+00 -3.2016334283369399e+00 +1.1094699618736223e-02 -1.0318707247845023e+00 -5.8916612205798115e-02
-3.3016845329249600e+00 +9.1070581882277004e+00 +0.0000000000000000e+00 -3.3016844691668901e+00 +1.1094805036799202e-02 -1.0318701173761442e+00 -5.8919529157133048e-02
-3.4017355793772301e+00 +9.1070236159573206e+00 +0.0000000000000000e+00 -3.4017355096455599e+00 +1.1094918131922359e-02 -1.0318694830382769e+00 -5.8922431441718395e-02
-3.5017866258295101e+00 +9.1069880116786806e+00 +0.0000000000000000e+00 -3.5017865497623002e+00 +1.1095039575466484e-02 -1.0318688187911205e+00 -5.8925317777837792e-02
-3.6018376722817802e+00 +9.1069513753917892e+00 +0.0000000000000000e+00 -3.6018375895064700e+00 +1.1095169807857429e-02 -1.0318681227426452e+00 -5.8928186925139764e-02
-3.7018887187340499e+00 +9.1069137070966395e+00 +0.0000000000000000e+00 -3.7018886288674100e+00 +1.1095308393883561e-02 -1.0318673971226251e+00 -5.8931037799932758e-02
-3.8019397651863200e+00 +9.1068750067950095e+00 +0.0000000000000000e+00 -3.8019396678344899e+00 +1.1095454690866197e-02 -1.0318666451374106e+00 -5.8933869355655935e-02
-3.9019908116385902e+00 +9.1068352744833394e+00 +0.0000000000000000e+00 -3.9019907063970600e+00 +1.1095608056156805e-02 -1.0318658699932721e+00 -5.8936680545764834e-02
-4.0020418580908599e+00 +9.1067945101634198e+00 +0.0000000000000000e+00 -4.0020417445444796e+00 +1.1095767847138425e-02 -1.0318650748963465e+00 -5.8939470323730134e-02
-4.1020929045431300e+00 +9.1067527138370199e+00 +0.0000000000000000e+00 -4.1020927822660997e+00 +1.1095933421227541e-02 -1.0318642630526116e+00 -5.8942237643037597e-02
-4.2021439509954099e+00 +9.1067098855023705e+00 +0.0000000000000000e+00 -4.2021438195512797e+00 +1.1096104135875967e-02 -1.0318634376678686e+00 -5.8944981457188322e-02
-4.3021949974476801e+00 +9.1066660251594502e+00 +0.0000000000000000e+00 -4.3021948563893604e+00 +1.1096279348572368e-02 -1.0318626019476933e+00 -5.8947700719697675e-02
-4.4022460438999502e+00 +9.1066211328065094e+00 +0.0000000000000000e+00 -4.4022458927697201e+00 +1.1096458416844163e-02 -1.0318617590974142e+00 -5.8950394384095495e-02
-4.5022970903522204e+00 +9.1065752084488594e+00 +0.0000000000000000e+00 -4.5022969286816901e+00 +1.1096640698258945e-02 -1.0318609123220577e+00 -5.8953061403924624e-02
-4.6023481368044896e+00 +9.1065282520811692e+00 +0.0000000000000000e+00 -4.6023479641146396e+00 +1.1096825550426783e-02 -1.0318600648263598e+00 -5.8955700732742568e-02
-4.7023991832567598e+00 +9.1064802637070095e+00 +0.0000000000000000e+00 -4.7023989990579196e+00 +1.1097012331001330e-02 -1.0318592198146870e+00 -5.8958311324119009e-02
-4.8024502297090397e+00 +9.1064312433245895e+00 +0.0000000000000000e+00 -4.8024500335008904e+00 +1.1097200397682033e-02 -1.0318583804910373e+00 -5.8960892131637035e-02
-4.9025012761613098e+00 +9.1063811909321402e+00 +0.0000000000000000e+00 -4.9025010674329002e+00 +1.1097389108215672e-02 -1.0318575500589968e+00 -5.8963442108892143e-02
-5.0025523226135800e+00 +9.1063301065332105e+00 +0.0000000000000000e+00 -5.0025521008432996e+00 +1.1097577820397929e-02 -1.0318567317216933e+00 -5.8965960209491408e-02
-5.1026033690658501e+00 +9.1062779901260207e+00 +0.0000000000000000e+00 -5.1026031337214599e+00 +1.1097765892075461e-02 -1.0318559286817901e+00 -5.8968445387054119e-02
-5.2026544155181202e+00 +9.1062248417123506e+00 +0.0000000000000000e+00 -5.2026541660567203e+00 +1.1097952681147353e-02 -1.0318551441414336e+00 -5.8970896595210716e-02
-5.3027054619703904e+00 +9.1061706612886404e+00 +0.0000000000000000e+00 -5.3027051978384501e+00 +1.1098137545567098e-02 -1.0318543813022409e+00 -5.8973312787603115e-02
-5.4027565084226703e+00 +9.1061154488584606e+00 +0.0000000000000000e+00 -5.4027562290559903e+00 +1.1098319843343992e-02 -1.0318536433652392e+00 -5.8975692917883273e-02
-5.5028075548749404e+00 +9.1060592044200206e+00 +0.0000000000000000e+00 -5.5028072596986997e+00 +1.1098498932549401e-02 -1.0318529335308404e+00 -5.8978035939716643e-02
-5.6028586013272097e+00 +9.1060019279733204e+00 +0.0000000000000000e+00 -5.6028582897559396e+00 +1.1098674378405548e-02 -1.0318522539368511e+00 -5.8980340937793849e-02
-5.7029096477794798e+00 +9.1059436195183707e+00 +0.0000000000000000e+00 -5.7029093192170599e+00 +1.1098846507699626e-02 -1.0318516028152656e+00 -5.8982607478586607e-02
-5.8029606942317500e+00 +9.1058842790551608e+00 +0.0000000000000000e+00 -5.8029603480714202e+00 +1.1099015822167616e-02 -1.0318509775001488e+00 -5.8984835239243590e-02
-5.9030117406840201e+00 +9.1058239065854707e+00 +0.0000000000000000e+00 -5.9030113763083696e+00 +1.1099182823469398e-02 -1.0318503753250821e+00 -5.8987023896863625e-02
-6.0030627871363000e+00 +9.1057625021075204e+00 +0.0000000000000000e+00 -6.0030624039172604e+00 +1.1099348013184813e-02 -1.0318497936231565e+00 -5.8989173128493493e-02
-6.1031138335885702e+00 +9.1057000656213205e+00 +0.0000000000000000e+00 -6.1031134308874604e+00 +1.1099511892809374e-02 -1.0318492297269370e+00 -5.8991282611124511e-02
-6.2031648800408403e+00 +9.1056365971268605e+00 +0.0000000000000000e+00 -6.2031644572083096e+00 +1.1099674963750219e-02 -1.0318486809684455e+00 -5.8993352021690003e-02
-6.3032159264931096e+00 +9.1055720966241402e+00 +0.0000000000000000e+00 -6.3032154828691800e+00 +1.1099837727321977e-02 -1.0318481446791381e+00 -5.8995381037062415e-02
-6.4032669729453797e+00 +9.1055065641149504e+00 +0.0000000000000000e+00 -6.4032665078594100e+00 +1.1100000684742659e-02 -1.0318476181898828e+00 -5.8997369334050434e-02
-6.5033180193976499e+00 +9.1054399995957205e+00 +0.0000000000000000e+00 -6.5033175321683601e+00 +1.1100164337129691e-02 -1.0318470988309507e+00 -5.8999316589396888e-02
-6.6033690658499298e+00 +9.1053724030699996e+00 +0.0000000000000000e+00 -6.6033685557853898e+00 +1.1100329185495488e-02 -1.0318465839319675e+00 -5.9001222479774684e-02
-6.7034201123021999e+00 +9.1053037745378091e+00 +0.0000000000000000e+00 -6.7034195786998501e+00 +1.1100495730743645e-02 -1.0318460708219159e+00 -5.9003086681785097e-02
-6.8034711587544701e+00 +9.1052341139955892e+00 +0.0000000000000000e+00 -6.8034706009011003e+00 +1.1100664473664821e-02 -1.0318455568291141e+00 -5.9004908871954934e-02
-6.9035222052067402e+00 +9.1051634214468908e+00 +0.0000000000000000e+00 -6.9035216223784897e+00 +1.1100835914932350e-02 -1.0318450392811700e+00 -5.9006688726732780e-02
-7.0035732516590103e+00 +9.1050916968899305e+00 +0.0000000000000000e+00 -7.0035726431213803e+00 +1.1101010555098476e-02 -1.0318445155049876e+00 -5.9008425922487312e-02
-7.1036242981112796e+00 +9.1050189403247099e+00 +0.0000000000000000e+00 -7.1036236631191203e+00 +1.1101188894590039e-02 -1.0318439828267301e+00 -5.9010120135503913e-02
-7.2036753445635497e+00 +9.1049451517530091e+00 +0.0000000000000000e+00 -7.2036746823610702e+00 +1.1101371433704404e-02 -1.0318434385717961e+00 -5.9011771041981791e-02
-7.3037263910158297e+00 +9.1048703311712806e+00 +0.0000000000000000e+00 -7.3037257008365799e+00 +1.1101558672605550e-02 -1.0318428800648167e+00 -5.9013378318031960e-02
-7.4037774374680998e+00 +9.1047944785830701e+00 +0.0000000000000000e+00 -7.4037767185350001e+00 +1.1101751111319606e-02 -1.0318423046296044e+00 -5.9014941639673101e-02
-7.5038284839203699e+00 +9.1047175939865994e+00 +0.0000000000000000e+00 -7.5038277354457001e+00 +1.1101949249721679e-02 -1.0318417095891945e+00 -5.9016460682835281e-02
-7.6038795303726401e+00 +9.1046396773836609e+00 +0.0000000000000000e+00 -7.6038787515580202e+00 +1.1102153398842846e-02 -1.0318410929903448e+00 -5.9017935226829674e-02
-7.7039305768249102e+00 +9.1045607287706805e+00 +0.0000000000000000e+00 -7.7039297668613296e+00 +1.1102363196570594e-02 -1.0318404554636538e+00 -5.9019365420041284e-02
-7.8039816232771804e+00 +9.1044807481512198e+00 +0.0000000000000000e+00 -7.8039807813449800e+00 +1.1102578130842741e-02 -1.0318397982153276e+00 -5.9020751493205681e-02
-7.9040326697294496e+00 +9.1043997355235007e+00 +0.0000000000000000e+00 -7.9040317949983097e+00 +1.1102797689675611e-02 -1.0318391224512313e+00 -5.9022093677167445e-02
-8.0040837161817304e+00 +9.1043176908892995e+00 +0.0000000000000000e+00 -8.0040828078106898e+00 +1.1103021361167028e-02 -1.0318384293768659e+00 -5.9023392202883031e-02
-8.1041347626340006e+00 +9.1042346142468507e+00 +0.0000000000000000e+00 -8.1041338197714801e+00 +1.1103248633499783e-02 -1.0318377201973770e+00 -5.9024647301425419e-02
-8.2041858090862707e+00 +9.1041505055961398e+00 +0.0000000000000000e+00 -8.2041848308700196e+00 +1.1103478994944771e-02 -1.0318369961175440e+00 -5.9025859203987542e-02
-8.3042368555385409e+00 +9.1040653649371706e+00 +0.0000000000000000e+00 -8.3042358410956805e+00 +1.1103711933864249e-02 -1.0318362583417739e+00 -5.9027028141886269e-02
-8.4042879019908092e+00 +9.1039791922699393e+00 +0.0000000000000000e+00 -8.4042868504377992e+00 +1.1103946938715135e-02 -1.0318355080741022e+00 -5.9028154346566296e-02
-8.5043389484430794e+00 +9.1038919875980202e+00 +0.0000000000000000e+00 -8.5043378588857408e+00 +1.1104183498052147e-02 -1.0318347465181761e+00 -5.9029238049603722e-02
-8.6043899948953602e+00 +9.1038037509160592e+00 +0.0000000000000000e+00 -8.6043888664288701e+00 +1.1104421100531421e-02 -1.0318339748772822e+00 -5.9030279482711299e-02
-8.7044410413476303e+00 +9.1037144822276108e+00 +0.0000000000000000e+00 -8.7044398730565202e+00 +1.1104659234913253e-02 -1.0318331943543004e+00 -5.9031278877740331e-02
-8.8044920877999004e+00 +9.1036241815309200e+00 +0.0000000000000000e+00 -8.8044908787580596e+00 +1.1104897390065772e-02 -1.0318324061517319e+00 -5.9032236466686157e-02
-8.9045431342521706e+00 +9.1035328488259601e+00 +0.0000000000000000e+00 -8.9045418835228496e+00 +1.1105135054967970e-02 -1.0318316114716781e+00 -5.9033152481691296e-02
-9.0045941807044407e+00 +9.1034404841127508e+00 +0.0000000000000000e+00 -9.0045928873402303e+00 +1.1105371718713026e-02 -1.0318308115158428e+00 -5.9034027155049455e-02
-9.1046452271567109e+00 +9.1033470873930593e+00 +0.0000000000000000e+00 -9.1046438901995597e+00 +1.1105606870511488e-02 -1.0318300074855205e+00 -5.9034860719209353e-02
-9.2046962736089899e+00 +9.1032526586651095e+00 +0.0000000000000000e+00 -9.2046948920902096e+00 +1.1105839999694693e-02 -1.0318292005816083e+00 -5.9035653406779146e-02
-9.3047473200612600e+00 +9.1031571979306793e+00 +0.0000000000000000e+00 -9.3047458930015097e+00 +1.1106070595717794e-02 -1.0318283920045808e+00 -5.9036405450529489e-02
-9.4047983665135302e+00 +9.1030607051879997e+00 +0.0000000000000000e+00 -9.4047968929228301e+00 +1.1106298148163237e-02 -1.0318275829545074e+00 -5.9037117083398323e-02
-9.5048494129658003e+00 +9.1029631804370599e+00 +0.0000000000000000e+00 -9.5048478918435304e+00 +1.1106522146763319e-02 -1.0318267746310443e+00 -5.9037788538505158e-02
-9.6049004594180705e+00 +9.1028646236796291e+00 +0.0000000000000000e+00 -9.6048988897529508e+00 +1.1106742278804472e-02 -1.0318259683809938e+00 -5.9038420160640891e-02
-9.7049515058703406e+00 +9.1027650349139595e+00 +0.0000000000000000e+00 -9.7049498866404598e+00 +1.1106958914725452e-02 -1.0318251660617517e+00 -5.9039012680428937e-02
-9.8050025523226108e+00 +9.1026644141418007e+00 +0.0000000000000000e+00 -9.8050008824953991e+00 +1.1107172572539015e-02 -1.0318243696417080e+00 -5.9039566911698434e-02
-9.9050535987748898e+00 +9.1025627613596107e+00 +0.0000000000000000e+00 -9.9050518773071392e+00 +1.1107383770174124e-02 -1.0318235810900072e+00 -5.9040083668069676e-02
-1.0005104645227201e+01 +9.1024600765709298e+00 +0.0000000000000000e+00 -1.0005102871065001e+01 +1.1107593025473182e-02 -1.0318228023765517e+00 -5.9040563762946668e-02
-1.0105155691679400e+01 +9.1023563597757793e+00 +0.0000000000000000e+00 -1.0105153863758400e+01 +1.1107800856189938e-02 -1.0318220354720447e+00 -5.9041008009512307e-02
-1.0205206738131700e+01 +9.1022516109723703e+00 +0.0000000000000000e+00 -1.0205204855376600e+01 +1.1108007779987054e-02 -1.0318212823480186e+00 -5.9041417220722141e-02
-1.0305257784584001e+01 +9.1021458301607101e+00 +0.0000000000000000e+00 -1.0305255845909100e+01 +1.1108214314433569e-02 -1.0318205449768476e+00 -5.9041792209297929e-02
-1.0405308831036200e+01 +9.1020390173425607e+00 +0.0000000000000000e+00 -1.0405306835345099e+01 +1.1108420977002553e-02 -1.0318198253317792e+00 -5.9042133787721662e-02
-1.0505359877488500e+01 +9.1019311725161600e+00 +0.0000000000000000e+00 -1.0505357823674100e+01 +1.1108628285068806e-02 -1.0318191253869642e+00 -5.9042442768229987e-02
-1.0605410923940800e+01 +9.1018222956832808e+00 +0.0000000000000000e+00 -1.0605408810885301e+01 +1.1108836755906307e-02 -1.0318184471174752e+00 -5.9042719962807570e-02
-1.0705461970393101e+01 +9.1017123868421397e+00 +0.0000000000000000e+00 -1.0705459796968199e+01 +1.1109046906685986e-02 -1.0318177924993417e+00 -5.9042966183181625e-02
-1.0805513016845300e+01 +9.1016014459927401e+00 +0.0000000000000000e+00 -1.0805510781912000e+01 +1.1109259254473201e-02 -1.0318171635095679e+00 -5.9043182240815451e-02
-1.0905564063297600e+01 +9.1014894731368603e+00 +0.0000000000000000e+00 -1.0905561765706199e+01 +1.1109474316225346e-02 -1.0318165621261572e+00 -5.9043368946902271e-02
-1.1005615109749900e+01 +9.1013764682745109e+00 +0.0000000000000000e+00 -1.1005612748340100e+01 +1.1109692608789540e-02 -1.0318159903281467e+00 -5.9043527112359641e-02
-1.1105666156202100e+01 +9.1012624314038906e+00 +0.0000000000000000e+00 -1.1105663729803000e+01 +1.1109914648900267e-02 -1.0318154500956331e+00 -5.9043657547823404e-02
-1.1205717202654400e+01 +9.1011473625250208e+00 +0.0000000000000000e+00 -1.1205714710084401e+01 +1.1110140953176854e-02 -1.0318149434097903e+00 -5.9043761063641120e-02
-1.1305768249106700e+01 +9.1010312616396707e+00 +0.0000000000000000e+00 -1.1305765689173500e+01 +1.1110372038121106e-02 -1.0318144722528955e+00 -5.9043838469866161e-02
-1.1405819295559001e+01 +9.1009141287460693e+00 +0.0000000000000000e+00 -1.1405816667059700e+01 +1.1110608420115055e-02 -1.0318140386083683e+00 -5.9043890576252180e-02
-1.1505870342011200e+01 +9.1007959638459806e+00 +0.0000000000000000e+00 -1.1505867643732399e+01 +1.1110850615374094e-02 -1.0318136444605226e+00 -5.9043918192232148e-02
-1.1605921388463500e+01 +9.1006767669376405e+00 +0.0000000000000000e+00 -1.1605918619181001e+01 +1.1111098879631902e-02 -1.0318132902795878e+00 -5.9043922044277733e-02
-1.1705972434915800e+01 +9.1005565380228095e+00 +0.0000000000000000e+00 -1.1705969593394700e+01 +1.1111352594662146e-02 -1.0318129714500679e+00 -5.9043902581259106e-02
