# multipoles
# s[mm] polynom_b[n=0][T/m^n] polynom_b[n=1][T/m^n] polynom_b[n=2][T/m^n] polynom_b[n=3][T/m^n] polynom_b[n=4][T/m^n] polynom_b[n=5][T/m^n] polynom_b[n=6][T/m^n] 
+0.0000000000000000e+00 -1.0338358051143541e+00 +2.3095787320592085e+00 +1.8789035266211851e+01 -1.3618232955624762e+02 +1.7595941300339302e+04 +6.9230690856403601e+05 -5.8642504380480848e+07 
+1.0000000000000001e-01 -1.0338330577905128e+00 +2.3090726500116809e+00 +1.8870168483312828e+01 -1.2279883162008801e+02 +1.5686835590665934e+04 +6.0397978311239160e+05 -4.8439504332606718e+07 
+2.0000000000000001e-01 -1.0338302746724393e+00 +2.3085692015252754e+00 +1.8949546996420906e+01 -1.0959712984701382e+02 +1.3806153712042958e+04 +5.1704393956640438e+05 -3.8342410421265520e+07 
+2.9999999999999999e-01 -1.0338274528937370e+00 +2.3080680231790383e+00 +1.9026916252222371e+01 -9.6575162961045521e+01 +1.1957903326119347e+04 +4.3151927471662191e+05 -2.8366903053621896e+07 
+4.0000000000000002e-01 -1.0338245895880467e+00 +2.3075687515934407e+00 +1.9102021705825450e+01 -8.3730871126476842e+01 +1.0146091905781092e+04 +3.4742569436521118e+05 -1.8528661729543440e+07 
+5.0000000000000000e-01 -1.0338216818891162e+00 +2.3070710234377056e+00 +1.9174608831781160e+01 -7.1062196184316704e+01 +8.3747265194288884e+03 +2.6478311484559625e+05 -8.8433640082858410e+06 
+5.9999999999999998e-01 -1.0338187279074247e+00 +2.3065745622265874e+00 +1.9244477836026967e+01 -5.8567140559845946e+01 +6.6471292863780454e+03 +1.8360741908326358e+05 +6.7510106742430094e+05 
+6.9999999999999996e-01 -1.0338157296546728e+00 +2.3060794418210975e+00 +1.9311646483884552e+01 -4.6244103889558446e+01 +4.9638998367826962e+03 +1.0389991307104504e+05 +1.0019939079492060e+07 
+8.0000000000000004e-01 -1.0338126901165612e+00 +2.3055858244829510e+00 +1.9376186613000502e+01 -3.4091626102835647e+01 +3.3249610096717170e+03 +2.5658662216231427e+04 +1.9186116543857191e+07 
+9.0000000000000002e-01 -1.0338096122787932e+00 +2.3050938724997110e+00 +1.9438170065304632e+01 -2.2108248141856897e+01 +1.7302355340751719e+03 -5.1118260958979539e+04 +2.8168600499639656e+07 
+1.0000000000000000e+00 -1.0338064991271898e+00 +2.3046037481864885e+00 +1.9497668699767750e+01 -1.0292512048575155e+01 +1.7964576970079810e+02 -1.2643277613639503e+05 +3.6962359790979013e+07 
+1.1000000000000001e+00 -1.0338033536476174e+00 +2.3041156138800090e+00 +1.9554754386481132e+01 +1.3570392468661059e+00 -1.3268861804581804e+03 -2.0028679638506760e+05 +4.5562364531564638e+07 
+1.2000000000000000e+00 -1.0338001788260389e+00 +2.3036296319225498e+00 +1.9609499009814108e+01 +1.2841862353506539e+01 -2.7894385262439528e+03 -2.7268223045624583e+05 +5.3963586360180862e+07 
+1.3000000000000000e+00 -1.0337969776484699e+00 +2.3031459646825403e+00 +1.9661974465477790e+01 +2.4163412849050303e+01 -4.2080897446099407e+03 -3.4362097941160866e+05 +6.2160998253024586e+07 
+1.3999999999999999e+00 -1.0337937531010013e+00 +2.3026647745195241e+00 +1.9712252660982010e+01 +3.5323146264028971e+01 -5.5829185795830053e+03 -4.1310494215514290e+05 +7.0149574496936113e+07 
+1.5000000000000000e+00 -1.0337905081698366e+00 +2.3021862238046120e+00 +1.9760405520369893e+01 +4.6322517512220855e+01 -6.9140041453510166e+03 -4.8113601207528071e+05 +7.7924291220253751e+07 
+1.6000000000000001e+00 -1.0337872458412045e+00 +2.3017104749005410e+00 +1.9806504974608263e+01 +5.7162981450177938e+01 -8.2014257357394945e+03 -5.4771608012298192e+05 +8.5480125461672425e+07 
+1.7000000000000000e+00 -1.0337839691014685e+00 +2.3012376901614506e+00 +1.9850622973683567e+01 +6.7845992893797799e+01 -9.4452630612223602e+03 -6.1284703483246255e+05 +9.2812056317577690e+07 
+1.8000000000000000e+00 -1.0337806809370782e+00 +2.3007680319289721e+00 +1.9892831479869535e+01 +7.8373006712863813e+01 -1.0645596121929735e+04 -6.7653076271316467e+05 +9.9915064344661519e+07 
+1.8999999999999999e+00 -1.0337773843345499e+00 +2.3003016625279828e+00 +1.9933202467750892e+01 +8.8745477973013607e+01 -1.1802505211494836e+04 -7.3876914900016109e+05 +1.0678413158238491e+08 
+2.0000000000000000e+00 -1.0337740822805033e+00 +2.2998387442601911e+00 +1.9971807924584208e+01 +9.8964862091295231e+01 -1.2916070918371286e+04 -7.9956407837261271e+05 +1.1341424154978140e+08 
+2.1000000000000001e+00 -1.0337707777616452e+00 +2.2993794393972662e+00 +2.0008719852085065e+01 +1.0903261506679065e+02 -1.3986374171223795e+04 -8.5891743626210489e+05 +1.1980037948988226e+08 
+2.2000000000000002e+00 -1.0337674737648070e+00 +2.2989239101829004e+00 +2.0044010268756232e+01 +1.1895019338644254e+02 -1.5013496280252264e+04 -9.1683110810324398e+05 +1.2593753255788277e+08 
+2.2999999999999998e+00 -1.0337641732769167e+00 +2.2984723188239107e+00 +2.0077751205582459e+01 +1.2871905429918564e+02 -1.5997518856422703e+04 -9.7330698086566455e+05 +1.3182068944265969e+08 
+2.3999999999999999e+00 -1.0337608792849817e+00 +2.2980248274826134e+00 +2.0110014705556559e+01 +1.3834065603371846e+02 -1.6938523803484462e+04 -1.0283469441823973e+06 +1.3744484033060491e+08 
+2.5000000000000000e+00 -1.0337575947761242e+00 +2.2975815982769943e+00 +2.0140872827194379e+01 +1.4781645777000921e+02 -1.7836593396329336e+04 -1.0819528900323284e+06 +1.4280497731183907e+08 
+2.6000000000000001e+00 -1.0337543222981489e+00 +2.2971428153232987e+00 +2.0170406241115604e+01 +1.5714655258652070e+02 -1.8692257015210136e+04 -1.1341257443833800e+06 +1.4789948120337969e+08 
+2.7000000000000002e+00 -1.0337510625268489e+00 +2.2967087107707052e+00 +2.0198713283737888e+01 +1.6632695041243326e+02 -1.9507466186730770e+04 -1.1848737317474426e+06 +1.5273867189599824e+08 
+2.7999999999999998e+00 -1.0337478156404281e+00 +2.2962795193328578e+00 +2.0225892450730441e+01 +1.7535296946185269e+02 -2.0284436179219381e+04 -1.2342096610145448e+06 +1.5733545709322208e+08 
+2.8999999999999999e+00 -1.0337445818171136e+00 +2.2958554757330392e+00 +2.0252042233294077e+01 +1.8421992729764381e+02 -2.1025382072162214e+04 -1.2821463358591415e+06 +1.6170274317300165e+08 
+3.0000000000000000e+00 -1.0337413612350486e+00 +2.2954368147046909e+00 +2.0277261107318090e+01 +1.9292314079132041e+02 -2.1732518529130335e+04 -1.3286965542204459e+06 +1.6585343402505136e+08 
+3.1000000000000001e+00 -1.0337381540723936e+00 +2.2950237709934034e+00 +2.0301647542812180e+01 +2.0145792608475418e+02 -2.2408059967497084e+04 -1.3738731082668104e+06 +1.6980043182454330e+08 
+3.2000000000000002e+00 -1.0337349605073392e+00 +2.2946165793575988e+00 +2.0325300005070154e+01 +2.0981959851387887e+02 -2.3054220569745125e+04 -1.4176887838264683e+06 +1.7355663704934293e+08 
+3.2999999999999998e+00 -1.0337317807179502e+00 +2.2942154745667347e+00 +2.0348316935391193e+01 +2.1800347270810951e+02 -2.3673213896666301e+04 -1.4601563611568557e+06 +1.7713494657713866e+08 
+3.3999999999999999e+00 -1.0337286148823479e+00 +2.2938206914143433e+00 +2.0370796772695765e+01 +2.2600486216483120e+02 -2.4267253291321958e+04 -1.5012886124077735e+06 +1.8054825557955858e+08 
+3.5000000000000000e+00 -1.0337254631785395e+00 +2.2934324646987019e+00 +2.0392837930370071e+01 +2.3381907982513027e+02 -2.4838551420039305e+04 -1.5410983050858357e+06 +1.8380945528199828e+08 
+3.6000000000000001e+00 -1.0337223257844974e+00 +2.2930510292462563e+00 +2.0414538808073928e+01 +2.4144143737303492e+02 -2.5389320490133501e+04 -1.5795981979499792e+06 +1.8693143397258195e+08 
+3.7000000000000002e+00 -1.0337192028781599e+00 +2.2926766199003974e+00 +2.0435997788431525e+01 +2.4886724556344672e+02 -2.5921772162748344e+04 -1.6168010430159238e+06 +1.8992707651319063e+08 
+3.7999999999999998e+00 -1.0337160946373753e+00 +2.2923094715260572e+00 +2.0457313230312717e+01 +2.5609181407247513e+02 -2.6438117423720403e+04 -1.6527195846989332e+06 +1.9280926371520030e+08 
+3.8999999999999999e+00 -1.0337130012399394e+00 +2.2919498190092273e+00 +2.0478583474770151e+01 +2.6311045151852306e+02 -2.6940566677375507e+04 -1.6873665599858847e+06 +1.9559087272605145e+08 
+4.0000000000000000e+00 -1.0337099228635360e+00 +2.2915978972615054e+00 +2.0499906831631858e+01 +2.6991846530557086e+02 -2.7431329471868601e+04 -1.7207546975837064e+06 +1.9828477565989524e+08 
+4.0999999999999996e+00 -1.0337068596857735e+00 +2.2912539412219868e+00 +2.0521381590798224e+01 +2.7651116157166558e+02 -2.7912614715707063e+04 -1.7528967176018457e+06 +2.0090384062935445e+08 
+4.2000000000000002e+00 -1.0337038118841784e+00 +2.2909181858530601e+00 +2.0543106013555398e+01 +2.8288384530096005e+02 -2.8386630482441564e+04 -1.7838053323238974e+06 +2.0346093071956056e+08 
+4.2999999999999998e+00 -1.0337007796361568e+00 +2.2905908661488215e+00 +2.0565178332178014e+01 +2.8903182007468996e+02 -2.8855584002062165e+04 -1.8134932447477395e+06 +2.0596890394295162e+08 
+4.4000000000000004e+00 -1.0336977631190363e+00 +2.2902722171316166e+00 +2.0587696751022236e+01 +2.9495038816233989e+02 -2.9321681662154817e+04 -1.8419731491858484e+06 +2.0844061318343741e+08 
+4.5000000000000000e+00 -1.0336947625099588e+00 +2.2899624738468805e+00 +2.0610759434898462e+01 +3.0063485068104148e+02 -2.9787128763782981e+04 -1.8692577321020248e+06 +2.1088890497107697e+08 
+4.5999999999999996e+00 -1.0336917777424819e+00 +2.2896618781940830e+00 +2.0634424324858283e+01 +3.0608074177791218e+02 -3.0253439375146772e+04 -1.8953533337756624e+06 +2.1332309427821800e+08 
+4.7000000000000002e+00 -1.0336888080783171e+00 +2.2893707325437567e+00 +2.0658630797597649e+01 +3.1128375871857554e+02 -3.0720240894478866e+04 -1.9202328172284015e+06 +2.1574227115287155e+08 
+4.7999999999999998e+00 -1.0336858526885289e+00 +2.2890893602061113e+00 +2.0683299295359763e+01 +3.1623951494985272e+02 -3.1186910734141256e+04 -1.9438588150017178e+06 +2.1814393896709871e+08 
+4.9000000000000004e+00 -1.0336829107444785e+00 +2.2888180844559103e+00 +2.0708350298298857e+01 +3.2094362579658230e+02 -3.1652827153930721e+04 -1.9661939722994363e+06 +2.2052560552022293e+08 
+5.0000000000000000e+00 -1.0336799814178523e+00 +2.2885572285296112e+00 +2.0733704329630640e+01 +3.2539170867681372e+02 -3.2117369348645047e+04 -1.9872009497773154e+06 +2.2288478354397771e+08 
+5.0999999999999996e+00 -1.0336770638806752e+00 +2.2883071156345549e+00 +2.0759281957181845e+01 +3.2957938287809378e+02 -3.2579917503868568e+04 -2.0068424224452239e+06 +2.2521899105935317e+08 
+5.2000000000000002e+00 -1.0336741573052453e+00 +2.2880680689322834e+00 +2.0785003783931177e+01 +3.3350227011420083e+02 -3.3039852615203825e+04 -2.0250810831598376e+06 +2.2752575052866039e+08 
+5.2999999999999998e+00 -1.0336712608642151e+00 +2.2878404115499671e+00 +2.0810790461058286e+01 +3.3715599426850844e+02 -3.3496556749826137e+04 -2.0418796413810286e+06 +2.2980259014816585e+08 
+5.4000000000000004e+00 -1.0336683737306815e+00 +2.2876244665663590e+00 +2.0836562697683302e+01 +3.4053618184913040e+02 -3.3949413251097802e+04 -2.0572008260424328e+06 +2.3204704489838928e+08 
+5.5000000000000000e+00 -1.0336654950780022e+00 +2.2874205570228452e+00 +2.0862241239799754e+01 +3.4363846174612866e+02 -3.4397806336768306e+04 -2.0710073843700124e+06 +2.3425665463883889e+08 
+5.5999999999999996e+00 -1.0336626240800189e+00 +2.2872290059085558e+00 +2.0887746896284458e+01 +3.4645846572073748e+02 -3.4841121614401978e+04 -2.0832620849961394e+06 +2.3642896663435462e+08 
+5.7000000000000002e+00 -1.0336597599109048e+00 +2.2870501361644275e+00 +2.0913000522502792e+01 +3.4899182835982350e+02 -3.5278745775202646e+04 -2.0939277179027582e+06 +2.3856153413164452e+08 
+5.7999999999999998e+00 -1.0336569017453412e+00 +2.2868842706859573e+00 +2.0937923041471660e+01 +3.5123418703493280e+02 -3.5710067010785911e+04 -2.1029670943893446e+06 +2.4065191839365956e+08 
+5.9000000000000004e+00 -1.0336540487583414e+00 +2.2867317323096295e+00 +2.0962435422844369e+01 +3.5318118241352391e+02 -3.6134474621452311e+04 -2.1103430504031959e+06 +2.4269768687619239e+08 
+6.0000000000000000e+00 -1.0336512001254365e+00 +2.2865928438193763e+00 +2.0986458706806534e+01 +3.5482845828716904e+02 -3.6551359485243316e+04 -2.1160184456519429e+06 +2.4469641551441491e+08 
+6.0999999999999996e+00 -1.0336483550225979e+00 +2.2864679279406852e+00 +2.1009913991518928e+01 +3.5617166182131405e+02 -3.6960113824516258e+04 -2.1199561653626617e+06 +2.4664568764147004e+08 
+6.2000000000000002e+00 -1.0336455126262860e+00 +2.2863573073477497e+00 +2.1032722445824604e+01 +3.5720644342341126e+02 -3.7360131466743973e+04 -2.1221191197082466e+06 +2.4854309529956031e+08 
+6.2999999999999998e+00 -1.0336426721134586e+00 +2.2862613046421685e+00 +2.1054805304500377e+01 +3.5792845741305331e+02 -3.7750807758678638e+04 -2.1224702479917998e+06 +2.5038623885928488e+08 
+6.4000000000000004e+00 -1.0336398326615432e+00 +2.2861802423716151e+00 +2.1076083867971885e+01 +3.5833336156227921e+02 -3.8131539574301896e+04 -2.1209725162209370e+06 +2.5217272710771438e+08 
+6.5000000000000000e+00 -1.0336369934485201e+00 +2.2861144429968103e+00 +2.1096479511673405e+01 +3.5841681816331476e+02 -3.8501725478598397e+04 -2.1175889227456776e+06 +2.5390017807954517e+08 
+6.5999999999999996e+00 -1.0336341541021921e+00 +2.2860640425668297e+00 +2.1115880692212119e+01 +3.5817979569173349e+02 -3.8859754839046218e+04 -2.1123159564416707e+06 +2.5556136932088193e+08 
+6.7000000000000002e+00 -1.0336313158753869e+00 +2.2860285688592601e+00 +2.1134033069211288e+01 +3.5764098744684952e+02 -3.9199869759726062e+04 -2.1052733923904737e+06 +2.5712981667381153e+08 
+6.7999999999999998e+00 -1.0336284803776550e+00 +2.2860074312854466e+00 +2.1150642300678985e+01 +3.5682269712370919e+02 -3.9515214180036062e+04 -2.0966098226549004e+06 +2.5857411548584247e+08 
+6.9000000000000004e+00 -1.0336256492183493e+00 +2.2860000393986830e+00 +2.1165414005515693e+01 +3.5574722208921781e+02 -3.9798931266194835e+04 -2.0864737998686726e+06 +2.5986285785515115e+08 
+7.0000000000000000e+00 -1.0336228240065748e+00 +2.2860058029136860e+00 +2.1178053761672203e+01 +3.5443685242863171e+02 -4.0044163372128758e+04 -2.0750138274421340e+06 +2.6096463214232555e+08 
+7.0999999999999996e+00 -1.0336200063512226e+00 +2.2860241316973084e+00 +2.1188267107871699e+01 +3.5291387112624449e+02 -4.0244052065865260e+04 -2.0623783604015801e+06 +2.6184802308171070e+08 
+7.2000000000000002e+00 -1.0336171978609683e+00 +2.2860544357743069e+00 +2.1195759542483962e+01 +3.5120055379327556e+02 -4.0391738110434097e+04 -2.0487158035283915e+06 +2.6248161170739591e+08 
+7.2999999999999998e+00 -1.0336144001441825e+00 +2.2860961253379344e+00 +2.1200236516876764e+01 +3.4931916828160053e+02 -4.0480361335404894e+04 -2.0341745088619944e+06 +2.6283397474077594e+08 
+7.4000000000000004e+00 -1.0336116148090393e+00 +2.2861486107575582e+00 +2.1201403440585768e+01 +3.4729197430981435e+02 -4.0503060728596996e+04 -2.0189027731796764e+06 +2.6287368501532432e+08 
+7.5000000000000000e+00 -1.0336088434633766e+00 +2.2862113025787192e+00 +2.1198965670399929e+01 +3.4514122339204863e+02 -4.0452974229256484e+04 -2.0030488373430211e+06 +2.6256931050093141e+08 
+7.5999999999999996e+00 -1.0336060877147801e+00 +2.2862836115301697e+00 +2.1192628516951984e+01 +3.4288915853332111e+02 -4.0323238854260904e+04 -1.9867608842865645e+06 +2.6188941491455600e+08 
+7.7000000000000002e+00 -1.0336033491705050e+00 +2.2863649485322863e+00 +2.1182097236581473e+01 +3.4055801387018568e+02 -4.0106990535794874e+04 -1.9701870365944866e+06 +2.6080255693090674e+08 
+7.7999999999999998e+00 -1.0336006294374931e+00 +2.2864547247020632e+00 +2.1167077032099005e+01 +3.3817001442765019e+02 -3.9797364136874152e+04 -1.9534753548384409e+06 +2.5927729026829845e+08 
+7.9000000000000004e+00 -1.0335979301223859e+00 +2.2865523513558124e+00 +2.1147273053093766e+01 +3.3574737593414000e+02 -3.9387493456372671e+04 -1.9367738362312650e+06 +2.5728216371496025e+08 
+8.0000000000000000e+00 -1.0335952528314418e+00 +2.2866572400177398e+00 +2.1122390387211798e+01 +3.3331230447779876e+02 -3.8870511056277675e+04 -1.9202304123397071e+06 +2.5478572029585913e+08 
+8.0999999999999996e+00 -1.0335925991705734e+00 +2.2867688024266353e+00 +2.1092134062924405e+01 +3.3088699619067597e+02 -3.8239548316543900e+04 -1.9039929469442936e+06 +2.5175649754448652e+08 
+8.1999999999999993e+00 -1.0335899707453313e+00 +2.2868864505414290e+00 +2.1056209049477431e+01 +3.2849363701795266e+02 -3.7487735431361820e+04 -1.8882092344934421e+06 +2.4816302748477912e+08 
+8.3000000000000007e+00 -1.0335873691608783e+00 +2.2870095965411257e+00 +2.1014320249569025e+01 +3.2615440258407750e+02 -3.6608201267385914e+04 -1.8730269989886871e+06 +2.4397383595754021e+08 
+8.4000000000000004e+00 -1.0335847960219855e+00 +2.2871376528384157e+00 +2.0966172501876660e+01 +3.2389145770560515e+02 -3.5594073407058459e+04 -1.8585938908709364e+06 +2.3915744281711960e+08 
+8.5000000000000000e+00 -1.0335822529331411e+00 +2.2872700322007176e+00 +2.0911470609337581e+01 +3.2172695187834455e+02 -3.4438478936292755e+04 -1.8450574631070297e+06 +2.3368236602942681e+08 
+8.5999999999999996e+00 -1.0335797412793615e+00 +2.2874063050136075e+00 +2.0850059733062803e+01 +3.1967358194933388e+02 -3.3137818144982331e+04 -1.8325030077044370e+06 +2.2753285158023208e+08 
+8.6999999999999993e+00 -1.0335772614631775e+00 +2.2875462369591051e+00 +2.0782321193567643e+01 +3.1771680609458645e+02 -3.1700440850467727e+04 -1.8208096402584303e+06 +2.2074864675172269e+08 
+8.8000000000000007e+00 -1.0335748136358187e+00 +2.2876895438980362e+00 +2.0708769588682976e+01 +3.1583736051852372e+02 -3.0137517500393104e+04 -1.8098117544241406e+06 +2.1338203699476302e+08 
+8.9000000000000004e+00 -1.0335723979486584e+00 +2.2878359415311817e+00 +2.0629919579200806e+01 +3.1401598722202050e+02 -2.8460219715668467e+04 -1.7993437747613078e+06 +2.0548531199641576e+08 
+9.0000000000000000e+00 -1.0335700145531872e+00 +2.2879851453948556e+00 +2.0546285884010807e+01 +3.1223343581395079e+02 -2.6679720336546110e+04 -1.7892401771382231e+06 +1.9711076687354991e+08 
+9.0999999999999996e+00 -1.0335676636010325e+00 +2.2881368708517558e+00 +2.0458383280487006e+01 +3.1047046383098746e+02 -2.4807193430387120e+04 -1.7793354907411304e+06 +1.8831070218875843e+08 
+9.1999999999999993e+00 -1.0335653452439022e+00 +2.2882908330830873e+00 +2.0366726600244089e+01 +3.0870783711086710e+02 -2.2853814211868466e+04 -1.7694643006213161e+06 +1.7913742355289739e+08 
+9.3000000000000007e+00 -1.0335630596336529e+00 +2.2884467470853886e+00 +2.0271830740632467e+01 +3.0692632994844854e+02 -2.0830759272650164e+04 -1.7594612487192021e+06 +1.6964324272588027e+08 
+9.4000000000000004e+00 -1.0335608069222315e+00 +2.2886043276655261e+00 +2.0174210655966245e+01 +3.0510672535713672e+02 -1.8749206407106893e+04 -1.7491610357184783e+06 +1.5988047674751478e+08 
+9.5000000000000000e+00 -1.0335585872617412e+00 +2.2887632894338314e+00 +2.0074381369224639e+01 +3.0322981536490624e+02 -1.6620334850961382e+04 -1.7383984229951564e+06 +1.4990144909380493e+08 
+9.5999999999999996e+00 -1.0335564008043943e+00 +2.2889233467967398e+00 +1.9972857965672898e+01 +3.0127640132427678e+02 -1.4455325147650372e+04 -1.7270082346571239e+06 +1.3975848898668656e+08 
+9.6999999999999993e+00 -1.0335542477025266e+00 +2.2890842139511447e+00 +1.9870155596638352e+01 +2.9922729417747468e+02 -1.2265359235591972e+04 -1.7148253593600499e+06 +1.2950393182991916e+08 
+9.8000000000000007e+00 -1.0335521281086339e+00 +2.2892456048801244e+00 +1.9766789487511492e+01 +2.9706331468583079e+02 -1.0061620598001991e+04 -1.7016847518598835e+06 +1.1919011989611411e+08 
+9.9000000000000004e+00 -1.0335500421753090e+00 +2.2894072333436064e+00 +1.9663274925427501e+01 +2.9476529377989596e+02 -7.8552940308839425e+03 -1.6874214353275448e+06 +1.0886940120389651e+08 
+1.0000000000000000e+01 -1.0335479900552951e+00 +2.2895688128787532e+00 +1.9560127274623884e+01 +2.9231407267867485e+02 -5.6575659424541727e+03 -1.6718705022775719e+06 +9.8594130945790812e+07 
+1.0100000000000000e+01 -1.0335459719014797e+00 +2.2897300567853347e+00 +1.9457861970761453e+01 +2.8969050338282347e+02 -3.4796242435819972e+03 -1.6548671176852633e+06 +8.8416670937347889e+07 
