# trajectory
# s[mm] rx[mm] ry[mm] rz[mm] px[rad] py[rad] pz[rad]
0.0000000000000000e+00 +9.0449999999999999e+00 +0.0000000000000000e+00 +0.0000000000000000e+00 +0.0000000000000000e+00 +0.0000000000000000e+00 +1.0000000000000000e+00
-1.0000000000000001e-01 +9.0449994836628171e+00 +0.0000000000000000e+00 -9.9999999998222636e-02 +1.0326749417722764e-05 +0.0000000000000000e+00 +9.9999999994667910e-01
-2.0000000000000001e-01 +9.0449979346489666e+00 +0.0000000000000000e+00 -1.9999999998578108e-01 +2.0653533317701454e-05 +0.0000000000000000e+00 +9.9999999978671572e-01
-3.0000000000000004e-01 +9.0449953529550182e+00 +0.0000000000000000e+00 -2.9999999995201099e-01 +3.0980351293380796e-05 +0.0000000000000000e+00 +9.9999999952010887e-01
-4.0000000000000002e-01 +9.0449917385775880e+00 +0.0000000000000000e+00 -3.9999999988624801e-01 +4.1307202888636314e-05 +0.0000000000000000e+00 +9.9999999914685744e-01
-5.0000000000000000e-01 +9.0449870915133381e+00 +0.0000000000000000e+00 -4.9999999977782761e-01 +5.1634087597772766e-05 +0.0000000000000000e+00 +9.9999999866696043e-01
-5.9999999999999998e-01 +9.0449814117589842e+00 +0.0000000000000000e+00 -5.9999999961608519e-01 +6.1961004865522575e-05 +0.0000000000000000e+00 +9.9999999808041684e-01
-6.9999999999999996e-01 +9.0449746993113003e+00 +0.0000000000000000e+00 -6.9999999939035606e-01 +7.2287954087044186e-05 +0.0000000000000000e+00 +9.9999999738722578e-01
-7.9999999999999993e-01 +9.0449669541671227e+00 +0.0000000000000000e+00 -7.9999999908997543e-01 +8.2614934607920439e-05 +0.0000000000000000e+00 +9.9999999658738625e-01
-8.9999999999999991e-01 +9.0449581763233589e+00 +0.0000000000000000e+00 -8.9999999870427838e-01 +9.2941945724156868e-05 +0.0000000000000000e+00 +9.9999999568089737e-01
-9.9999999999999989e-01 +9.0449483657769836e+00 +0.0000000000000000e+00 -9.9999999822259988e-01 +1.0326898668217994e-04 +0.0000000000000000e+00 +9.9999999466775824e-01
-1.0999999999999999e+00 +9.0449375225250535e+00 +0.0000000000000000e+00 -1.0999999976342749e+00 +1.1359605667883533e-04 +0.0000000000000000e+00 +9.9999999354796798e-01
-1.2000000000000000e+00 +9.0449256465647068e+00 +0.0000000000000000e+00 -1.1999999969286383e+00 +1.2392315486138607e-04 +0.0000000000000000e+00 +9.9999999232152581e-01
-1.3000000000000000e+00 +9.0449127378931706e+00 +0.0000000000000000e+00 -1.2999999960950250e+00 +1.3425028032751073e-04 +0.0000000000000000e+00 +9.9999999098843106e-01
-1.4000000000000001e+00 +9.0448987965077627e+00 +0.0000000000000000e+00 -1.3999999951227695e+00 +1.4457743212530148e-04 +0.0000000000000000e+00 +9.9999998954868297e-01
-1.5000000000000002e+00 +9.0448838224059003e+00 +0.0000000000000000e+00 -1.4999999940012065e+00 +1.5490460925326229e-04 +0.0000000000000000e+00 +9.9999998800228096e-01
-1.6000000000000003e+00 +9.0448678155851017e+00 +0.0000000000000000e+00 -1.5999999927196706e+00 +1.6523181066577152e-04 +0.0000000000000000e+00 +9.9999998634922427e-01
-1.7000000000000004e+00 +9.0448507760429919e+00 +0.0000000000000000e+00 -1.6999999912674963e+00 +1.7555903533319114e-04 +0.0000000000000000e+00 +9.9999998458951245e-01
-1.8000000000000005e+00 +9.0448327037772920e+00 +0.0000000000000000e+00 -1.7999999896340180e+00 +1.8588628230197711e-04 +0.0000000000000000e+00 +9.9999998272314483e-01
-1.9000000000000006e+00 +9.0448135987858169e+00 +0.0000000000000000e+00 -1.8999999878085700e+00 +1.9621355070014406e-04 +0.0000000000000000e+00 +9.9999998075012098e-01
-2.0000000000000004e+00 +9.0447934610664635e+00 +0.0000000000000000e+00 -1.9999999857804869e+00 +2.0654083973726574e-04 +0.0000000000000000e+00 +9.9999997867044044e-01
-2.1000000000000005e+00 +9.0447722906172050e+00 +0.0000000000000000e+00 -2.0999999835391030e+00 +2.1686814870447573e-04 +0.0000000000000000e+00 +9.9999997648410266e-01
-2.2000000000000006e+00 +9.0447500874360802e+00 +0.0000000000000000e+00 -2.1999999810737525e+00 +2.2719547697446825e-04 +0.0000000000000000e+00 +9.9999997419110720e-01
-2.3000000000000007e+00 +9.0447268515211849e+00 +0.0000000000000000e+00 -2.2999999783737692e+00 +2.3752282400149941e-04 +0.0000000000000000e+00 +9.9999997179145350e-01
-2.4000000000000008e+00 +9.0447025828706700e+00 +0.0000000000000000e+00 -2.3999999754284880e+00 +2.4785018932138862e-04 +0.0000000000000000e+00 +9.9999996928514123e-01
-2.5000000000000009e+00 +9.0446772814827234e+00 +0.0000000000000000e+00 -2.4999999722272426e+00 +2.5817757255152036e-04 +0.0000000000000000e+00 +9.9999996667216984e-01
-2.6000000000000010e+00 +9.0446509473555725e+00 +0.0000000000000000e+00 -2.5999999687593669e+00 +2.6850497339084598e-04 +0.0000000000000000e+00 +9.9999996395253887e-01
-2.7000000000000011e+00 +9.0446235804874657e+00 +0.0000000000000000e+00 -2.6999999650141953e+00 +2.7883239161988600e-04 +0.0000000000000000e+00 +9.9999996112624778e-01
-2.8000000000000012e+00 +9.0445951808766729e+00 +0.0000000000000000e+00 -2.7999999609810615e+00 +2.8915982710073262e-04 +0.0000000000000000e+00 +9.9999995819329612e-01
-2.9000000000000012e+00 +9.0445657485214728e+00 +0.0000000000000000e+00 -2.8999999566492995e+00 +2.9948727977705236e-04 +0.0000000000000000e+00 +9.9999995515368345e-01
-3.0000000000000013e+00 +9.0445352834201440e+00 +0.0000000000000000e+00 -2.9999999520082432e+00 +3.0981474967408903e-04 +0.0000000000000000e+00 +9.9999995200740910e-01
-3.1000000000000014e+00 +9.0445037855709600e+00 +0.0000000000000000e+00 -3.0999999470472264e+00 +3.2014223689866701e-04 +0.0000000000000000e+00 +9.9999994875447262e-01
-3.2000000000000015e+00 +9.0444712549721800e+00 +0.0000000000000000e+00 -3.1999999417555824e+00 +3.3046974163919478e-04 +0.0000000000000000e+00 +9.9999994539487325e-01
-3.3000000000000016e+00 +9.0444376916220399e+00 +0.0000000000000000e+00 -3.2999999361226453e+00 +3.4079726416566856e-04 +0.0000000000000000e+00 +9.9999994192861053e-01
-3.4000000000000017e+00 +9.0444030955187422e+00 +0.0000000000000000e+00 -3.3999999301377488e+00 +3.5112480482967640e-04 +0.0000000000000000e+00 +9.9999993835568368e-01
-3.5000000000000018e+00 +9.0443674666604537e+00 +0.0000000000000000e+00 -3.4999999237902264e+00 +3.6145236406440244e-04 +0.0000000000000000e+00 +9.9999993467609194e-01
-3.6000000000000019e+00 +9.0443308050452931e+00 +0.0000000000000000e+00 -3.5999999170694115e+00 +3.7177994238076699e-04 +0.0000000000000000e+00 +9.9999993088983463e-01
-3.7000000000000020e+00 +9.0442931106713242e+00 +0.0000000000000000e+00 -3.6999999099646375e+00 +3.8210754032492360e-04 +0.0000000000000000e+00 +9.9999992699691098e-01
-3.8000000000000020e+00 +9.0442543835365559e+00 +0.0000000000000000e+00 -3.7999999024652378e+00 +3.9243515843575470e-04 +0.0000000000000000e+00 +9.9999992299732010e-01
-3.9000000000000021e+00 +9.0442146236389469e+00 +0.0000000000000000e+00 -3.8999998945605459e+00 +4.0276279724100935e-04 +0.0000000000000000e+00 +9.9999991889106110e-01
-4.0000000000000018e+00 +9.0441738309764013e+00 +0.0000000000000000e+00 -3.9999998862398947e+00 +4.1309045725730571e-04 +0.0000000000000000e+00 +9.9999991467813321e-01
-4.1000000000000014e+00 +9.0441320055467713e+00 +0.0000000000000000e+00 -4.0999998774926167e+00 +4.2341813899013348e-04 +0.0000000000000000e+00 +9.9999991035853553e-01
-4.2000000000000011e+00 +9.0440891473478615e+00 +0.0000000000000000e+00 -4.1999998683080459e+00 +4.3374584293385610e-04 +0.0000000000000000e+00 +9.9999990593226717e-01
-4.3000000000000007e+00 +9.0440452563774265e+00 +0.0000000000000000e+00 -4.2999998586755144e+00 +4.4407356957171359e-04 +0.0000000000000000e+00 +9.9999990139932726e-01
-4.4000000000000004e+00 +9.0440003326331748e+00 +0.0000000000000000e+00 -4.3999998485843550e+00 +4.5440131937582489e-04 +0.0000000000000000e+00 +9.9999989675971490e-01
-4.5000000000000000e+00 +9.0439543761127652e+00 +0.0000000000000000e+00 -4.4999998380239008e+00 +4.6472909280719052e-04 +0.0000000000000000e+00 +9.9999989201342909e-01
-4.5999999999999996e+00 +9.0439073868138120e+00 +0.0000000000000000e+00 -4.5999998269834848e+00 +4.7505689031569542e-04 +0.0000000000000000e+00 +9.9999988716046884e-01
-4.6999999999999993e+00 +9.0438593647338852e+00 +0.0000000000000000e+00 -4.6999998154524389e+00 +4.8538471234011143e-04 +0.0000000000000000e+00 +9.9999988220083325e-01
-4.7999999999999989e+00 +9.0438103098705120e+00 +0.0000000000000000e+00 -4.7999998034200955e+00 +4.9571255930810042e-04 +0.0000000000000000e+00 +9.9999987713452143e-01
-4.8999999999999986e+00 +9.0437602222211773e+00 +0.0000000000000000e+00 -4.8999997908757873e+00 +5.0604043163621692e-04 +0.0000000000000000e+00 +9.9999987196153228e-01
-4.9999999999999982e+00 +9.0437091017833247e+00 +0.0000000000000000e+00 -4.9999997778088465e+00 +5.1636832972991125e-04 +0.0000000000000000e+00 +9.9999986668186480e-01
-5.0999999999999979e+00 +9.0436569485543590e+00 +0.0000000000000000e+00 -5.0999997642086043e+00 +5.2669625398353234e-04 +0.0000000000000000e+00 +9.9999986129551810e-01
-5.1999999999999975e+00 +9.0436037625316441e+00 +0.0000000000000000e+00 -5.1999997500643937e+00 +5.3702420478033092e-04 +0.0000000000000000e+00 +9.9999985580249107e-01
-5.2999999999999972e+00 +9.0435495437125066e+00 +0.0000000000000000e+00 -5.2999997353655468e+00 +5.4735218249246252e-04 +0.0000000000000000e+00 +9.9999985020278270e-01
-5.3999999999999968e+00 +9.0434942920942376e+00 +0.0000000000000000e+00 -5.3999997201013947e+00 +5.5768018748099087e-04 +0.0000000000000000e+00 +9.9999984449639190e-01
-5.4999999999999964e+00 +9.0434380076740908e+00 +0.0000000000000000e+00 -5.4999997042612696e+00 +5.6800822009589100e-04 +0.0000000000000000e+00 +9.9999983868331765e-01
-5.5999999999999961e+00 +9.0433806904492862e+00 +0.0000000000000000e+00 -5.5999996878345026e+00 +5.7833628067521976e-04 +0.0000000000000000e+00 +9.9999983276355897e-01
-5.6999999999999957e+00 +9.0433223404170118e+00 +0.0000000000000000e+00 -5.6999996708104250e+00 +5.8866436953595915e-04 +0.0000000000000000e+00 +9.9999982673711474e-01
-5.7999999999999954e+00 +9.0432629575744254e+00 +0.0000000000000000e+00 -5.7999996531783689e+00 +5.9899248696485821e-04 +0.0000000000000000e+00 +9.9999982060398396e-01
-5.8999999999999950e+00 +9.0432025419186584e+00 +0.0000000000000000e+00 -5.8999996349276653e+00 +6.0932063321760097e-04 +0.0000000000000000e+00 +9.9999981436416552e-01
-5.9999999999999947e+00 +9.0431410934468150e+00 +0.0000000000000000e+00 -5.9999996160476456e+00 +6.1964880851880756e-04 +0.0000000000000000e+00 +9.9999980801765842e-01
-6.0999999999999943e+00 +9.0430786121559805e+00 +0.0000000000000000e+00 -6.0999995965276410e+00 +6.2997701306203462e-04 +0.0000000000000000e+00 +9.9999980156446167e-01
-6.1999999999999940e+00 +9.0430150980432220e+00 +0.0000000000000000e+00 -6.1999995763569817e+00 +6.4030524700977622e-04 +0.0000000000000000e+00 +9.9999979500457414e-01
-6.2999999999999936e+00 +9.0429505511055943e+00 +0.0000000000000000e+00 -6.2999995555249990e+00 +6.5063351049346430e-04 +0.0000000000000000e+00 +9.9999978833799497e-01
-6.3999999999999932e+00 +9.0428849713401362e+00 +0.0000000000000000e+00 -6.3999995340210241e+00 +6.6096180361346955e-04 +0.0000000000000000e+00 +9.9999978156472313e-01
-6.4999999999999929e+00 +9.0428183587438813e+00 +0.0000000000000000e+00 -6.4999995118343872e+00 +6.7129012643910187e-04 +0.0000000000000000e+00 +9.9999977468475765e-01
-6.5999999999999925e+00 +9.0427507133138576e+00 +0.0000000000000000e+00 -6.5999994889544187e+00 +6.8161847900861060e-04 +0.0000000000000000e+00 +9.9999976769809751e-01
-6.6999999999999922e+00 +9.0426820350470880e+00 +0.0000000000000000e+00 -6.6999994653704498e+00 +6.9194686132918542e-04 +0.0000000000000000e+00 +9.9999976060474183e-01
-6.7999999999999918e+00 +9.0426123239406007e+00 +0.0000000000000000e+00 -6.7999994410718108e+00 +7.0227527337695642e-04 +0.0000000000000000e+00 +9.9999975340468972e-01
-6.8999999999999915e+00 +9.0425415799914237e+00 +0.0000000000000000e+00 -6.8999994160478311e+00 +7.1260371509699455e-04 +0.0000000000000000e+00 +9.9999974609794029e-01
-6.9999999999999911e+00 +9.0424698031965942e+00 +0.0000000000000000e+00 -6.9999993902878419e+00 +7.2293218640331186e-04 +0.0000000000000000e+00 +9.9999973868449266e-01
-7.0999999999999908e+00 +9.0423969935531598e+00 +0.0000000000000000e+00 -7.0999993637811727e+00 +7.3326068717886211e-04 +0.0000000000000000e+00 +9.9999973116434604e-01
-7.1999999999999904e+00 +9.0423231510581807e+00 +0.0000000000000000e+00 -7.1999993365171537e+00 +7.4358921727554045e-04 +0.0000000000000000e+00 +9.9999972353749966e-01
-7.2999999999999901e+00 +9.0422482757087330e+00 +0.0000000000000000e+00 -7.2999993084851154e+00 +7.5391777651418401e-04 +0.0000000000000000e+00 +9.9999971580395264e-01
-7.3999999999999897e+00 +9.0421723675019123e+00 +0.0000000000000000e+00 -7.3999992796743870e+00 +7.6424636468457171e-04 +0.0000000000000000e+00 +9.9999970796370430e-01
-7.4999999999999893e+00 +9.0420954264348392e+00 +0.0000000000000000e+00 -7.4999992500742989e+00 +7.7457498154542468e-04 +0.0000000000000000e+00 +9.9999970001675387e-01
-7.5999999999999890e+00 +9.0420174525046555e+00 +0.0000000000000000e+00 -7.5999992196741806e+00 +7.8490362682572445e-04 +0.0000000000000000e+00 +9.9999969196310079e-01
-7.6999999999999886e+00 +9.0419384457085350e+00 +0.0000000000000000e+00 -7.6999991884633623e+00 +7.9523230023921759e-04 +0.0000000000000000e+00 +9.9999968380274429e-01
-7.7999999999999883e+00 +9.0418584060436782e+00 +0.0000000000000000e+00 -7.7999991564311726e+00 +8.0556100149891633e-04 +0.0000000000000000e+00 +9.9999967553568370e-01
-7.8999999999999879e+00 +9.0417773335073157e+00 +0.0000000000000000e+00 -7.8999991235669418e+00 +8.1588973031841076e-04 +0.0000000000000000e+00 +9.9999966716191846e-01
-7.9999999999999876e+00 +9.0416952280967049e+00 +0.0000000000000000e+00 -7.9999990898599993e+00 +8.2621848641186205e-04 +0.0000000000000000e+00 +9.9999965868144802e-01
-8.0999999999999872e+00 +9.0416120898091332e+00 +0.0000000000000000e+00 -8.0999990552996746e+00 +8.3654726949399536e-04 +0.0000000000000000e+00 +9.9999965009427161e-01
-8.1999999999999869e+00 +9.0415279186419166e+00 +0.0000000000000000e+00 -8.1999990198752961e+00 +8.4687607928009235e-04 +0.0000000000000000e+00 +9.9999964140038877e-01
-8.2999999999999865e+00 +9.0414427145923977e+00 +0.0000000000000000e+00 -8.2999989835761951e+00 +8.5720491548598376e-04 +0.0000000000000000e+00 +9.9999963259979885e-01
-8.3999999999999861e+00 +9.0413564776579491e+00 +0.0000000000000000e+00 -8.3999989463916993e+00 +8.6753377782804132e-04 +0.0000000000000000e+00 +9.9999962369250128e-01
-8.4999999999999858e+00 +9.0412692078359704e+00 +0.0000000000000000e+00 -8.4999989083111380e+00 +8.7786266602316964e-04 +0.0000000000000000e+00 +9.9999961467849552e-01
-8.5999999999999854e+00 +9.0411809051238912e+00 +0.0000000000000000e+00 -8.5999988693238407e+00 +8.8819157978879812e-04 +0.0000000000000000e+00 +9.9999960555778100e-01
-8.6999999999999851e+00 +9.0410915695191694e+00 +0.0000000000000000e+00 -8.6999988294191368e+00 +8.9852051884287208e-04 +0.0000000000000000e+00 +9.9999959633035718e-01
-8.7999999999999847e+00 +9.0410012010192897e+00 +0.0000000000000000e+00 -8.7999987885863558e+00 +9.0884948290384363e-04 +0.0000000000000000e+00 +9.9999958699622349e-01
-8.8999999999999844e+00 +9.0409097996217653e+00 +0.0000000000000000e+00 -8.8999987468148252e+00 +9.1917847169066319e-04 +0.0000000000000000e+00 +9.9999957755537938e-01
-8.9999999999999840e+00 +9.0408173653241377e+00 +0.0000000000000000e+00 -8.9999987040938745e+00 +9.2950748492276935e-04 +0.0000000000000000e+00 +9.9999956800782441e-01
-9.0999999999999837e+00 +9.0407238981239750e+00 +0.0000000000000000e+00 -9.0999986604128331e+00 +9.3983652232007987e-04 +0.0000000000000000e+00 +9.9999955835355814e-01
-9.1999999999999833e+00 +9.0406293980188774e+00 +0.0000000000000000e+00 -9.1999986157610287e+00 +9.5016558360298126e-04 +0.0000000000000000e+00 +9.9999954859258000e-01
-9.2999999999999829e+00 +9.0405338650064682e+00 +0.0000000000000000e+00 -9.2999985701277907e+00 +9.6049466849231901e-04 +0.0000000000000000e+00 +9.9999953872488956e-01
-9.3999999999999826e+00 +9.0404372990844006e+00 +0.0000000000000000e+00 -9.3999985235024486e+00 +9.7082377670938691e-04 +0.0000000000000000e+00 +9.9999952875048626e-01
-9.4999999999999822e+00 +9.0403397002503567e+00 +0.0000000000000000e+00 -9.4999984758743299e+00 +9.8115290797591657e-04 +0.0000000000000000e+00 +9.9999951866936976e-01
-9.5999999999999819e+00 +9.0402410685020467e+00 +0.0000000000000000e+00 -9.5999984272327641e+00 +9.9148206201421377e-04 +0.0000000000000000e+00 +9.9999950848153962e-01
-9.6999999999999815e+00 +9.0401414038372057e+00 +0.0000000000000000e+00 -9.6999983775670806e+00 +1.0018112385487689e-03 +0.0000000000000000e+00 +9.9999949818699529e-01
-9.7999999999999812e+00 +9.0400407062535972e+00 +0.0000000000000000e+00 -9.7999983268666071e+00 +1.0121404373078726e-03 +0.0000000000000000e+00 +9.9999948778573644e-01
-9.8999999999999808e+00 +9.0399389757490134e+00 +0.0000000000000000e+00 -9.8999982751206712e+00 +1.0224696580237607e-03 +0.0000000000000000e+00 +9.9999947727776262e-01
-9.9999999999999805e+00 +9.0398362123212710e+00 +0.0000000000000000e+00 -9.9999982223186024e+00 +1.0327989004326132e-03 +0.0000000000000000e+00 +9.9999946666307349e-01
-1.0099999999999980e+01 +9.0397324159682135e+00 +0.0000000000000000e+00 -1.0099998168449728e+01 +1.0431281642745509e-03 +0.0000000000000000e+00 +9.9999945594166850e-01
-1.0199999999999980e+01 +9.0396275866877112e+00 +0.0000000000000000e+00 -1.0199998113503378e+01 +1.0534574492936342e-03 +0.0000000000000000e+00 +9.9999944511354733e-01
-1.0299999999999979e+01 +9.0395217244776571e+00 +0.0000000000000000e+00 -1.0299998057468880e+01 +1.0637867552378611e-03 +0.0000000000000000e+00 +9.9999943417870962e-01
-1.0399999999999979e+01 +9.0394148293359731e+00 +0.0000000000000000e+00 -1.0399998000335563e+01 +1.0741160818591646e-03 +0.0000000000000000e+00 +9.9999942313715495e-01
-1.0499999999999979e+01 +9.0393069012606038e+00 +0.0000000000000000e+00 -1.0499997942092754e+01 +1.0844454289134114e-03 +0.0000000000000000e+00 +9.9999941198888298e-01
-1.0599999999999978e+01 +9.0391979402495171e+00 +0.0000000000000000e+00 -1.0599997882729783e+01 +1.0947747961603991e-03 +0.0000000000000000e+00 +9.9999940073389326e-01
-1.0699999999999978e+01 +9.0390879463007057e+00 +0.0000000000000000e+00 -1.0699997822235977e+01 +1.1051041833638549e-03 +0.0000000000000000e+00 +9.9999938937218547e-01
-1.0799999999999978e+01 +9.0389769194121872e+00 +0.0000000000000000e+00 -1.0799997760600663e+01 +1.1154335902914330e-03 +0.0000000000000000e+00 +9.9999937790375926e-01
-1.0899999999999977e+01 +9.0388648595819987e+00 +0.0000000000000000e+00 -1.0899997697813170e+01 +1.1257630167147124e-03 +0.0000000000000000e+00 +9.9999936632861430e-01
-1.0999999999999977e+01 +9.0387517668082022e+00 +0.0000000000000000e+00 -1.0999997633862828e+01 +1.1360924624091956e-03 +0.0000000000000000e+00 +9.9999935464675016e-01
-1.1099999999999977e+01 +9.0386376410888811e+00 +0.0000000000000000e+00 -1.1099997568738964e+01 +1.1464219271543053e-03 +0.0000000000000000e+00 +9.9999934285816650e-01
-1.1199999999999976e+01 +9.0385224824221435e+00 +0.0000000000000000e+00 -1.1199997502430904e+01 +1.1567514107333836e-03 +0.0000000000000000e+00 +9.9999933096286298e-01
-1.1299999999999976e+01 +9.0384062908061136e+00 +0.0000000000000000e+00 -1.1299997434927977e+01 +1.1670809129336892e-03 +0.0000000000000000e+00 +9.9999931896083938e-01
-1.1399999999999975e+01 +9.0382890662389421e+00 +0.0000000000000000e+00 -1.1399997366219514e+01 +1.1774104335463950e-03 +0.0000000000000000e+00 +9.9999930685209526e-01
-1.1499999999999975e+01 +9.0381708087187977e+00 +0.0000000000000000e+00 -1.1499997296294840e+01 +1.1877399723665865e-03 +0.0000000000000000e+00 +9.9999929463663029e-01
-1.1599999999999975e+01 +9.0380515182438685e+00 +0.0000000000000000e+00 -1.1599997225143284e+01 +1.1980695291940921e-03 +0.0000000000000000e+00 +9.9999928231444413e-01
-1.1699999999999974e+01 +9.0379311948123640e+00 +0.0000000000000000e+00 -1.1699997152754172e+01 +1.2083991038426458e-03 +0.0000000000000000e+00 +9.9999926988553645e-01
