# multipoles
# s[mm] polynom_b[n=0][T/m^n] polynom_b[n=1][T/m^n] polynom_b[n=2][T/m^n] polynom_b[n=3][T/m^n] polynom_b[n=4][T/m^n] polynom_b[n=5][T/m^n] polynom_b[n=6][T/m^n] 
+0.0000000000000000e+00 -1.0342217556732551e+00 +2.2796477024468085e+00 +2.0037294212543632e+01 +4.2561847272783081e+02 -2.1733069119233489e+04 -2.2563510987937069e+06 +1.8343283579423961e+08 
+1.0000000000000001e-01 -1.0342214773086824e+00 +2.2788363722705895e+00 +1.9983370725186653e+01 +4.4892107660611447e+02 -2.0130075551674949e+04 -2.3893512398109748e+06 +1.7486618387023598e+08 
+2.0000000000000001e-01 -1.0342212253445806e+00 +2.2780668080615025e+00 +1.9931178766861059e+01 +4.7088046062017310e+02 -1.8520336165555604e+04 -2.5145795963248694e+06 +1.6617642016599548e+08 
+2.9999999999999999e-01 -1.0342210023941241e+00 +2.2773411749527965e+00 +1.9880663917613401e+01 +4.9142558294594602e+02 -1.6901896274433402e+04 -2.6316292605889672e+06 +1.5735329266977081e+08 
+4.0000000000000002e-01 -1.0342208110709434e+00 +2.2766616380466660e+00 +1.9831771814821892e+01 +5.1048540201280821e+02 -1.5272802186117855e+04 -2.7400933237106735e+06 +1.4838655360544550e+08 
+5.0000000000000000e-01 -1.0342206539891083e+00 +2.2760303624071878e+00 +1.9784448152147913e+01 +5.2798887667943666e+02 -1.3631101173492152e+04 -2.8395648765362464e+06 +1.3926595925234896e+08 
+5.9999999999999998e-01 -1.0342205325042686e+00 +2.2754486916405390e+00 +1.9738596103979020e+01 +5.4389065805689188e+02 -1.1975074615274860e+04 -2.9297816669662604e+06 +1.2998471742764859e+08 
+6.9999999999999996e-01 -1.0342204429530859e+00 +2.2749146699519271e+00 +1.9693955983147394e+01 +5.5824878215536171e+02 -1.0304143548222281e+04 -3.0110637950217160e+06 +1.2055095967127658e+08 
+8.0000000000000004e-01 -1.0342203804218320e+00 +2.2744255131506552e+00 +1.9650229286485281e+01 +5.7114728981295059e+02 -8.6180665650699284e+03 -3.0838779040665627e+06 +1.1097683619845511e+08 
+9.0000000000000002e-01 -1.0342203399971077e+00 +2.2739784370494238e+00 +1.9607117555451104e+01 +5.8267022163280990e+02 -6.9166030634446779e+03 -3.1486906357622659e+06 +1.0127450078288680e+08 
+1.0000000000000000e+00 -1.0342203167658603e+00 +2.2735706574691359e+00 +1.9564322376085574e+01 +5.9290161790956142e+02 -5.1995132617889849e+03 -3.2059686300774552e+06 +9.1456110898768589e+07 
+1.1000000000000001e+00 -1.0342203058152357e+00 +2.2731993902529735e+00 +1.9521545364115532e+01 +6.0192551839201542e+02 -3.4665579245232275e+03 -3.2561785245830081e+06 +8.1533826459858149e+07 
+1.2000000000000000e+00 -1.0342203022326133e+00 +2.2728618512706791e+00 +1.9478488167710605e+01 +6.0982596227994475e+02 -1.7174984387653351e+03 -3.2997869550179150e+06 +7.1519810278643981e+07 
+1.3000000000000000e+00 -1.0342203011055529e+00 +2.2725552564362204e+00 +1.9434852462823251e+01 +6.1668698783823857e+02 +4.7903267002928196e+01 -3.3372605536130429e+06 +6.1426227719940998e+07 
+1.3999999999999999e+00 -1.0342202975217294e+00 +2.2722768217067344e+00 +1.9390339944035777e+01 +6.2259263256562053e+02 +1.8298848797330827e+03 -3.3690659506989736e+06 +5.1265246028710052e+07 
+1.5000000000000000e+00 -1.0342202865689425e+00 +2.2720237631007203e+00 +1.9344652326506701e+01 +6.2762693278450536e+02 +3.6286836479198400e+03 -3.3956697728821728e+06 +4.1049034654997632e+07 
+1.6000000000000001e+00 -1.0342202633350441e+00 +2.2717932967018286e+00 +1.9297491338644228e+01 +6.3187392367320308e+02 +5.4445365050325672e+03 -3.4175386438277359e+06 +3.0789764737665247e+07 
+1.7000000000000000e+00 -1.0342202229078978e+00 +2.2715826386734745e+00 +1.9248558715576959e+01 +6.3541763897835813e+02 +7.2776801856306156e+03 -3.4351391832352895e+06 +2.0499608593566097e+07 
+1.8000000000000000e+00 -1.0342201603753527e+00 +2.2713890052627819e+00 +1.9197556197259367e+01 +6.3834211100330708e+02 +9.1283512354504510e+03 -3.4489380072561735e+06 +1.0190739769008737e+07 
+1.8999999999999999e+00 -1.0342200708251881e+00 +2.2712096128130246e+00 +1.9144185522171696e+01 +6.4073137041400855e+02 +1.0996786128848304e+04 -3.4594017280754247e+06 -1.2466749183142942e+05 
+2.0000000000000000e+00 -1.0342199493451434e+00 +2.2710416777742215e+00 +1.9088148431022969e+01 +6.4266944603652166e+02 +1.2883221169827400e+04 -3.4669969532501893e+06 -1.0434437669867666e+07 
+2.1000000000000001e+00 -1.0342197910227571e+00 +2.2708824167085178e+00 +1.9029146647619807e+01 +6.4424036484882117e+02 +1.4787892853129511e+04 -3.4721902862975290e+06 -2.0726395661513757e+07 
+2.2000000000000002e+00 -1.0342195909454253e+00 +2.2707290463084835e+00 +1.8966881885983877e+01 +6.4552815155327528e+02 +1.6711037704924154e+04 -3.4754483247330640e+06 -3.0988365927017342e+07 
+2.2999999999999998e+00 -1.0342193442003274e+00 +2.2705787833908300e+00 +1.8901055841072374e+01 +6.4661682892704926e+02 +1.8652892449683517e+04 -3.4772376628105058e+06 -4.1208173236766554e+07 
+2.3999999999999999e+00 -1.0342190458744100e+00 +2.2704288449231633e+00 +1.8831370189028885e+01 +6.4759041714117109e+02 +2.0613693989314113e+04 -3.4780248880343381e+06 -5.1373642503264479e+07 
+2.5000000000000000e+00 -1.0342186910543258e+00 +2.2702764480203061e+00 +1.8757526578626365e+01 +6.4853293408110335e+02 +2.2593679550378347e+04 -3.4782765838386575e+06 -6.1472599415484428e+07 
+2.6000000000000001e+00 -1.0342182760445302e+00 +2.2701191668237692e+00 +1.8679310851396764e+01 +6.4952086288704493e+02 +2.4592981674094583e+04 -3.4784226801968333e+06 -7.1496536998452023e+07 
+2.7000000000000002e+00 -1.0342178019749015e+00 +2.2699560726708126e+00 +1.8596827737988939e+01 +6.5059606684799246e+02 +2.6611698898485778e+04 -3.4787157884566863e+06 -8.1453539115062267e+07 
+2.7999999999999998e+00 -1.0342172711709097e+00 +2.2697866295093254e+00 +1.8510257191901189e+01 +6.5179060516123229e+02 +2.8650023650513813e+04 -3.4793563530408503e+06 -9.1356363543136224e+07 
+2.8999999999999999e+00 -1.0342166859579383e+00 +2.2696103012484121e+00 +1.8419779156388518e+01 +6.5313653842759106e+02 +3.0708148376421766e+04 -3.4805448266950413e+06 -1.0121776730560614e+08 
+3.0000000000000000e+00 -1.0342160486613428e+00 +2.2694265517398828e+00 +1.8325573576152721e+01 +6.5466592923033500e+02 +3.2786265299287297e+04 -3.4824816736711357e+06 -1.1105050543411489e+08 
+3.1000000000000001e+00 -1.0342153616064518e+00 +2.2692348447781439e+00 +1.8227820394132600e+01 +6.5641084207656877e+02 +3.4884566467860546e+04 -3.4853673690450862e+06 -1.2086733113783936e+08 
+3.2000000000000002e+00 -1.0342146271184982e+00 +2.2690346440811338e+00 +1.8126699543136780e+01 +6.5840334390360658e+02 +3.7003243907442935e+04 -3.4894024013043428e+06 -1.3068099647344473e+08 
+3.2999999999999998e+00 -1.0342138475227058e+00 +2.2688254132861045e+00 +1.8022390957544996e+01 +6.6067550417580674e+02 +3.9142489390084513e+04 -3.4947872726219916e+06 -1.4050425120366210e+08 
+3.3999999999999999e+00 -1.0342130251442077e+00 +2.2686066159315366e+00 +1.7915074561903921e+01 +6.6325939534290671e+02 +4.1302494639788289e+04 -3.5017225011265469e+06 -1.5034984371658486e+08 
+3.5000000000000000e+00 -1.0342121623080665e+00 +2.2683777154646223e+00 +1.7804930272568548e+01 +6.6618709260321725e+02 +4.3483451293816717e+04 -3.5104086192762894e+06 -1.6023052078996617e+08 
+3.6000000000000001e+00 -1.0342112613393273e+00 +2.2681381752058711e+00 +1.7692138005899423e+01 +6.6949067486016554e+02 +4.5685550736444660e+04 -3.5210461789766736e+06 -1.7015902674691948e+08 
+3.7000000000000002e+00 -1.0342103245628951e+00 +2.2678874583640032e+00 +1.7576877661158761e+01 +6.7320222427512488e+02 +4.7908984415892635e+04 -3.5338357487564427e+06 -1.8014810491328377e+08 
+3.7999999999999998e+00 -1.0342093543036297e+00 +2.2676250280075938e+00 +1.7459329132265850e+01 +6.7735382702389404e+02 +5.0153943607807698e+04 -3.5489779177623093e+06 -1.9021049642899582e+08 
+3.8999999999999999e+00 -1.0342083528862982e+00 +2.2673503470684344e+00 +1.7339672303466955e+01 +6.8197757316197681e+02 +5.2420619492285514e+04 -3.5666732946385900e+06 -2.0035894057365859e+08 
+4.0000000000000000e+00 -1.0342073226355839e+00 +2.2670628783170841e+00 +1.7218087045661662e+01 +6.8710555729540692e+02 +5.4709203217204340e+04 -3.5871225111581567e+06 -2.1060617502183262e+08 
+4.0999999999999996e+00 -1.0342062658760676e+00 +2.2667620843724898e+00 +1.7094753220509041e+01 +6.9276987825428853e+02 +5.7019885800439835e+04 -3.6105262199059231e+06 -2.2096493529625660e+08 
+4.2000000000000002e+00 -1.0342051849322547e+00 +2.2664474276700246e+00 +1.6969850677225498e+01 +6.9900263997641548e+02 +5.9352858189757608e+04 -3.6370850991626191e+06 -2.3144795502377200e+08 
+4.2999999999999998e+00 -1.0342040821284966e+00 +2.2661183704699477e+00 +1.6843559245696014e+01 +7.0583595121322037e+02 +6.1708311386766247e+04 -3.6669998507816680e+06 -2.4206796647520655e+08 
+4.4000000000000004e+00 -1.0342029597890854e+00 +2.2657743748364334e+00 +1.6716058747621322e+01 +7.1330192610594577e+02 +6.4086436218114271e+04 -3.7004712032855130e+06 -2.5283769941066107e+08 
+4.5000000000000000e+00 -1.0342018202382257e+00 +2.2654149026807828e+00 +1.6587528999986468e+01 +7.2143268231741160e+02 +6.6487423148477785e+04 -3.7376998993863431e+06 -2.6376987979201472e+08 
+4.5999999999999996e+00 -1.0342006660164875e+00 +2.2650401689705975e+00 +1.6458286921871558e+01 +7.3023342625490329e+02 +6.8907724496371986e+04 -3.7787335139153153e+06 -2.7485579813124084e+08 
+4.7000000000000002e+00 -1.0341994999326523e+00 +2.2646531251538740e+00 +1.6329073174084240e+01 +7.3961224820071959e+02 +7.1331979917916353e+04 -3.8230782756878026e+06 -2.8601752299250078e+08 
+4.7999999999999998e+00 -1.0341983247160509e+00 +2.2642573500463890e+00 +1.6200704412265473e+01 +7.4945513863276517e+02 +7.3742620958207161e+04 -3.8701203431164259e+06 -2.9716368778731829e+08 
+4.9000000000000004e+00 -1.0341971430966037e+00 +2.2638564224939719e+00 +1.6073997334787116e+01 +7.5964808771065293e+02 +7.6122079039393691e+04 -3.9192458777156561e+06 -3.0820292809013587e+08 
+5.0000000000000000e+00 -1.0341959578047202e+00 +2.2634539213478013e+00 +1.5949768673929720e+01 +7.7007708602729110e+02 +7.8452785654474894e+04 -3.9698410471659345e+06 -3.1904388283038753e+08 
+5.0999999999999996e+00 -1.0341947715714834e+00 +2.2630534254822718e+00 +1.5828835215597058e+01 +7.8062812406670196e+02 +8.0717172032424001e+04 -4.0212920222428725e+06 -3.2959519287250382e+08 
+5.2000000000000002e+00 -1.0341935871286054e+00 +2.2626585137871702e+00 +1.5712013792257869e+01 +7.9118719247577110e+02 +8.2897669317274806e+04 -4.0729849786510244e+06 -3.3976550206295586e+08 
+5.2999999999999998e+00 -1.0341924072084596e+00 +2.2622727651739609e+00 +1.5600121286618823e+01 +8.0164028187116992e+02 +8.4976708541173866e+04 -4.1243060959810382e+06 -3.4946345728444242e+08 
+5.4000000000000004e+00 -1.0341912345441724e+00 +2.2618997585753990e+00 +1.5493974640091539e+01 +8.1187338286879003e+02 +8.6936720504610537e+04 -4.1746415580805703e+06 -3.5859770806821263e+08 
+5.5000000000000000e+00 -1.0341900718694934e+00 +2.2615430729530543e+00 +1.5394390837231034e+01 +8.2177248587721715e+02 +8.8760136118537557e+04 -4.2233775519866254e+06 -3.6707690841699320e+08 
+5.5999999999999996e+00 -1.0341889219190454e+00 +2.2612062872956900e+00 +1.5302186931636632e+01 +8.3122358114474139e+02 +9.0429385952896366e+04 -4.2699002683614353e+06 -3.7480971483522040e+08 
+5.7000000000000002e+00 -1.0341877874281840e+00 +2.2608929806276232e+00 +1.5218180031540491e+01 +8.4011265854404598e+02 +9.1926900553137442e+04 -4.3135959004100086e+06 -3.8170478802256918e+08 
+5.7999999999999998e+00 -1.0341866711330963e+00 +2.2606067319985161e+00 +1.5143187306700288e+01 +8.4832570786101530e+02 +9.3235110353237571e+04 -4.3538506456875280e+06 -3.8767079264466321e+08 
+5.9000000000000004e+00 -1.0341855757707967e+00 +2.2603511205054776e+00 +1.5078025989306614e+01 +8.5574871817917540e+02 +9.4336445702963058e+04 -4.3900507027010638e+06 -3.9261639765770823e+08 
+6.0000000000000000e+00 -1.0341845040792217e+00 +2.2601297252760379e+00 +1.5023513382909920e+01 +8.6226767838188994e+02 +9.5213336738607701e+04 -4.4215822739904793e+06 -3.9645027586808228e+08 
+6.0999999999999996e+00 -1.0341834587971741e+00 +2.2599461254852433e+00 +1.4980466852290942e+01 +8.6776857664826571e+02 +9.5848213619625545e+04 -4.4478315633226950e+06 -3.9908110524977899e+08 
+6.2000000000000002e+00 -1.0341824426644126e+00 +2.2598039003444961e+00 +1.4949703837349944e+01 +8.7213740082357992e+02 +9.6223506311364647e+04 -4.4681847780406652e+06 -4.0041756810510039e+08 
+6.2999999999999998e+00 -1.0341814584216522e+00 +2.2597066291224008e+00 +1.4932041847909465e+01 +8.7526013778803292e+02 +9.6321644718647876e+04 -4.4820281255146535e+06 -4.0036835186541116e+08 
+6.4000000000000004e+00 -1.0341805088106213e+00 +2.2596578911272522e+00 +1.4928298470131157e+01 +8.7702277400255900e+02 +9.6125058615644797e+04 -4.4887478165146019e+06 -3.9884214896706611e+08 
+6.5000000000000000e+00 -1.0341795965738099e+00 +2.2596612654971486e+00 +1.4939291305656194e+01 +8.7731130378050659e+02 +9.5616179326928759e+04 -4.4877301173215769e+06 -3.9574766639835966e+08 
+6.5999999999999996e+00 -1.0341787235178657e+00 +2.2597190209516476e+00 +1.4965504593863866e+01 +8.7605598857626012e+02 +9.4785303238283857e+04 -4.4786147098239660e+06 -3.9103497305448556e+08 
+6.7000000000000002e+00 -1.0341778890573827e+00 +2.2598288964089073e+00 +1.5006378813192740e+01 +8.7334089991524900e+02 +9.3646985127469263e+04 -4.4619124266678365e+06 -3.8478145721119136e+08 
+6.7999999999999998e+00 -1.0341770923249447e+00 +2.2599876360838396e+00 +1.5061159694285953e+01 +8.6928422928322641e+02 +9.2220207060729343e+04 -4.4383249488348570e+06 -3.7708773393205076e+08 
+6.9000000000000004e+00 -1.0341763324522866e+00 +2.2601919840281339e+00 +1.5129092845234284e+01 +8.6400417068913907e+02 +9.0523953116356381e+04 -4.4085539596025012e+06 -3.6805442628632325e+08 
+7.0000000000000000e+00 -1.0341756085699791e+00 +2.2604386841870321e+00 +1.5209423706783086e+01 +8.5761891842366492e+02 +8.8577210351399815e+04 -4.3733011335357074e+06 -3.5778216993680388e+08 
+7.0999999999999996e+00 -1.0341749198075723e+00 +2.2607244803941025e+00 +1.5301397567783926e+01 +8.5024666706838866e+02 +8.6398968494390792e+04 -4.3332681360606877e+06 -3.4637161158919430e+08 
+7.2000000000000002e+00 -1.0341742652933772e+00 +2.2610461163681088e+00 +1.5404259537652491e+01 +8.4200561149368696e+02 +8.4008220445328901e+04 -4.2891566230769325e+06 -3.3392341125513017e+08 
+7.2999999999999998e+00 -1.0341736441545093e+00 +2.2614003357079087e+00 +1.5517254554993297e+01 +8.3301394689888707e+02 +8.1423962098948614e+04 -4.2416682407222455e+06 -3.2053824132661921e+08 
+7.4000000000000004e+00 -1.0341730555168338e+00 +2.2617838818925677e+00 +1.5639627374197962e+01 +8.2338986867622361e+02 +7.8665192577095921e+04 -4.1915046241872646e+06 -3.0631678756903142e+08 
+7.5000000000000000e+00 -1.0341724985048788e+00 +2.2621934982805274e+00 +1.5770622560270755e+01 +8.1325157231847470e+02 +7.5750914307026891e+04 -4.1393673966553989e+06 -2.9135974938595796e+08 
+7.5999999999999996e+00 -1.0341719722418521e+00 +2.2626259280957206e+00 +1.5909484486513433e+01 +8.0271725373595791e+02 +7.2700133054746504e+04 -4.0859581708342419e+06 -2.7576783989962494e+08 
+7.7000000000000002e+00 -1.0341714758495368e+00 +2.2630779144370741e+00 +1.6055457324468691e+01 +7.9190510883333525e+02 +6.9531858090129797e+04 -4.0319785459420360e+06 -2.5964178661474246e+08 
+7.7999999999999998e+00 -1.0341710084482330e+00 +2.2635462002663056e+00 +1.6207785034719553e+01 +7.8093333377352246e+02 +6.6265102345177103e+04 -3.9781301088889609e+06 -2.4308233207237267e+08 
+7.9000000000000004e+00 -1.0341705691567991e+00 +2.2640275284101770e+00 +1.6365711370306190e+01 +7.6992012477910066e+02 +6.2918882333940011e+04 -3.9251144326459770e+06 -2.2619023337874874e+08 
+8.0000000000000000e+00 -1.0341701570924944e+00 +2.2645186415550231e+00 +1.6528479859999230e+01 +7.5898367819325892e+02 +5.9512218446677027e+04 -3.8736330761744063e+06 -2.0906626348785520e+08 
+8.0999999999999996e+00 -1.0341697713710230e+00 +2.2650162822398139e+00 +1.6695333810762978e+01 +7.4824219055301796e+02 +5.6064134889481204e+04 -3.8243875844163937e+06 -1.9181121082464164e+08 
+8.1999999999999993e+00 -1.0341694111063997e+00 +2.2655171928652802e+00 +1.6865516293295521e+01 +7.3781385821417109e+02 +5.2593659941324775e+04 -3.7780794856478069e+06 -1.7452588041243196e+08 
+8.3000000000000007e+00 -1.0341690754109814e+00 +2.2660181156727788e+00 +1.7038270142642236e+01 +7.2781687786107670e+02 +4.9119825914835019e+04 -3.7354102940896046e+06 -1.5731109355368465e+08 
+8.4000000000000004e+00 -1.0341687633953947e+00 +2.2665157927583706e+00 +1.7212837951330965e+01 +7.1836944596456181e+02 +4.5661669281321956e+04 -3.6970815062167575e+06 -1.4026768836276278e+08 
+8.5000000000000000e+00 -1.0341684741685297e+00 +2.2670069663286112e+00 +1.7388462099362560e+01 +7.0958974671929070e+02 +4.2238229273468016e+04 -3.6637945236016088e+06 -1.2349651084258102e+08 
+8.5999999999999996e+00 -1.0341682062955053e+00 +2.2674889252781849e+00 +1.7564453121863245e+01 +7.0156702847122187e+02 +3.8865392272985846e+04 -3.6360606493836902e+06 -1.0707906165492171e+08 
+8.6999999999999993e+00 -1.0341679558484289e+00 +2.2679606305841249e+00 +1.7740299004561823e+01 +6.9429656116120850e+02 +3.5550078486784849e+04 -3.6137608380245394e+06 -9.1042116811652571e+07 
+8.8000000000000007e+00 -1.0341677182048368e+00 +2.2684213656547936e+00 +1.7915512344382712e+01 +6.8775398198762934e+02 +3.2297735339936018e+04 -3.5966404833111237e+06 -7.5403619544111788e+07 
+8.9000000000000004e+00 -1.0341674887425440e+00 +2.2688704142638425e+00 +1.8089605856798876e+01 +6.8191491769954780e+02 +2.9113807504405137e+04 -3.5844449156517969e+06 -6.0181499352401972e+07 
+9.0000000000000000e+00 -1.0341672628396532e+00 +2.2693070605054784e+00 +1.8262092385800567e+01 +6.7675498741899514e+02 +2.6003736497580816e+04 -3.5769194258762761e+06 -4.5393669105246045e+07 
+9.0999999999999996e+00 -1.0341670358745725e+00 +2.2697305887940833e+00 +1.8432484906862339e+01 +6.7224980273610493e+02 +2.2972960593004078e+04 -3.5738092660830491e+06 -3.1058024531011131e+07 
+9.1999999999999993e+00 -1.0341668032260649e+00 +2.2701402838894156e+00 +1.8600296537666530e+01 +6.6837496702097701e+02 +2.0026914596107876e+04 -3.5748596457566270e+06 -1.7192443113093428e+07 
+9.3000000000000007e+00 -1.0341665602732213e+00 +2.2705354308907899e+00 +1.8765040537925781e+01 +6.6510607570040270e+02 +1.7171029829634812e+04 -3.5798157336773374e+06 -3.8147839805934289e+06 
+9.4000000000000004e+00 -1.0341663023955250e+00 +2.2709153152591708e+00 +1.8926230319569129e+01 +6.6241871565105112e+02 +1.4410733913132319e+04 -3.5884226545357239e+06 +9.0571131994505599e+06 
+9.5000000000000000e+00 -1.0341660249728102e+00 +2.2712792228206564e+00 +1.9083379444672140e+01 +6.6028846518550483e+02 +1.1751450783667942e+04 -3.6004254890999217e+06 +2.1405428161003694e+07 
+9.5999999999999996e+00 -1.0341657233853014e+00 +2.2716264397756740e+00 +1.9236001633870174e+01 +6.5869089386575683e+02 +9.1986005088031361e+03 -3.6155692733803554e+06 +3.3212360991764653e+07 
+9.6999999999999993e+00 -1.0341653930136820e+00 +2.2719562527142614e+00 +1.9383610776893335e+01 +6.5760156209910429e+02 +6.7575990665385916e+03 -3.6335989964058222e+06 +4.4460133220082827e+07 
+9.8000000000000007e+00 -1.0341650292390050e+00 +2.2722679486227531e+00 +1.9525720926937090e+01 +6.5699602105388828e+02 +4.4338584314369027e+03 -3.6542596000341447e+06 +5.5130987451612443e+07 
+9.9000000000000004e+00 -1.0341646274427840e+00 +2.2725608148891947e+00 +1.9661846309761636e+01 +6.5684981252870477e+02 +2.2327863777959674e+03 -3.6772959783521169e+06 +6.5207188353133388e+07 
+1.0000000000000000e+01 -1.0341641830070001e+00 +2.2728341393240510e+00 +1.9791501334078067e+01 +6.5713846847666161e+02 +1.5978625976184458e+02 -3.7024529751881622e+06 +7.4671023754077122e+07 
+1.0100000000000000e+01 -1.0341636913140886e+00 +2.2730872101606368e+00 +1.9914200587806139e+01 +6.5783751100353891e+02 -1.7797429440130650e+03 -3.7294753842270970e+06 +8.3504804489484414e+07 
