# field on trajectory
# s[mm] rx[mm] ry[mm] rz[mm] bx[T] by[T] bz[T]
0.0000000000000000e+00 +9.1013000000000002e+00 +0.0000000000000000e+00 +0.0000000000000000e+00 +2.2687624426493292e-03 -4.1093032814737231e-02 -2.2170220918152740e-04
1.0000000000000001e-01 +9.1012994826214051e+00 +0.0000000000000000e+00 +9.9999999998215475e-02 +2.2688156892961896e-03 -4.1092825101662282e-02 -2.2170376749807539e-04
2.0000000000000001e-01 +9.1012979304891086e+00 +0.0000000000000000e+00 +1.9999999998572376e-01 +2.2688678578556987e-03 -4.1092616780460806e-02 -2.2170645274034495e-04
3.0000000000000004e-01 +9.1012953436083563e+00 +0.0000000000000000e+00 +2.9999999995181786e-01 +2.2689189476563670e-03 -4.1092407855300349e-02 -2.2171019438692126e-04
4.0000000000000002e-01 +9.1012917219844116e+00 +0.0000000000000000e+00 +3.9999999988579094e-01 +2.2689689580300569e-03 -4.1092198330348509e-02 -2.2171492191618608e-04
5.0000000000000000e-01 +9.1012870656225484e+00 +0.0000000000000000e+00 +4.9999999977693627e-01 +2.2690178883117496e-03 -4.1091988209773278e-02 -2.2172056480627400e-04
5.9999999999999998e-01 +9.1012813745280585e+00 +0.0000000000000000e+00 +5.9999999961454731e-01 +2.2690657378393185e-03 -4.1091777497743190e-02 -2.2172705253502964e-04
6.9999999999999996e-01 +9.1012746487062497e+00 +0.0000000000000000e+00 +6.9999999938791779e-01 +2.2691125059532947e-03 -4.1091566198427514e-02 -2.2173431457996409e-04
7.9999999999999993e-01 +9.1012668881624421e+00 +0.0000000000000000e+00 +7.9999999908634145e-01 +2.2691581919966359e-03 -4.1091354315996496e-02 -2.2174228041821125e-04
8.9999999999999991e-01 +9.1012580929019737e+00 +0.0000000000000000e+00 +8.9999999869911229e-01 +2.2692027953144923e-03 -4.1091141854621559e-02 -2.2175087952648509e-04
9.9999999999999989e-01 +9.1012482629301932e+00 +0.0000000000000000e+00 +9.9999999821552443e-01 +2.2692463152539826e-03 -4.1090928818475564e-02 -2.2176004138103618e-04
1.0999999999999999e+00 +9.1012373982524686e+00 +0.0000000000000000e+00 +1.0999999976248722e+00 +2.2692887511639539e-03 -4.1090715211732930e-02 -2.2176969545760792e-04
1.2000000000000000e+00 +9.1012254988741770e+00 +0.0000000000000000e+00 +1.1999999969164501e+00 +2.2693301023947571e-03 -4.1090501038569947e-02 -2.2177977123139412e-04
1.3000000000000000e+00 +9.1012125648007149e+00 +0.0000000000000000e+00 +1.2999999960795527e+00 +2.2693703682980107e-03 -4.1090286303164907e-02 -2.2179019817699476e-04
1.4000000000000001e+00 +9.1011985960374897e+00 +0.0000000000000000e+00 +1.3999999951034749e+00 +2.2694095482263719e-03 -4.1090071009698359e-02 -2.2180090576837333e-04
1.5000000000000002e+00 +9.1011835925899245e+00 +0.0000000000000000e+00 +1.4999999939775117e+00 +2.2694476415333017e-03 -4.1089855162353271e-02 -2.2181182347881317e-04
1.6000000000000003e+00 +9.1011675544634567e+00 +0.0000000000000000e+00 +1.5999999926909581e+00 +2.2694846475728382e-03 -4.1089638765315399e-02 -2.2182288078087466e-04
1.7000000000000004e+00 +9.1011504816635362e+00 +0.0000000000000000e+00 +1.6999999912331094e+00 +2.2695205656993638e-03 -4.1089421822773267e-02 -2.2183400714635162e-04
1.8000000000000005e+00 +9.1011323741956289e+00 +0.0000000000000000e+00 +1.7999999895932612e+00 +2.2695553952673678e-03 -4.1089204338918557e-02 -2.2184513204622777e-04
1.9000000000000006e+00 +9.1011132320652113e+00 +0.0000000000000000e+00 +1.8999999877607094e+00 +2.2695891356312192e-03 -4.1088986317946233e-02 -2.2185618495063444e-04
2.0000000000000004e+00 +9.1010930552777776e+00 +0.0000000000000000e+00 +1.9999999857247497e+00 +2.2696217861449372e-03 -4.1088767764054838e-02 -2.2186709532880642e-04
2.1000000000000005e+00 +9.1010718438388309e+00 +0.0000000000000000e+00 +2.0999999834746781e+00 +2.2696533598029109e-03 -4.1088548678399624e-02 -2.2187781049376695e-04
2.2000000000000006e+00 +9.1010495977538923e+00 +0.0000000000000000e+00 +2.1999999809997903e+00 +2.2696839241619329e-03 -4.1088329049948802e-02 -2.2188834913659290e-04
2.3000000000000007e+00 +9.1010263170284933e+00 +0.0000000000000000e+00 +2.2999999782893834e+00 +2.2697135604168818e-03 -4.1088108864618271e-02 -2.2189874779235305e-04
2.4000000000000008e+00 +9.1010020016681814e+00 +0.0000000000000000e+00 +2.3999999753327534e+00 +2.2697423497591513e-03 -4.1087888108316997e-02 -2.2190904299537547e-04
2.5000000000000009e+00 +9.1009766516785184e+00 +0.0000000000000000e+00 +2.4999999721191974e+00 +2.2697703733762036e-03 -4.1087666766946015e-02 -2.2191927127923795e-04
2.6000000000000010e+00 +9.1009502670650804e+00 +0.0000000000000000e+00 +2.5999999686380124e+00 +2.2697977124511086e-03 -4.1087444826397576e-02 -2.2192946917675679e-04
2.7000000000000011e+00 +9.1009228478334592e+00 +0.0000000000000000e+00 +2.6999999648784949e+00 +2.2698244481621031e-03 -4.1087222272554097e-02 -2.2193967321997650e-04
2.8000000000000012e+00 +9.1008943939892610e+00 +0.0000000000000000e+00 +2.7999999608299424e+00 +2.2698506616821291e-03 -4.1086999091287379e-02 -2.2194991994015914e-04
2.9000000000000012e+00 +9.1008649055381099e+00 +0.0000000000000000e+00 +2.8999999564816523e+00 +2.2698764341783891e-03 -4.1086775268457630e-02 -2.2196024586777343e-04
3.0000000000000013e+00 +9.1008343824856439e+00 +0.0000000000000000e+00 +2.9999999518229226e+00 +2.2699018468118866e-03 -4.1086550789912510e-02 -2.2197068753248403e-04
3.1000000000000014e+00 +9.1008028248375190e+00 +0.0000000000000000e+00 +3.0999999468430506e+00 +2.2699269807369836e-03 -4.1086325641486253e-02 -2.2198128146314066e-04
3.2000000000000015e+00 +9.1007702325994089e+00 +0.0000000000000000e+00 +3.1999999415313347e+00 +2.2699519171009400e-03 -4.1086099808998709e-02 -2.2199206418776707e-04
3.3000000000000016e+00 +9.1007366057770032e+00 +0.0000000000000000e+00 +3.2999999358770724e+00 +2.2699767370434674e-03 -4.1085873278254498e-02 -2.2200307223355030e-04
3.4000000000000017e+00 +9.1007019443760093e+00 +0.0000000000000000e+00 +3.3999999298695625e+00 +2.2700015216962745e-03 -4.1085646035041945e-02 -2.2201434212682948e-04
3.5000000000000018e+00 +9.1006662484021543e+00 +0.0000000000000000e+00 +3.4999999234981036e+00 +2.2700263521826191e-03 -4.1085418065132322e-02 -2.2202591039308410e-04
3.6000000000000019e+00 +9.1006295178611829e+00 +0.0000000000000000e+00 +3.5999999167519943e+00 +2.2700513096168490e-03 -4.1085189354278788e-02 -2.2203781355692364e-04
3.7000000000000020e+00 +9.1005917527588576e+00 +0.0000000000000000e+00 +3.6999999096205332e+00 +2.2700764751039616e-03 -4.1084959888215575e-02 -2.2205008814207551e-04
3.8000000000000020e+00 +9.1005529531009604e+00 +0.0000000000000000e+00 +3.7999999020930195e+00 +2.2701019297391373e-03 -4.1084729652656964e-02 -2.2206277067137383e-04
3.9000000000000021e+00 +9.1005131188932928e+00 +0.0000000000000000e+00 +3.8999998941587526e+00 +2.2701277546073062e-03 -4.1084498633296461e-02 -2.2207589766674797e-04
4.0000000000000018e+00 +9.1004722501416762e+00 +0.0000000000000000e+00 +3.9999998858070320e+00 +2.2701540307826780e-03 -4.1084266815805820e-02 -2.2208950564921078e-04
4.1000000000000014e+00 +9.1004303468519527e+00 +0.0000000000000000e+00 +4.0999998770271571e+00 +2.2701807975747360e-03 -4.1084034213341038e-02 -2.2210361643968795e-04
4.2000000000000011e+00 +9.1003874090299828e+00 +0.0000000000000000e+00 +4.1999998678084278e+00 +2.2702079272700106e-03 -4.1083800949077841e-02 -2.2211819306303200e-04
4.3000000000000007e+00 +9.1003434366816460e+00 +0.0000000000000000e+00 +4.2999998581401444e+00 +2.2702352503990858e-03 -4.1083567173718034e-02 -2.2213318384870688e-04
4.4000000000000004e+00 +9.1002984298128329e+00 +0.0000000000000000e+00 +4.3999998480116069e+00 +2.2702625974914854e-03 -4.1083333037987863e-02 -2.2214853713075494e-04
4.5000000000000000e+00 +9.1002523884294444e+00 +0.0000000000000000e+00 +4.4999998374121155e+00 +2.2702897990758554e-03 -4.1083098692639840e-02 -2.2216420124809478e-04
4.5999999999999996e+00 +9.1002053125373852e+00 +0.0000000000000000e+00 +4.5999998263309712e+00 +2.2703166856801547e-03 -4.1082864288454687e-02 -2.2218012454481952e-04
4.6999999999999993e+00 +9.1001572021425616e+00 +0.0000000000000000e+00 +4.6999998147574740e+00 +2.2703430878318340e-03 -4.1082629976243047e-02 -2.2219625537049458e-04
4.7999999999999989e+00 +9.1001080572508801e+00 +0.0000000000000000e+00 +4.7999998026809259e+00 +2.2703688360580262e-03 -4.1082395906847480e-02 -2.2221254208045583e-04
4.8999999999999986e+00 +9.1000578778682399e+00 +0.0000000000000000e+00 +4.8999997900906269e+00 +2.2703937608857271e-03 -4.1082162231144199e-02 -2.2222893303610843e-04
4.9999999999999982e+00 +9.1000066640005297e+00 +0.0000000000000000e+00 +4.9999997769758791e+00 +2.2704176928419841e-03 -4.1081929100044969e-02 -2.2224537660522550e-04
5.0999999999999979e+00 +9.0999544156536238e+00 +0.0000000000000000e+00 +5.0999997633259833e+00 +2.2704404624540784e-03 -4.1081696664498964e-02 -2.2226182116224627e-04
5.1999999999999975e+00 +9.0999011328333825e+00 +0.0000000000000000e+00 +5.1999997491302414e+00 +2.2704619002497130e-03 -4.1081465075494497e-02 -2.2227821508857576e-04
5.2999999999999972e+00 +9.0998468155456411e+00 +0.0000000000000000e+00 +5.2999997343779555e+00 +2.2704818367571956e-03 -4.1081234484061119e-02 -2.2229450677288429e-04
5.3999999999999968e+00 +9.0997914637962136e+00 +0.0000000000000000e+00 +5.3999997190584272e+00 +2.2705001025056246e-03 -4.1081005041271129e-02 -2.2231064461140573e-04
5.4999999999999964e+00 +9.0997350775908821e+00 +0.0000000000000000e+00 +5.4999997031609595e+00 +2.2705165280250753e-03 -4.1080776898241703e-02 -2.2232657700823878e-04
5.5999999999999961e+00 +9.0996776569353965e+00 +0.0000000000000000e+00 +5.5999996866748543e+00 +2.2705309438467852e-03 -4.1080550206136636e-02 -2.2234225237564555e-04
5.6999999999999957e+00 +9.0996192018354716e+00 +0.0000000000000000e+00 +5.6999996695894133e+00 +2.2705431805033370e-03 -4.1080325116168111e-02 -2.2235761913435241e-04
5.7999999999999954e+00 +9.0995597122967808e+00 +0.0000000000000000e+00 +5.7999996518939394e+00 +2.2705530685288478e-03 -4.1080101779598699e-02 -2.2237262571385048e-04
5.8999999999999950e+00 +9.0994991883249554e+00 +0.0000000000000000e+00 +5.8999996335777363e+00 +2.2705604384591531e-03 -4.1079880347743000e-02 -2.2238722055269581e-04
5.9999999999999947e+00 +9.0994376299255748e+00 +0.0000000000000000e+00 +5.9999996146301058e+00 +2.2705651208319907e-03 -4.1079660971969773e-02 -2.2240135209881067e-04
6.0999999999999943e+00 +9.0993750371041724e+00 +0.0000000000000000e+00 +6.0999995950403516e+00 +2.2705669891850602e-03 -4.1079443772593024e-02 -2.2241497995695813e-04
6.1999999999999940e+00 +9.0993114098662229e+00 +0.0000000000000000e+00 +6.1999995747977765e+00 +2.2705660890577337e-03 -4.1079228745512834e-02 -2.2242810832470483e-04
6.2999999999999936e+00 +9.0992467482171460e+00 +0.0000000000000000e+00 +6.2999995538916842e+00 +2.2705625090073452e-03 -4.1079015855497530e-02 -2.2244075253943590e-04
6.3999999999999932e+00 +9.0991810521623115e+00 +0.0000000000000000e+00 +6.3999995323113783e+00 +2.2705563376126726e-03 -4.1078805067286214e-02 -2.2245292792888948e-04
6.4999999999999929e+00 +9.0991143217070345e+00 +0.0000000000000000e+00 +6.4999995100461616e+00 +2.2705476634748518e-03 -4.1078596345587172e-02 -2.2246464981067702e-04
6.5999999999999925e+00 +9.0990465568565764e+00 +0.0000000000000000e+00 +6.5999994870853387e+00 +2.2705365752182806e-03 -4.1078389655076236e-02 -2.2247593349180379e-04
6.6999999999999922e+00 +9.0989777576161508e+00 +0.0000000000000000e+00 +6.6999994634182123e+00 +2.2705231614915328e-03 -4.1078184960395087e-02 -2.2248679426818856e-04
6.7999999999999918e+00 +9.0989079239909199e+00 +0.0000000000000000e+00 +6.7999994390340870e+00 +2.2705075109682588e-03 -4.1077982226149744e-02 -2.2249724742418400e-04
6.8999999999999915e+00 +9.0988370559859941e+00 +0.0000000000000000e+00 +6.8999994139222673e+00 +2.2704897123481016e-03 -4.1077781416908772e-02 -2.2250730823209660e-04
6.9999999999999911e+00 +9.0987651536064398e+00 +0.0000000000000000e+00 +6.9999993880720570e+00 +2.2704698543575962e-03 -4.1077582497201830e-02 -2.2251699195170602e-04
7.0999999999999908e+00 +9.0986922168572715e+00 +0.0000000000000000e+00 +7.0999993614727606e+00 +2.2704480257510875e-03 -4.1077385431517871e-02 -2.2252631382978553e-04
7.1999999999999904e+00 +9.0986182457434612e+00 +0.0000000000000000e+00 +7.1999993341136825e+00 +2.2704243153116323e-03 -4.1077190184303655e-02 -2.2253528909962092e-04
7.2999999999999901e+00 +9.0985432402699331e+00 +0.0000000000000000e+00 +7.2999993059841275e+00 +2.2703988118519080e-03 -4.1076996719961976e-02 -2.2254393298053019e-04
7.3999999999999897e+00 +9.0984672004415668e+00 +0.0000000000000000e+00 +7.3999992770734000e+00 +2.2703716042151204e-03 -4.1076805002850159e-02 -2.2255226067738267e-04
7.4999999999999893e+00 +9.0983901262631974e+00 +0.0000000000000000e+00 +7.4999992473708046e+00 +2.2703427812759162e-03 -4.1076614997278320e-02 -2.2256028738011868e-04
7.5999999999999890e+00 +9.0983120177396177e+00 +0.0000000000000000e+00 +7.5999992168656467e+00 +2.2703124319412857e-03 -4.1076426667507888e-02 -2.2256802826326808e-04
7.6999999999999886e+00 +9.0982328748755794e+00 +0.0000000000000000e+00 +7.6999991855472310e+00 +2.2702806451514739e-03 -4.1076239977749784e-02 -2.2257549848546911e-04
7.7999999999999883e+00 +9.0981526976757916e+00 +0.0000000000000000e+00 +7.7999991534048636e+00 +2.2702475098808879e-03 -4.1076054892162928e-02 -2.2258271318898755e-04
7.8999999999999879e+00 +9.0980714861449243e+00 +0.0000000000000000e+00 +7.8999991204278484e+00 +2.2702131151390030e-03 -4.1075871374852559e-02 -2.2258968749923501e-04
7.9999999999999876e+00 +9.0979892402876068e+00 +0.0000000000000000e+00 +7.9999990866054915e+00 +2.2701775499712768e-03 -4.1075689389868650e-02 -2.2259643652428735e-04
8.0999999999999872e+00 +9.0979059601084291e+00 +0.0000000000000000e+00 +8.0999990519270977e+00 +2.2701408910452657e-03 -4.1075508892304803e-02 -2.2260297687210528e-04
8.1999999999999869e+00 +9.0978216456119476e+00 +0.0000000000000000e+00 +8.1999990163819731e+00 +2.2701031653797068e-03 -4.1075329801611701e-02 -2.2260933120557709e-04
8.2999999999999865e+00 +9.0977362968026796e+00 +0.0000000000000000e+00 +8.2999989799594243e+00 +2.2700643875436565e-03 -4.1075152028319864e-02 -2.2261552369288139e-04
8.3999999999999861e+00 +9.0976499136851121e+00 +0.0000000000000000e+00 +8.3999989426487573e+00 +2.2700245720640466e-03 -4.1074975482942755e-02 -2.2262157848997873e-04
8.4999999999999858e+00 +9.0975624962636985e+00 +0.0000000000000000e+00 +8.4999989044392770e+00 +2.2699837334241939e-03 -4.1074800075976435e-02 -2.2262751974033590e-04
8.5999999999999854e+00 +9.0974740445428672e+00 +0.0000000000000000e+00 +8.5999988653202895e+00 +2.2699418860622996e-03 -4.1074625717899257e-02 -2.2263337157464900e-04
8.6999999999999851e+00 +9.0973845585270166e+00 +0.0000000000000000e+00 +8.6999988252811011e+00 +2.2698990443699566e-03 -4.1074452319171582e-02 -2.2263915811056726e-04
8.7999999999999847e+00 +9.0972940382205252e+00 +0.0000000000000000e+00 +8.7999987843110183e+00 +2.2698552226906562e-03 -4.1074279790235355e-02 -2.2264490345241580e-04
8.8999999999999844e+00 +9.0972024836277452e+00 +0.0000000000000000e+00 +8.8999987423993474e+00 +2.2698104353182885e-03 -4.1074108041513943e-02 -2.2265063169091926e-04
8.9999999999999840e+00 +9.0971098947530109e+00 +0.0000000000000000e+00 +8.9999986995353947e+00 +2.2697646964956520e-03 -4.1073936983411663e-02 -2.2265636690292341e-04
9.0999999999999837e+00 +9.0970162716006406e+00 +0.0000000000000000e+00 +9.0999986557084664e+00 +2.2697180204129552e-03 -4.1073766526313497e-02 -2.2266213315111843e-04
9.1999999999999833e+00 +9.0969216141749385e+00 +0.0000000000000000e+00 +9.1999986109078691e+00 +2.2696704212063247e-03 -4.1073596580584897e-02 -2.2266795448376065e-04
9.2999999999999829e+00 +9.0968259224801926e+00 +0.0000000000000000e+00 +9.2999985651229107e+00 +2.2696219129563068e-03 -4.1073427056571257e-02 -2.2267385493439411e-04
9.3999999999999826e+00 +9.0967291965206822e+00 +0.0000000000000000e+00 +9.3999985183428976e+00 +2.2695725096863748e-03 -4.1073257864597798e-02 -2.2267985852157256e-04
9.4999999999999822e+00 +9.0966314363006777e+00 +0.0000000000000000e+00 +9.4999984705571379e+00 +2.2695222253614326e-03 -4.1073088914969046e-02 -2.2268598924858062e-04
9.5999999999999819e+00 +9.0965326418244441e+00 +0.0000000000000000e+00 +9.5999984217549379e+00 +2.2694710738863223e-03 -4.1072920117968661e-02 -2.2269227110315441e-04
9.6999999999999815e+00 +9.0964328130962429e+00 +0.0000000000000000e+00 +9.6999983719256058e+00 +2.2694190691043259e-03 -4.1072751383859074e-02 -2.2269872805720254e-04
9.7999999999999812e+00 +9.0963319501203355e+00 +0.0000000000000000e+00 +9.7999983210584478e+00 +2.2693662247956752e-03 -4.1072582622881139e-02 -2.2270538406652637e-04
9.8999999999999808e+00 +9.0962300529009799e+00 +0.0000000000000000e+00 +9.8999982691427721e+00 +2.2693125546760498e-03 -4.1072413745253833e-02 -2.2271226307054014e-04
9.9999999999999805e+00 +9.0961271214424411e+00 +0.0000000000000000e+00 +9.9999982161678869e+00 +2.2692580723950913e-03 -4.1072244661173915e-02 -2.2271938899199055e-04
1.0099999999999980e+01 +9.0960231557489877e+00 +0.0000000000000000e+00 +1.0099998162123100e+01 +2.2692027813072243e-03 -4.1072075336705989e-02 -2.2272677661422692e-04
1.0199999999999980e+01 +9.0959181558248936e+00 +0.0000000000000000e+00 +1.0199998106997718e+01 +2.2691466438245307e-03 -4.1071905961510773e-02 -2.2273440423486882e-04
1.0299999999999979e+01 +9.0958121216744345e+00 +0.0000000000000000e+00 +1.0299998050781051e+01 +2.2690896121699590e-03 -4.1071736781248772e-02 -2.2274224107531523e-04
1.0399999999999979e+01 +9.0957050533018826e+00 +0.0000000000000000e+00 +1.0399997993462406e+01 +2.2690316386172792e-03 -4.1071568041698210e-02 -2.2275025641134799e-04
1.0499999999999979e+01 +9.0955969507114975e+00 +0.0000000000000000e+00 +1.0499997935031093e+01 +2.2689726754925033e-03 -4.1071399988758001e-02 -2.2275841957458274e-04
1.0599999999999978e+01 +9.0954878139075213e+00 +0.0000000000000000e+00 +1.0599997875476420e+01 +2.2689126751753250e-03 -4.1071232868450915e-02 -2.2276669995392192e-04
1.0699999999999978e+01 +9.0953776428941726e+00 +0.0000000000000000e+00 +1.0699997814787695e+01 +2.2688515901005458e-03 -4.1071066926926442e-02 -2.2277506699700661e-04
1.0799999999999978e+01 +9.0952664376756420e+00 +0.0000000000000000e+00 +1.0799997752954226e+01 +2.2687893727594967e-03 -4.1070902410463961e-02 -2.2278349021167011e-04
1.0899999999999977e+01 +9.0951541982560844e+00 +0.0000000000000000e+00 +1.0899997689965325e+01 +2.2687259757014832e-03 -4.1070739565475828e-02 -2.2279193916739196e-04
1.0999999999999977e+01 +9.0950409246396120e+00 +0.0000000000000000e+00 +1.0999997625810298e+01 +2.2686613515351993e-03 -4.1070578638510220e-02 -2.2280038349675187e-04
1.1099999999999977e+01 +9.0949266168302874e+00 +0.0000000000000000e+00 +1.1099997560478455e+01 +2.2685954529301682e-03 -4.1070419876254372e-02 -2.2280879289688474e-04
1.1199999999999976e+01 +9.0948112748321197e+00 +0.0000000000000000e+00 +1.1199997493959104e+01 +2.2685282326181679e-03 -4.1070263525537484e-02 -2.2281713713093621e-04
1.1299999999999976e+01 +9.0946948986490597e+00 +0.0000000000000000e+00 +1.1299997426241555e+01 +2.2684596433946566e-03 -4.1070109833333861e-02 -2.2282538602951877e-04
1.1399999999999975e+01 +9.0945774882849868e+00 +0.0000000000000000e+00 +1.1399997357315119e+01 +2.2683896381202103e-03 -4.1069959046765851e-02 -2.2283350949216821e-04
1.1499999999999975e+01 +9.0944590437437132e+00 +0.0000000000000000e+00 +1.1499997287169101e+01 +2.2683181697219479e-03 -4.1069811413106977e-02 -2.2284147748880104e-04
1.1599999999999975e+01 +9.0943395650289656e+00 +0.0000000000000000e+00 +1.1599997215792813e+01 +2.2682451911949604e-03 -4.1069667179784934e-02 -2.2284926006117277e-04
1.1699999999999974e+01 +9.0942190521443891e+00 +0.0000000000000000e+00 +1.1699997143175564e+01 +2.2681706556037431e-03 -4.1069526594384627e-02 -2.2285682732433565e-04
1.1799999999999974e+01 +9.0940975050935382e+00 +0.0000000000000000e+00 +1.1799997069306663e+01 +2.2680945160836225e-03 -4.1069389904651178e-02 -2.2286414946809849e-04
