# multipoles
# s[mm] polynom_b[n=0][T/m^n] polynom_b[n=1][T/m^n] polynom_b[n=2][T/m^n] polynom_b[n=3][T/m^n] polynom_b[n=4][T/m^n] polynom_b[n=5][T/m^n] polynom_b[n=6][T/m^n] 
+0.0000000000000000e+00 -1.0344523069998033e+00 +2.2736302375860982e+00 +2.3350704673102637e+01 +7.6697573567309848e+02 -2.8309237167141946e+04 -4.1498395186073384e+06 +7.2465433271561638e+07 
-1.0000000000000001e-01 -1.0344517032920721e+00 +2.2738884889088178e+00 +2.3341542010249395e+01 +7.5797961212608811e+02 -2.8057464925968765e+04 -4.0958913218409028e+06 +7.1460727216416374e+07 
-2.0000000000000001e-01 -1.0344510897861803e+00 +2.2741574521785881e+00 +2.3329708874118239e+01 +7.4855468719203634e+02 -2.7756811020393703e+04 -4.0392379825228970e+06 +7.0245683665472478e+07 
-3.0000000000000004e-01 -1.0344504731142550e+00 +2.2744368976592013e+00 +2.3315679891840492e+01 +7.3871343241312366e+02 -2.7415909322332573e+04 -3.9799509994980423e+06 +6.8860062013759181e+07 
-4.0000000000000002e-01 -1.0344498599086220e+00 +2.2747265956248062e+00 +2.3299929718518214e+01 +7.2846831893808906e+02 -2.7043394243657294e+04 -3.9181018694051271e+06 +6.7343624191360891e+07 
-5.0000000000000000e-01 -1.0344492568016848e+00 +2.2750263163615494e+00 +2.3282933022780352e+01 +7.1783181746894525e+02 -2.6647900470144243e+04 -3.8537620863369158e+06 +6.5736133426590353e+07 
-5.9999999999999998e-01 -1.0344486704259774e+00 +2.2753358301682769e+00 +2.3265164492728037e+01 +7.0681639823933324e+02 -2.6238063075349131e+04 -3.7870031416781931e+06 +6.4077354798368283e+07 
-6.9999999999999996e-01 -1.0344481074141725e+00 +2.2756549073414920e+00 +2.3247098837168938e+01 +6.9543453144784803e+02 -2.5822517547666666e+04 -3.7178965266044857e+06 +6.2407055379432887e+07 
-7.9999999999999993e-01 -1.0344475743990782e+00 +2.2759833181844753e+00 +2.3229210784559228e+01 +6.8369868699595406e+02 -2.5409899770282238e+04 -3.6465137305368287e+06 +6.0765004148168318e+07 
-8.9999999999999991e-01 -1.0344470780135824e+00 +2.2763208329948679e+00 +2.3211975076663474e+01 +6.7162133485784045e+02 -2.5008845909235653e+04 -3.5729262432993716e+06 +5.9190971486336403e+07 
-9.9999999999999989e-01 -1.0344466248907427e+00 +2.2766672220633932e+00 +2.3195866479107515e+01 +6.5921494508823821e+02 -2.4627992612363847e+04 -3.4972055550525407e+06 +5.7724730125480413e+07 
-1.0999999999999999e+00 -1.0344462216636872e+00 +2.2770222556757362e+00 +2.3181359769171323e+01 +6.4649198780257461e+02 -2.4275976783336559e+04 -3.4194231562664774e+06 +5.6406054098194398e+07 
-1.2000000000000000e+00 -1.0344458749656835e+00 +2.2773857040987204e+00 +2.3168929744046000e+01 +6.3346493355197890e+02 -2.3961435739260709e+04 -3.3396505397923109e+06 +5.5274719492457144e+07 
-1.3000000000000000e+00 -1.0344455914300750e+00 +2.2777573375882607e+00 +2.3159051212548842e+01 +6.2014625309243615e+02 -2.3693007056407521e+04 -3.2579591995028108e+06 +5.4370503735558897e+07 
-1.4000000000000001e+00 -1.0344453776903353e+00 +2.2781369263771114e+00 +2.3152199002579497e+01 +6.0654841776239380e+02 -2.3479328717511053e+04 -3.1744206325286846e+06 +5.3733186313836917e+07 
-1.5000000000000002e+00 -1.0344452403800455e+00 +2.2785242406747623e+00 +2.3148847957348579e+01 +5.9268389946570278e+02 -2.3329039038986470e+04 -3.0891063390778392e+06 +5.3402548431786291e+07 
-1.6000000000000003e+00 -1.0344451847673681e+00 +2.2789189698623034e+00 +2.3149429019173002e+01 +5.7856860742194920e+02 -2.3249995010494691e+04 -3.0021104230121402e+06 +5.3414247381835505e+07 
-1.7000000000000004e+00 -1.0344452105935857e+00 +2.2793204751242166e+00 +2.3154189790071602e+01 +5.6423178006018986e+02 -2.3246803721195836e+04 -2.9136135880566579e+06 +5.3786927599148355e+07 
-1.8000000000000005e+00 -1.0344453162023834e+00 +2.2797280344095627e+00 +2.3163330169220931e+01 +5.4970588390919875e+02 -2.3323229446595582e+04 -2.8238172440778580e+06 +5.4534853217568778e+07 
-1.9000000000000006e+00 -1.0344454999374830e+00 +2.2801409255956542e+00 +2.3177050058962262e+01 +5.3502338796353217e+02 -2.3483036553810041e+04 -2.7329228161549615e+06 +5.5672288938698009e+07 
-2.0000000000000004e+00 -1.0344457601425179e+00 +2.2805584265015124e+00 +2.3195549347239936e+01 +5.2021676334989206e+02 -2.3729989157156037e+04 -2.6411317427549888e+06 +5.7213498369883910e+07 
-2.1000000000000005e+00 -1.0344460951611072e+00 +2.2809798148699039e+00 +2.3219027917643846e+01 +5.0531848392081434e+02 -2.4067851317880726e+04 -2.5486454793420793e+06 +5.9172745006855451e+07 
-2.2000000000000006e+00 -1.0344465033367736e+00 +2.2814043683636638e+00 +2.3247685637480931e+01 +4.9036102641359906e+02 -2.4500386811468034e+04 -2.4556654993946464e+06 +6.1564291117378682e+07 
-2.3000000000000007e+00 -1.0344469830129768e+00 +2.2818313645617967e+00 +2.3281722361894776e+01 +4.7537687063402575e+02 -2.5031359204891069e+04 -2.3623932956265910e+06 +6.4402398112630479e+07 
-2.4000000000000008e+00 -1.0344475325330689e+00 +2.2822600809479225e+00 +2.3321337927810628e+01 +4.6039849983182341e+02 -2.5664531747223937e+04 -2.2690303822339340e+06 +6.7701326051956832e+07 
-2.5000000000000009e+00 -1.0344481502402818e+00 +2.2826897949128462e+00 +2.3366732151210606e+01 +4.4545840071814445e+02 -2.6403667306354357e+04 -2.1757782952067875e+06 +7.1475333312874377e+07 
-2.6000000000000010e+00 -1.0344488344777121e+00 +2.2831197837372166e+00 +2.3418104825226468e+01 +4.3058906399831955e+02 -2.7252528341685371e+04 -2.0828385954635812e+06 +7.5738676496311501e+07 
-2.7000000000000011e+00 -1.0344495835883167e+00 +2.2835493245934786e+00 +2.3475655718825159e+01 +4.1582298440693233e+02 -2.8214876874636309e+04 -1.9904128692562133e+06 +8.0505610280892059e+07 
-2.8000000000000012e+00 -1.0344503959148852e+00 +2.2839776945336920e+00 +2.3539584573118333e+01 +4.0119266109273667e+02 -2.9294474421550876e+04 -1.8987027304660797e+06 +8.5790387118598104e+07 
-2.9000000000000012e+00 -1.0344512698000019e+00 +2.2844041704902280e+00 +2.3610091094371342e+01 +3.8673059767867227e+02 -3.0495081845812398e+04 -1.8079098211016699e+06 +9.1607256496306524e+07 
-3.0000000000000013e+00 -1.0344522035860380e+00 +2.2848280292601100e+00 +2.3687374955240230e+01 +3.7246930277181235e+02 -3.1820459403611134e+04 -1.7182358144022960e+06 +9.7970465223671988e+07 
-3.1000000000000014e+00 -1.0344531956152254e+00 +2.2852485475108208e+00 +2.3771635800624257e+01 +3.5844128985651906e+02 -3.3274366833321292e+04 -1.6298824143175476e+06 +1.0489425780383939e+08 
-3.2000000000000015e+00 -1.0344542442294657e+00 +2.2856650017607776e+00 +2.3863073225345069e+01 +3.4467907791912074e+02 -3.4860562946072016e+04 -1.5430513592668197e+06 +1.1239287453515814e+08 
-3.3000000000000016e+00 -1.0344553477705147e+00 +2.2860766683794678e+00 +2.3961886795433806e+01 +3.3121519151021238e+02 -3.6582806019263066e+04 -1.4579444226364752e+06 +1.2048055335775061e+08 
-3.4000000000000017e+00 -1.0344565045797460e+00 +2.2864828235860704e+00 +2.4068276018106360e+01 +3.1808216084141253e+02 -3.8444853229801374e+04 -1.3747634134532919e+06 +1.2917152717677684e+08 
-3.5000000000000018e+00 -1.0344577129983219e+00 +2.2868827434268626e+00 +2.4182440361820397e+01 +3.0531252238376936e+02 -4.0450461040875460e+04 -1.2937101796675234e+06 +1.3848002573639554e+08 
-3.6000000000000019e+00 -1.0344589700225881e+00 +2.2872756745966178e+00 +2.4304306375587338e+01 +2.9293246325687022e+02 -4.2598607448931354e+04 -1.2149414176296662e+06 +1.4840007325414130e+08 
-3.7000000000000020e+00 -1.0344602675748906e+00 +2.2876609186320507e+00 +2.4432752548135255e+01 +2.8094045935395860e+02 -4.4869744939551907e+04 -1.1384306336397298e+06 +1.5884723618678394e+08 
-3.8000000000000020e+00 -1.0344615963766954e+00 +2.2880378332073539e+00 +2.4566404580855611e+01 +2.6932746115285062e+02 -4.7239810890876870e+04 -1.0641048166350098e+06 +1.6971792944111627e+08 
-3.9000000000000021e+00 -1.0344629471494096e+00 +2.2884057762820311e+00 +2.4703888185667417e+01 +2.5808440979235849e+02 -4.9684742968817096e+04 -9.9189089884114708e+05 +1.8090856962282372e+08 
-4.0000000000000018e+00 -1.0344643106142783e+00 +2.2887641061208881e+00 +2.4843829074640308e+01 +2.4720223635762636e+02 -5.2180478944967734e+04 -9.2171575067946455e+05 +1.9231557415783960e+08 
-4.1000000000000014e+00 -1.0344656774925083e+00 +2.2891121813125537e+00 +2.4984852976189796e+01 +2.3667186123767868e+02 -5.4702956999474285e+04 -8.5350617674793873e+05 +2.0383536271341968e+08 
-4.2000000000000011e+00 -1.0344670385051569e+00 +2.2894493608033493e+00 +2.5125585623147227e+01 +2.2648419303157343e+02 -5.7228115505703681e+04 -7.8718890917537850e+05 +2.1536435620547655e+08 
-4.3000000000000007e+00 -1.0344683843732074e+00 +2.2897750039094626e+00 +2.5264652763717038e+01 +2.1663012809919903e+02 -5.9731893242065773e+04 -7.2269060477209056e+05 +2.2679897781304911e+08 
-4.4000000000000004e+00 -1.0344697058175010e+00 +2.2900884703446454e+00 +2.5400680153858648e+01 +2.0710054963392369e+02 -6.2190229248988391e+04 -6.5993783929206035e+05 +2.3803565230062193e+08 
-4.5000000000000000e+00 -1.0344709935587997e+00 +2.2903891202426911e+00 +2.5532293567142219e+01 +1.9788632692117179e+02 -6.4579063021511254e+04 -5.9885710291838960e+05 +2.4897080694516242e+08 
-4.5999999999999996e+00 -1.0344722383177618e+00 +2.2906763141810136e+00 +2.5658118792688068e+01 +1.8897831453197085e+02 -6.6874334475261348e+04 -5.3937479524122365e+05 +2.5950087138760000e+08 
-4.6999999999999993e+00 -1.0344734308149242e+00 +2.2909494132009280e+00 +2.5776781635146182e+01 +1.8036735163121551e+02 -6.9051983952134731e+04 -4.8141722096940270e+05 +2.6952227767186260e+08 
-4.7999999999999989e+00 -1.0344745617707145e+00 +2.2912077788331651e+00 +2.5886907916546324e+01 +1.7204426113612388e+02 -7.1087952254860662e+04 -4.2491058477752161e+05 +2.7893146040832967e+08 
-4.8999999999999986e+00 -1.0344756219054529e+00 +2.2914507731212237e+00 +2.5987123478535946e+01 +1.6399984892598403e+02 -7.2958180695590083e+04 -3.6978098641541653e+05 +2.8762485701653934e+08 
-4.9999999999999982e+00 -1.0344766019393734e+00 +2.2916777586440231e+00 +2.6076054186906884e+01 +1.5622490307406167e+02 -7.4638611191326796e+04 -3.1595441595917259e+05 +2.9549890820342749e+08 
-5.0999999999999979e+00 -1.0344774925925428e+00 +2.2918880985365071e+00 +2.6152325922488977e+01 +1.4871019315025737e+02 -7.6105186090232004e+04 -2.6335674949629308e+05 +3.0245005713349897e+08 
-5.1999999999999975e+00 -1.0344782845849891e+00 +2.2920811565142096e+00 +2.6214564597429629e+01 +1.4144646940126628e+02 -7.7333848478671993e+04 -2.1191374407786384e+05 +3.0837475087901664e+08 
-5.2999999999999972e+00 -1.0344789686365432e+00 +2.2922562969001574e+00 +2.6261396139978476e+01 +1.3442446185162902e+02 -7.8300541915954338e+04 -1.6155103219204742e+05 +3.1316943922302532e+08 
-5.3999999999999968e+00 -1.0344795354670058e+00 +2.2924128846385972e+00 +2.6291446513013998e+01 +1.2763487980865639e+02 -7.8981210769390571e+04 -1.1219411862322771e+05 +3.1673057620365089e+08 
-5.4999999999999964e+00 -1.0344799757960723e+00 +2.2925502853554631e+00 +2.6303341714545294e+01 +1.2106841040524411e+02 -7.9351800225894040e+04 -6.3768371977082330e+04 +3.1895462020395672e+08 
-5.5999999999999961e+00 -1.0344802828263231e+00 +2.2926682043912887e+00 +2.6296082364950834e+01 +1.1471665512857271e+02 -7.9394790921515494e+04 -1.6217532273179620e+04 +3.1976655670800447e+08 
-5.6999999999999957e+00 -1.0344804593392791e+00 +2.2927673644375042e+00 +2.6270097305087742e+01 +1.0858078998975515e+02 -7.9117904312130151e+04 +3.0420890297107861e+04 +3.1920188629444796e+08 
-5.7999999999999954e+00 -1.0344805104452115e+00 +2.2928486593898141e+00 +2.6226159416612060e+01 +1.0266591700553948e+02 -7.8535035662364695e+04 +7.6080721149397301e+04 +3.1732324169342405e+08 
-5.8999999999999950e+00 -1.0344804412546391e+00 +2.2929129830381814e+00 +2.6165041595848972e+01 +9.6977141973239583e+01 -7.7660080596902204e+04 +1.2069576265434777e+05 +3.1419325775799417e+08 
-5.9999999999999947e+00 -1.0344802568780487e+00 +2.2929612290864734e+00 +2.6087516712192933e+01 +9.1519573882395733e+01 -7.6506934252490857e+04 +1.6419979508553707e+05 +3.0987456749514943e+08 
-6.0999999999999943e+00 -1.0344799624260981e+00 +2.2929942911443257e+00 +2.5994357633336907e+01 +8.6298325212389585e+01 -7.5089491760063829e+04 +2.0652657463678316e+05 +3.0442980437711841e+08 
-6.1999999999999940e+00 -1.0344795630095671e+00 +2.2930130627040382e+00 +2.5886337217715827e+01 +8.1318512667687273e+01 -7.3421648102259322e+04 +2.4760982889781331e+05 +2.9792160168390065e+08 
-6.2999999999999936e+00 -1.0344790637393335e+00 +2.2930184371405646e+00 +2.5764228309684952e+01 +7.6585257205133985e+01 -7.1517298016401881e+04 +2.8738325655605190e+05 +2.9041259204264337e+08 
-6.3999999999999932e+00 -1.0344784697264067e+00 +2.2930113076989462e+00 +2.5628803741562770e+01 +7.2103684483523935e+01 -6.9390336025429729e+04 +3.2578052446587040e+05 +2.8196540756457704e+08 
-6.4999999999999929e+00 -1.0344777860819825e+00 +2.2929925674782132e+00 +2.5480836341127734e+01 +6.7878925363698045e+01 -6.7054656593468244e+04 +3.6273526459060324e+05 +2.7264268063777655e+08 
-6.5999999999999925e+00 -1.0344770179173113e+00 +2.2929631094246776e+00 +2.5321098911402181e+01 +6.3916116168432424e+01 -6.4524153723744421e+04 +3.9818107223069767e+05 +2.6250704198040551e+08 
-6.6999999999999922e+00 -1.0344761703438790e+00 +2.2929238263181833e+00 +2.5150364253746730e+01 +6.0220399130972211e+01 -6.1812721406199875e+04 +4.3205150321154587e+05 +2.5162112280519760e+08 
-6.7999999999999918e+00 -1.0344752484732986e+00 +2.2928756107646424e+00 +2.4969405152219561e+01 +5.6796922663545224e+01 -5.8934253315871654e+04 +4.6428007210523624e+05 +2.4004755338987693e+08 
-6.8999999999999915e+00 -1.0344742574173735e+00 +2.2928193551759626e+00 +2.4778994379635741e+01 +5.3650842007781328e+01 -5.5902642924300329e+04 +4.9480024819614145e+05 +2.2784896361294362e+08 
-6.9999999999999911e+00 -1.0344732022880618e+00 +2.2927559517759839e+00 +2.4579904692057507e+01 +5.0787319092788607e+01 -5.2731783390024830e+04 +5.2354545614206488e+05 +2.1508798242887199e+08 
-7.0999999999999908e+00 -1.0344720881974874e+00 +2.2926862925719771e+00 +2.4372908829135845e+01 +4.8211523443743367e+01 -4.9435567572156571e+04 +5.5044907039451622e+05 +2.0182723797244433e+08 
-7.1999999999999904e+00 -1.0344709202580142e+00 +2.2926112693502194e+00 +2.4158779521701511e+01 +4.5928632344980336e+01 -4.6027888165631775e+04 +5.7544441409009811e+05 +1.8812935818740538e+08 
-7.2999999999999901e+00 -1.0344697035821857e+00 +2.2925317736670894e+00 +2.3938289482405665e+01 +4.3943831154468391e+01 -4.2522637520421376e+04 +5.9846475699701114e+05 +1.7405696997591028e+08 
-7.3999999999999897e+00 -1.0344684432827291e+00 +2.2924486968365207e+00 +2.3712211405539779e+01 +4.2262313733748329e+01 -3.8933707641709851e+04 +6.1944331274649245e+05 +1.5967269922225946e+08 
-7.4999999999999893e+00 -1.0344671444726559e+00 +2.2923629299190673e+00 +2.3481317977566025e+01 +4.0889282422372396e+01 -3.5274990442619121e+04 +6.3831323758784798e+05 +1.4503917199641883e+08 
-7.5999999999999890e+00 -1.0344658123758996e+00 +2.2922751720393970e+00 +2.3246369105856235e+01 +3.9828264902186277e+01 -3.1560000150753232e+04 +6.5502802171249024e+05 +1.3021663596883345e+08 
-7.6999999999999886e+00 -1.0344644526450733e+00 +2.2921854311775909e+00 +2.3008088548855817e+01 +3.9073068838495551e+01 -2.7800509963066939e+04 +6.6964433090849104e+05 +1.1525348112842430e+08 
-7.7999999999999883e+00 -1.0344630710320646e+00 +2.2920935650491976e+00 +2.2767193695854672e+01 +3.8614015215795845e+01 -2.4007767827315456e+04 +6.8225200536418147e+05 +1.0019434428951679e+08 
-7.8999999999999879e+00 -1.0344616732887404e+00 +2.2919994310387959e+00 +2.2524401944549190e+01 +3.8441434221199835e+01 -2.0193021770429743e+04 +6.9294083331866201e+05 +8.5083862149742261e+07 
-7.9999999999999876e+00 -1.0344602651669890e+00 +2.2919028861304351e+00 +2.2280430710313546e+01 +3.8545668365620514e+01 -1.6367520236933753e+04 +7.0180053105316358e+05 +6.9966673339893743e+07 
-8.0999999999999872e+00 -1.0344588524186940e+00 +2.2918037869052048e+00 +2.2035997424268874e+01 +3.8917072579025557e+01 -1.2542512055550820e+04 +7.0892074234801845e+05 +5.4887418261427924e+07 
-8.1999999999999869e+00 -1.0344574407957825e+00 +2.2917019895215196e+00 +2.1791819540885548e+01 +3.9546014782118377e+01 -8.7292465961661037e+03 +7.1439103523003869e+05 +3.9890739852982670e+07 
-8.2999999999999865e+00 -1.0344560360501684e+00 +2.2915973497006075e+00 +2.1548614529599668e+01 +4.0422876352502222e+01 -4.9389735948824355e+03 +7.1830089919993700e+05 +2.5021282700785700e+07 
-8.3999999999999861e+00 -1.0344546439337643e+00 +2.2914897227122450e+00 +2.1307099877471426e+01 +4.1538052547983561e+01 -1.1829432107477073e+03 +7.2073974282157887e+05 +1.0323693307891157e+07 
-8.4999999999999858e+00 -1.0344532701985578e+00 +2.2913789633669777e+00 +2.1067993100217638e+01 +4.2881952763095533e+01 +2.5275937564052870e+03 +7.2179689221911249e+05 -4.1573788584995531e+06 
-8.5999999999999854e+00 -1.0344519205964720e+00 +2.2912649259964311e+00 +2.0832011724584859e+01 +4.4445001117397013e+01 +6.1813862084250040e+03 +7.2156158767740440e+05 -1.8377283035176951e+07 
-8.6999999999999851e+00 -1.0344506008795067e+00 +2.2911474644437169e+00 +2.0599873306900260e+01 +4.6217636741842931e+01 +9.7671823889394345e+03 +7.2012298202410073e+05 -3.2291365441971615e+07 
-8.7999999999999847e+00 -1.0344493167996216e+00 +2.2910264320423770e+00 +2.0372295418386457e+01 +4.8190314440692887e+01 +1.3273730168866725e+04 +7.1757013671418582e+05 -4.5854970674298443e+07 
-8.8999999999999844e+00 -1.0344480741088364e+00 +2.2909016816121475e+00 +2.0149995659139552e+01 +5.0353504806659799e+01 +1.6689776772259243e+04 +7.1399202125162294e+05 -5.9023440390638478e+07 
-8.9999999999999840e+00 -1.0344468785591727e+00 +2.2907730654411020e+00 +1.9933691651355353e+01 +5.2697694775995458e+01 +2.0004068906969202e+04 +7.0947750992979482e+05 -7.1752113954772562e+07 
-9.0999999999999837e+00 -1.0344457359026371e+00 +2.2906404352703724e+00 +1.9724101037364299e+01 +5.5213388103928928e+01 +2.3205352800357003e+04 +7.0411537905176624e+05 -8.3996328613091752e+07 
-9.1999999999999833e+00 -1.0344446518912982e+00 +2.2905036422817893e+00 +1.9521941489617976e+01 +5.7891105709938770e+01 +2.6282374013892135e+04 +6.9799430502622959e+05 -9.5711418643619865e+07 
-9.2999999999999829e+00 -1.0344436322772061e+00 +2.2903625370838347e+00 +1.9327930702495596e+01 +6.0721386151914530e+01 +2.9223877586367977e+04 +6.9120286150361632e+05 -1.0685271601444103e+08 
-9.3999999999999826e+00 -1.0344426828124260e+00 +2.2902169697003463e+00 +1.9142786395719153e+01 +6.3694785939258892e+01 +3.2018607978799024e+04 +6.8382951766106789e+05 -1.1737555016555762e+08 
-9.4999999999999822e+00 -1.0344418092489729e+00 +2.2900667894860711e+00 +1.8967226297718891e+01 +6.6801881954343173e+01 +3.4655309432481612e+04 +6.7596262198175909e+05 -1.2723525003268988e+08 
-9.5999999999999819e+00 -1.0344410160493005e+00 +2.2899118682993858e+00 +1.8801776984486928e+01 +7.0033474618727126e+01 +3.7125987822445655e+04 +6.6768197614128585e+05 -1.3640127639877734e+08 
-9.6999999999999815e+00 -1.0344403026601114e+00 +2.2897524478345894e+00 +1.8646213517222364e+01 +7.3377459513414237e+01 +3.9435324004541289e+04 +6.5904257194957184e+05 -1.4489676910007542e+08 
-9.7999999999999812e+00 -1.0344396672887588e+00 +2.2895889285358373e+00 +1.8500121448459112e+01 +7.6820287729569458e+01 +4.1591158736743484e+04 +6.5009328045319906e+05 -1.5275791081022429e+08 
-9.8999999999999808e+00 -1.0344391081424629e+00 +2.2894217108722672e+00 +1.8363086293495822e+01 +8.0348411002089804e+01 +4.3601333753881721e+04 +6.4088295855409827e+05 -1.6002088926944351e+08 
-9.9999999999999805e+00 -1.0344386234283338e+00 +2.2892511953332821e+00 +1.8234693539391092e+01 +8.3948280209237979e+01 +4.5473691740579452e+04 +6.3146046771450341e+05 -1.6672189820994911e+08 
-1.0099999999999980e+01 -1.0344382113534634e+00 +2.2890777824385968e+00 +1.8114528655867961e+01 +8.7606345037546774e+01 +4.7216076134367489e+04 +6.2187467600303853e+05 -1.7289713645634854e+08 
