# trajectory
# s[mm] rx[mm] ry[mm] rz[mm] px[rad] py[rad] pz[rad]
0.0000000000000000e+00 +9.1013000000000002e+00 +0.0000000000000000e+00 +0.0000000000000000e+00 +0.0000000000000000e+00 +0.0000000000000000e+00 +1.0000000000000000e+00
-1.0000000000000001e-01 +9.1012994851096636e+00 +0.0000000000000000e+00 -9.9999999998232586e-02 +1.0297806633411141e-05 +0.0000000000000000e+00 +9.9999999994697764e-01
-2.0000000000000001e-01 +9.1012979404386893e+00 +0.0000000000000000e+00 -1.9999999998586068e-01 +2.0595612754584179e-05 +0.0000000000000000e+00 +9.9999999978791043e-01
-3.0000000000000004e-01 +9.1012953659871290e+00 +0.0000000000000000e+00 -2.9999999995227983e-01 +3.0893418359174808e-05 +0.0000000000000000e+00 +9.9999999952279839e-01
-4.0000000000000002e-01 +9.1012917617550340e+00 +0.0000000000000000e+00 -3.9999999988688550e-01 +4.1191223464922327e-05 +0.0000000000000000e+00 +9.9999999915164162e-01
-5.0000000000000000e-01 +9.1012871277424523e+00 +0.0000000000000000e+00 -4.9999999977907328e-01 +5.1489028111649626e-05 +0.0000000000000000e+00 +9.9999999867444000e-01
-5.9999999999999998e-01 +9.1012814639494248e+00 +0.0000000000000000e+00 -5.9999999961823869e-01 +6.1786832361263012e-05 +0.0000000000000000e+00 +9.9999999809119366e-01
-6.9999999999999996e-01 +9.1012747703759889e+00 +0.0000000000000000e+00 -6.9999999939377722e-01 +7.2084636297751789e-05 +0.0000000000000000e+00 +9.9999999740190260e-01
-7.9999999999999993e-01 +9.1012670470221710e+00 +0.0000000000000000e+00 -7.9999999909508435e-01 +8.2382440027187740e-05 +0.0000000000000000e+00 +9.9999999660656680e-01
-8.9999999999999991e-01 +9.1012582938879856e+00 +0.0000000000000000e+00 -8.9999999871155567e-01 +9.2680243677724375e-05 +0.0000000000000000e+00 +9.9999999570518627e-01
-9.9999999999999989e-01 +9.1012485109734325e+00 +0.0000000000000000e+00 -9.9999999823258678e-01 +1.0297804739959598e-04 +0.0000000000000000e+00 +9.9999999469776091e-01
-1.0999999999999999e+00 +9.1012376982784975e+00 +0.0000000000000000e+00 -1.0999999976475732e+00 +1.1327585136511656e-04 +0.0000000000000000e+00 +9.9999999358429081e-01
-1.2000000000000000e+00 +9.1012258558031451e+00 +0.0000000000000000e+00 -1.1999999969459103e+00 +1.2357365576867854e-04 +0.0000000000000000e+00 +9.9999999236477588e-01
-1.3000000000000000e+00 +9.1012129835473221e+00 +0.0000000000000000e+00 -1.2999999961169937e+00 +1.3387146082675125e-04 +0.0000000000000000e+00 +9.9999999103921611e-01
-1.4000000000000001e+00 +9.1011990815109503e+00 +0.0000000000000000e+00 -1.3999999951502187e+00 +1.4416926677787934e-04 +0.0000000000000000e+00 +9.9999998960761138e-01
-1.5000000000000002e+00 +9.1011841496939283e+00 +0.0000000000000000e+00 -1.4999999940349811e+00 +1.5446707388268096e-04 +0.0000000000000000e+00 +9.9999998806996160e-01
-1.6000000000000003e+00 +9.1011681880961266e+00 +0.0000000000000000e+00 -1.5999999927606763e+00 +1.6476488242384569e-04 +0.0000000000000000e+00 +9.9999998642626675e-01
-1.7000000000000004e+00 +9.1011511967173853e+00 +0.0000000000000000e+00 -1.6999999913166997e+00 +1.7506269270613239e-04 +0.0000000000000000e+00 +9.9999998467652673e-01
-1.8000000000000005e+00 +9.1011331755575160e+00 +0.0000000000000000e+00 -1.7999999896924468e+00 +1.8536050505636685e-04 +0.0000000000000000e+00 +9.9999998282074143e-01
-1.9000000000000006e+00 +9.1011141246162932e+00 +0.0000000000000000e+00 -1.8999999878773131e+00 +1.9565831982343914e-04 +0.0000000000000000e+00 +9.9999998085891073e-01
-2.0000000000000004e+00 +9.1010940438934576e+00 +0.0000000000000000e+00 -1.9999999858606941e+00 +2.0595613737830101e-04 +0.0000000000000000e+00 +9.9999997879103453e-01
-2.1000000000000005e+00 +9.1010729333887106e+00 +0.0000000000000000e+00 -2.0999999836319851e+00 +2.1625395811139262e-04 +0.0000000000000000e+00 +9.9999997661711260e-01
-2.2000000000000006e+00 +9.1010507931017166e+00 +0.0000000000000000e+00 -2.1999999811805817e+00 +2.2655178240436706e-04 +0.0000000000000000e+00 +9.9999997433714471e-01
-2.3000000000000007e+00 +9.1010276230321008e+00 +0.0000000000000000e+00 -2.2999999784958791e+00 +2.3684961060181712e-04 +0.0000000000000000e+00 +9.9999997195113066e-01
-2.4000000000000008e+00 +9.1010034231794563e+00 +0.0000000000000000e+00 -2.3999999755672730e+00 +2.4714744300870613e-04 +0.0000000000000000e+00 +9.9999996945907033e-01
-2.5000000000000009e+00 +9.1009781935433498e+00 +0.0000000000000000e+00 -2.4999999723841584e+00 +2.5744527989036948e-04 +0.0000000000000000e+00 +9.9999996686096349e-01
-2.6000000000000010e+00 +9.1009519341233212e+00 +0.0000000000000000e+00 -2.5999999689359310e+00 +2.6774312147251643e-04 +0.0000000000000000e+00 +9.9999996415680992e-01
-2.7000000000000011e+00 +9.1009246449188925e+00 +0.0000000000000000e+00 -2.6999999652119855e+00 +2.7804096794123233e-04 +0.0000000000000000e+00 +9.9999996134660940e-01
-2.8000000000000012e+00 +9.1008963259295665e+00 +0.0000000000000000e+00 -2.7999999612017179e+00 +2.8833881944298094e-04 +0.0000000000000000e+00 +9.9999995843036182e-01
-2.9000000000000012e+00 +9.1008669771548334e+00 +0.0000000000000000e+00 -2.8999999568945229e+00 +2.9863667608460721e-04 +0.0000000000000000e+00 +9.9999995540806697e-01
-3.0000000000000013e+00 +9.1008365985941762e+00 +0.0000000000000000e+00 -2.9999999522797962e+00 +3.0893453793334042e-04 +0.0000000000000000e+00 +9.9999995227972460e-01
-3.1000000000000014e+00 +9.1008051902470726e+00 +0.0000000000000000e+00 -3.0999999473469328e+00 +3.1923240501679741e-04 +0.0000000000000000e+00 +9.9999994904533462e-01
-3.2000000000000015e+00 +9.1007727521129986e+00 +0.0000000000000000e+00 -3.1999999420853280e+00 +3.2953027732298649e-04 +0.0000000000000000e+00 +9.9999994570489681e-01
-3.3000000000000016e+00 +9.1007392841914356e+00 +0.0000000000000000e+00 -3.2999999364843773e+00 +3.3982815480031111e-04 +0.0000000000000000e+00 +9.9999994225841105e-01
-3.4000000000000017e+00 +9.1007047864818702e+00 +0.0000000000000000e+00 -3.3999999305334754e+00 +3.5012603735757447e-04 +0.0000000000000000e+00 +9.9999993870587722e-01
-3.5000000000000018e+00 +9.1006692589837996e+00 +0.0000000000000000e+00 -3.4999999242220179e+00 +3.6042392486398397e-04 +0.0000000000000000e+00 +9.9999993504729523e-01
-3.6000000000000019e+00 +9.1006327016967372e+00 +0.0000000000000000e+00 -3.5999999175393995e+00 +3.7072181714915608e-04 +0.0000000000000000e+00 +9.9999993128266496e-01
-3.7000000000000020e+00 +9.1005951146202175e+00 +0.0000000000000000e+00 -3.6999999104750159e+00 +3.8101971400312178e-04 +0.0000000000000000e+00 +9.9999992741198629e-01
-3.8000000000000020e+00 +9.1005564977537929e+00 +0.0000000000000000e+00 -3.7999999030182621e+00 +3.9131761517633183e-04 +0.0000000000000000e+00 +9.9999992343525923e-01
-3.9000000000000021e+00 +9.1005168510970478e+00 +0.0000000000000000e+00 -3.8999998951585328e+00 +4.0161552037966289e-04 +0.0000000000000000e+00 +9.9999991935248378e-01
-4.0000000000000018e+00 +9.1004761746495948e+00 +0.0000000000000000e+00 -3.9999998868852238e+00 +4.1191342928442341e-04 +0.0000000000000000e+00 +9.9999991516365994e-01
-4.1000000000000014e+00 +9.1004344684110805e+00 +0.0000000000000000e+00 -4.0999998781877300e+00 +4.2221134152470112e-04 +0.0000000000000000e+00 +9.9999991086878770e-01
-4.2000000000000011e+00 +9.1003917323811905e+00 +0.0000000000000000e+00 -4.1999998690554463e+00 +4.3250925672311719e-04 +0.0000000000000000e+00 +9.9999990646786718e-01
-4.3000000000000007e+00 +9.1003479665596494e+00 +0.0000000000000000e+00 -4.2999998594777686e+00 +4.4280717451657776e-04 +0.0000000000000000e+00 +9.9999990196089839e-01
-4.4000000000000004e+00 +9.1003031709462121e+00 +0.0000000000000000e+00 -4.3999998494440913e+00 +4.5310509455861591e-04 +0.0000000000000000e+00 +9.9999989734788142e-01
-4.5000000000000000e+00 +9.1002573455406726e+00 +0.0000000000000000e+00 -4.4999998389438103e+00 +4.6340301651939261e-04 +0.0000000000000000e+00 +9.9999989262881639e-01
-4.5999999999999996e+00 +9.1002104903428549e+00 +0.0000000000000000e+00 -4.5999998279663199e+00 +4.7370094008569784e-04 +0.0000000000000000e+00 +9.9999988780370341e-01
-4.6999999999999993e+00 +9.1001626053526117e+00 +0.0000000000000000e+00 -4.6999998165010162e+00 +4.8399886496095152e-04 +0.0000000000000000e+00 +9.9999988287254249e-01
-4.7999999999999989e+00 +9.1001136905698274e+00 +0.0000000000000000e+00 -4.7999998045372934e+00 +4.9429679086520435e-04 +0.0000000000000000e+00 +9.9999987783533384e-01
-4.8999999999999986e+00 +9.1000637459944134e+00 +0.0000000000000000e+00 -4.8999997920645475e+00 +5.0459471753513876e-04 +0.0000000000000000e+00 +9.9999987269207746e-01
-4.9999999999999982e+00 +9.1000127716263037e+00 +0.0000000000000000e+00 -4.9999997790721737e+00 +5.1489264472406957e-04 +0.0000000000000000e+00 +9.9999986744277347e-01
-5.0999999999999979e+00 +9.0999607674654595e+00 +0.0000000000000000e+00 -5.0999997655495672e+00 +5.2519057220194504e-04 +0.0000000000000000e+00 +9.9999986208742198e-01
-5.1999999999999975e+00 +9.0999077335118610e+00 +0.0000000000000000e+00 -5.1999997514861231e+00 +5.3548849975534711e-04 +0.0000000000000000e+00 +9.9999985662602309e-01
-5.2999999999999972e+00 +9.0998536697655119e+00 +0.0000000000000000e+00 -5.2999997368712366e+00 +5.4578642718749245e-04 +0.0000000000000000e+00 +9.9999985105857692e-01
-5.3999999999999968e+00 +9.0997985762264335e+00 +0.0000000000000000e+00 -5.3999997216943036e+00 +5.5608435431823294e-04 +0.0000000000000000e+00 +9.9999984538508357e-01
-5.4999999999999964e+00 +9.0997424528946631e+00 +0.0000000000000000e+00 -5.4999997059447185e+00 +5.6638228098405616e-04 +0.0000000000000000e+00 +9.9999983960554306e-01
-5.5999999999999961e+00 +9.0996852997702558e+00 +0.0000000000000000e+00 -5.5999996896118773e+00 +5.7668020703808588e-04 +0.0000000000000000e+00 +9.9999983371995560e-01
-5.6999999999999957e+00 +9.0996271168532790e+00 +0.0000000000000000e+00 -5.6999996726851752e+00 +5.8697813235008276e-04 +0.0000000000000000e+00 +9.9999982772832130e-01
-5.7999999999999954e+00 +9.0995679041438144e+00 +0.0000000000000000e+00 -5.7999996551540072e+00 +5.9727605680644441e-04 +0.0000000000000000e+00 +9.9999982163064016e-01
-5.8999999999999950e+00 +9.0995076616419510e+00 +0.0000000000000000e+00 -5.8999996370077685e+00 +6.0757398031020598e-04 +0.0000000000000000e+00 +9.9999981542691230e-01
-5.9999999999999947e+00 +9.0994463893477882e+00 +0.0000000000000000e+00 -5.9999996182358544e+00 +6.1787190278104033e-04 +0.0000000000000000e+00 +9.9999980911713782e-01
-6.0999999999999943e+00 +9.0993840872614324e+00 +0.0000000000000000e+00 -6.0999995988276607e+00 +6.2816982415520137e-04 +0.0000000000000000e+00 +9.9999980270131672e-01
-6.1999999999999940e+00 +9.0993207553829958e+00 +0.0000000000000000e+00 -6.1999995787725828e+00 +6.3846774438489648e-04 +0.0000000000000000e+00 +9.9999979617944912e-01
-6.2999999999999936e+00 +9.0992563937125954e+00 +0.0000000000000000e+00 -6.2999995580600157e+00 +6.4876566343765446e-04 +0.0000000000000000e+00 +9.9999978955153501e-01
-6.3999999999999932e+00 +9.0991910022503486e+00 +0.0000000000000000e+00 -6.3999995366793545e+00 +6.5906358129626014e-04 +0.0000000000000000e+00 +9.9999978281757451e-01
-6.4999999999999929e+00 +9.0991245809963761e+00 +0.0000000000000000e+00 -6.4999995146199954e+00 +6.6936149795874611e-04 +0.0000000000000000e+00 +9.9999977597756762e-01
-6.5999999999999925e+00 +9.0990571299507970e+00 +0.0000000000000000e+00 -6.5999994918713334e+00 +6.7965941343838335e-04 +0.0000000000000000e+00 +9.9999976903151433e-01
-6.6999999999999922e+00 +9.0989886491137266e+00 +0.0000000000000000e+00 -6.6999994684227637e+00 +6.8995732776367205e-04 +0.0000000000000000e+00 +9.9999976197941476e-01
-6.7999999999999918e+00 +9.0989191384852806e+00 +0.0000000000000000e+00 -6.7999994442636815e+00 +7.0025524097833169e-04 +0.0000000000000000e+00 +9.9999975482126879e-01
-6.8999999999999915e+00 +9.0988485980655653e+00 +0.0000000000000000e+00 -6.8999994193834828e+00 +7.1055315314129083e-04 +0.0000000000000000e+00 +9.9999974755707655e-01
-6.9999999999999911e+00 +9.0987770278546840e+00 +0.0000000000000000e+00 -6.9999993937715619e+00 +7.2085106432667658e-04 +0.0000000000000000e+00 +9.9999974018683790e-01
-7.0999999999999908e+00 +9.0987044278527289e+00 +0.0000000000000000e+00 -7.0999993674173147e+00 +7.3114897462380390e-04 +0.0000000000000000e+00 +9.9999973271055287e-01
-7.1999999999999904e+00 +9.0986307980597854e+00 +0.0000000000000000e+00 -7.1999993403101374e+00 +7.4144688413716408e-04 +0.0000000000000000e+00 +9.9999972512822133e-01
-7.2999999999999901e+00 +9.0985561384759244e+00 +0.0000000000000000e+00 -7.2999993124394242e+00 +7.5174479298641291e-04 +0.0000000000000000e+00 +9.9999971743984328e-01
-7.3999999999999897e+00 +9.0984804491012063e+00 +0.0000000000000000e+00 -7.3999992837945712e+00 +7.6204270130635890e-04 +0.0000000000000000e+00 +9.9999970964541862e-01
-7.4999999999999893e+00 +9.0984037299356757e+00 +0.0000000000000000e+00 -7.4999992543649734e+00 +7.7234060924695068e-04 +0.0000000000000000e+00 +9.9999970174494723e-01
-7.5999999999999890e+00 +9.0983259809793644e+00 +0.0000000000000000e+00 -7.5999992241400260e+00 +7.8263851697326432e-04 +0.0000000000000000e+00 +9.9999969373842901e-01
-7.6999999999999886e+00 +9.0982472022322831e+00 +0.0000000000000000e+00 -7.6999991931091243e+00 +7.9293642466548978e-04 +0.0000000000000000e+00 +9.9999968562586383e-01
-7.7999999999999883e+00 +9.0981673936944265e+00 +0.0000000000000000e+00 -7.7999991612616641e+00 +8.0323433251891778e-04 +0.0000000000000000e+00 +9.9999967740725149e-01
-7.8999999999999879e+00 +9.0980865553657679e+00 +0.0000000000000000e+00 -7.8999991285870399e+00 +8.1353224074392550e-04 +0.0000000000000000e+00 +9.9999966908259186e-01
-7.9999999999999876e+00 +9.0980046872462577e+00 +0.0000000000000000e+00 -7.9999990950746476e+00 +8.2383014956596248e-04 +0.0000000000000000e+00 +9.9999966065188473e-01
-8.0999999999999872e+00 +9.0979217893358264e+00 +0.0000000000000000e+00 -8.0999990607138823e+00 +8.3412805922375964e-04 +0.0000000000000000e+00 +9.9999965211512987e-01
-8.1999999999999869e+00 +9.0978378616343782e+00 +0.0000000000000000e+00 -8.1999990254941384e+00 +8.4442596994978075e-04 +0.0000000000000000e+00 +9.9999964347232706e-01
-8.2999999999999865e+00 +9.0977529041417942e+00 +0.0000000000000000e+00 -8.2999989894048127e+00 +8.5472388195068734e-04 +0.0000000000000000e+00 +9.9999963472347608e-01
-8.3999999999999861e+00 +9.0976669168579392e+00 +0.0000000000000000e+00 -8.3999989524352987e+00 +8.6502179540557235e-04 +0.0000000000000000e+00 +9.9999962586857671e-01
-8.4999999999999858e+00 +9.0975798997826587e+00 +0.0000000000000000e+00 -8.4999989145749932e+00 +8.7531971046597116e-04 +0.0000000000000000e+00 +9.9999961690762884e-01
-8.5999999999999854e+00 +9.0974918529157875e+00 +0.0000000000000000e+00 -8.5999988758132897e+00 +8.8561762725587290e-04 +0.0000000000000000e+00 +9.9999960784063224e-01
-8.6999999999999851e+00 +9.0974027762571463e+00 +0.0000000000000000e+00 -8.6999988361395850e+00 +8.9591554587173210e-04 +0.0000000000000000e+00 +9.9999959866758681e-01
-8.7999999999999847e+00 +9.0973126698065503e+00 +0.0000000000000000e+00 -8.7999987955432726e+00 +9.0621346638248060e-04 +0.0000000000000000e+00 +9.9999958938849243e-01
-8.8999999999999844e+00 +9.0972215335638058e+00 +0.0000000000000000e+00 -8.8999987540137475e+00 +9.1651138882954024e-04 +0.0000000000000000e+00 +9.9999958000334888e-01
-8.9999999999999840e+00 +9.0971293675287193e+00 +0.0000000000000000e+00 -8.9999987115404068e+00 +9.2680931322683575e-04 +0.0000000000000000e+00 +9.9999957051215627e-01
-9.0999999999999837e+00 +9.0970361717010952e+00 +0.0000000000000000e+00 -9.0999986681126437e+00 +9.3710723956080800e-04 +0.0000000000000000e+00 +9.9999956091491438e-01
-9.1999999999999833e+00 +9.0969419460807437e+00 +0.0000000000000000e+00 -9.1999986237198534e+00 +9.4740516779042762e-04 +0.0000000000000000e+00 +9.9999955121162332e-01
-9.2999999999999829e+00 +9.0968466906674763e+00 +0.0000000000000000e+00 -9.2999985783514330e+00 +9.5770309784720946e-04 +0.0000000000000000e+00 +9.9999954140228298e-01
-9.3999999999999826e+00 +9.0967504054611155e+00 +0.0000000000000000e+00 -9.3999985319967756e+00 +9.6800102963522669e-04 +0.0000000000000000e+00 +9.9999953148689347e-01
-9.4999999999999822e+00 +9.0966530904614942e+00 +0.0000000000000000e+00 -9.4999984846452765e+00 +9.7829896303112604e-04 +0.0000000000000000e+00 +9.9999952146545490e-01
-9.5999999999999819e+00 +9.0965547456684597e+00 +0.0000000000000000e+00 -9.5999984362863309e+00 +9.8859689788414291e-04 +0.0000000000000000e+00 +9.9999951133796727e-01
-9.6999999999999815e+00 +9.0964553710818752e+00 +0.0000000000000000e+00 -9.6999983869093338e+00 +9.9889483401611762e-04 +0.0000000000000000e+00 +9.9999950110443081e-01
-9.7999999999999812e+00 +9.0963549667016217e+00 +0.0000000000000000e+00 -9.7999983365036822e+00 +1.0091927712215108e-03 +0.0000000000000000e+00 +9.9999949076484562e-01
-9.8999999999999808e+00 +9.0962535325276033e+00 +0.0000000000000000e+00 -9.8999982850587696e+00 +1.0194907092674205e-03 +0.0000000000000000e+00 +9.9999948031921182e-01
-9.9999999999999805e+00 +9.0961510685597489e+00 +0.0000000000000000e+00 -9.9999982325639909e+00 +1.0297886478935990e-03 +0.0000000000000000e+00 +9.9999946976752974e-01
-1.0099999999999980e+01 +9.0960475747980141e+00 +0.0000000000000000e+00 -1.0099998179008741e+01 +1.0400865868149557e-03 +0.0000000000000000e+00 +9.9999945910979970e-01
-1.0199999999999980e+01 +9.0959430512423847e+00 +0.0000000000000000e+00 -1.0199998124382416e+01 +1.0503845257489148e-03 +0.0000000000000000e+00 +9.9999944834602195e-01
-1.0299999999999979e+01 +9.0958374978928713e+00 +0.0000000000000000e+00 -1.0299998068674411e+01 +1.0606824644427591e-03 +0.0000000000000000e+00 +9.9999943747619668e-01
-1.0399999999999979e+01 +9.0957309147495113e+00 +0.0000000000000000e+00 -1.0399998011874120e+01 +1.0709804026761110e-03 +0.0000000000000000e+00 +9.9999942650032414e-01
-1.0499999999999979e+01 +9.0956233018123580e+00 +0.0000000000000000e+00 -1.0499997953970940e+01 +1.0812783402609249e-03 +0.0000000000000000e+00 +9.9999941541840465e-01
-1.0599999999999978e+01 +9.0955146590814859e+00 +0.0000000000000000e+00 -1.0599997894954265e+01 +1.0915762770414802e-03 +0.0000000000000000e+00 +9.9999940423043832e-01
-1.0699999999999978e+01 +9.0954049865569804e+00 +0.0000000000000000e+00 -1.0699997834813493e+01 +1.1018742128943745e-03 +0.0000000000000000e+00 +9.9999939293642526e-01
-1.0799999999999978e+01 +9.0952942842389408e+00 +0.0000000000000000e+00 -1.0799997773538015e+01 +1.1121721477285156e-03 +0.0000000000000000e+00 +9.9999938153636569e-01
-1.0899999999999977e+01 +9.0951825521274703e+00 +0.0000000000000000e+00 -1.0899997711117230e+01 +1.1224700814851144e-03 +0.0000000000000000e+00 +9.9999937003025974e-01
-1.0999999999999977e+01 +9.0950697902226807e+00 +0.0000000000000000e+00 -1.0999997647540532e+01 +1.1327680141376766e-03 +0.0000000000000000e+00 +9.9999935841810739e-01
-1.1099999999999977e+01 +9.0949559985246804e+00 +0.0000000000000000e+00 -1.1099997582797316e+01 +1.1430659456919952e-03 +0.0000000000000000e+00 +9.9999934669990864e-01
-1.1199999999999976e+01 +9.0948411770335778e+00 +0.0000000000000000e+00 -1.1199997516876978e+01 +1.1533638761861418e-03 +0.0000000000000000e+00 +9.9999933487566350e-01
-1.1299999999999976e+01 +9.0947253257494758e+00 +0.0000000000000000e+00 -1.1299997449768913e+01 +1.1636618056904580e-03 +0.0000000000000000e+00 +9.9999932294537197e-01
-1.1399999999999975e+01 +9.0946084446724687e+00 +0.0000000000000000e+00 -1.1399997381462518e+01 +1.1739597343075475e-03 +0.0000000000000000e+00 +9.9999931090903382e-01
-1.1499999999999975e+01 +9.0944905338026398e+00 +0.0000000000000000e+00 -1.1499997311947185e+01 +1.1842576621722666e-03 +0.0000000000000000e+00 +9.9999929876664906e-01
-1.1599999999999975e+01 +9.0943715931400551e+00 +0.0000000000000000e+00 -1.1599997241212312e+01 +1.1945555894517157e-03 +0.0000000000000000e+00 +9.9999928651821746e-01
-1.1699999999999974e+01 +9.0942516226847623e+00 +0.0000000000000000e+00 -1.1699997169247293e+01 +1.2048535163452290e-03 +0.0000000000000000e+00 +9.9999927416373879e-01
