# trajectory
# s[mm] rx[mm] ry[mm] rz[mm] px[rad] py[rad] pz[rad]
0.0000000000000000e+00 +9.1013000000000002e+00 +0.0000000000000000e+00 +0.0000000000000000e+00 +0.0000000000000000e+00 +0.0000000000000000e+00 +1.0000000000000000e+00
-1.0000000000000001e-01 +9.1012994835361223e+00 +0.0000000000000000e+00 -9.9999999998221775e-02 +1.0329285504875008e-05 +0.0000000000000000e+00 +9.9999999994665290e-01
-2.0000000000000001e-01 +9.1012979341413125e+00 +0.0000000000000000e+00 -1.9999999998577409e-01 +2.0658618622133836e-05 +0.0000000000000000e+00 +9.9999999978661069e-01
-3.0000000000000004e-01 +9.1012953518108102e+00 +0.0000000000000000e+00 -2.9999999995198734e-01 +3.0987999383175675e-05 +0.0000000000000000e+00 +9.9999999951987195e-01
-4.0000000000000002e-01 +9.1012917365398494e+00 +0.0000000000000000e+00 -3.9999999988619184e-01 +4.1317427787328535e-05 +0.0000000000000000e+00 +9.9999999914643511e-01
-5.0000000000000000e-01 +9.1012870883236658e+00 +0.0000000000000000e+00 -4.9999999977771770e-01 +5.1646903801849469e-05 +0.0000000000000000e+00 +9.9999999866629874e-01
-5.9999999999999998e-01 +9.1012814071575043e+00 +0.0000000000000000e+00 -5.9999999961589490e-01 +6.1976427361924946e-05 +0.0000000000000000e+00 +9.9999999807946127e-01
-6.9999999999999996e-01 +9.1012746930366131e+00 +0.0000000000000000e+00 -6.9999999939005320e-01 +7.2305998370671392e-05 +0.0000000000000000e+00 +9.9999999738592138e-01
-7.9999999999999993e-01 +9.1012669459562527e+00 +0.0000000000000000e+00 -7.9999999908952235e-01 +8.2635616699135779e-05 +0.0000000000000000e+00 +9.9999999658567751e-01
-8.9999999999999991e-01 +9.1012581659117000e+00 +0.0000000000000000e+00 -8.9999999870363190e-01 +9.2965282186296481e-05 +0.0000000000000000e+00 +9.9999999567872822e-01
-9.9999999999999989e-01 +9.1012483528982493e+00 +0.0000000000000000e+00 -9.9999999822171115e-01 +1.0329499463906415e-04 +0.0000000000000000e+00 +9.9999999466507206e-01
-1.0999999999999999e+00 +9.1012375069112146e+00 +0.0000000000000000e+00 -1.0999999976330894e+00 +1.1362475383228282e-04 +0.0000000000000000e+00 +9.9999999354470770e-01
-1.2000000000000000e+00 +9.1012256279459329e+00 +0.0000000000000000e+00 -1.1999999969270958e+00 +1.2395455950873108e-04 +0.0000000000000000e+00 +9.9999999231763359e-01
-1.3000000000000000e+00 +9.1012127159977716e+00 +0.0000000000000000e+00 -1.2999999960930593e+00 +1.3428441137912348e-04 +0.0000000000000000e+00 +9.9999999098384840e-01
-1.4000000000000001e+00 +9.1011987710621280e+00 +0.0000000000000000e+00 -1.3999999951203086e+00 +1.4461430912211191e-04 +0.0000000000000000e+00 +9.9999998954335079e-01
-1.5000000000000002e+00 +9.1011837931344299e+00 +0.0000000000000000e+00 -1.4999999939981723e+00 +1.5494425238428731e-04 +0.0000000000000000e+00 +9.9999998799613932e-01
-1.6000000000000003e+00 +9.1011677822101458e+00 +0.0000000000000000e+00 -1.5999999927159791e+00 +1.6527424078018144e-04 +0.0000000000000000e+00 +9.9999998634221265e-01
-1.7000000000000004e+00 +9.1011507382847832e+00 +0.0000000000000000e+00 -1.6999999912630575e+00 +1.7560427389226870e-04 +0.0000000000000000e+00 +9.9999998458156947e-01
-1.8000000000000005e+00 +9.1011326613538923e+00 +0.0000000000000000e+00 -1.7999999896287358e+00 +1.8593435127096822e-04 +0.0000000000000000e+00 +9.9999998271420842e-01
-1.9000000000000006e+00 +9.1011135514130697e+00 +0.0000000000000000e+00 -1.8999999878023419e+00 +1.9626447243464604e-04 +0.0000000000000000e+00 +9.9999998074012830e-01
-2.0000000000000004e+00 +9.1010934084579631e+00 +0.0000000000000000e+00 -1.9999999857732040e+00 +2.0659463686961745e-04 +0.0000000000000000e+00 +9.9999997865932788e-01
-2.1000000000000005e+00 +9.1010722324842721e+00 +0.0000000000000000e+00 -2.0999999835306502e+00 +2.1692484403252907e-04 +0.0000000000000000e+00 +9.9999997647180583e-01
-2.2000000000000006e+00 +9.1010500234877512e+00 +0.0000000000000000e+00 -2.1999999810640078e+00 +2.2725509337653794e-04 +0.0000000000000000e+00 +9.9999997417756104e-01
-2.3000000000000007e+00 +9.1010267814642081e+00 +0.0000000000000000e+00 -2.2999999783626048e+00 +2.3758538437748940e-04 +0.0000000000000000e+00 +9.9999997177659228e-01
-2.4000000000000008e+00 +9.1010025064095039e+00 +0.0000000000000000e+00 -2.3999999754157688e+00 +2.4791571653629734e-04 +0.0000000000000000e+00 +9.9999996926889834e-01
-2.5000000000000009e+00 +9.1009771983195460e+00 +0.0000000000000000e+00 -2.4999999722128270e+00 +2.5824608937894463e-04 +0.0000000000000000e+00 +9.9999996665447821e-01
-2.6000000000000010e+00 +9.1009508571902877e+00 +0.0000000000000000e+00 -2.5999999687431070e+00 +2.6857650245648340e-04 +0.0000000000000000e+00 +9.9999996393333057e-01
-2.7000000000000011e+00 +9.1009234830177270e+00 +0.0000000000000000e+00 -2.6999999649959356e+00 +2.7890695534503522e-04 +0.0000000000000000e+00 +9.9999996110545442e-01
-2.8000000000000012e+00 +9.1008950757979044e+00 +0.0000000000000000e+00 -2.7999999609606401e+00 +2.8923744764579117e-04 +0.0000000000000000e+00 +9.9999995817084864e-01
-2.9000000000000012e+00 +9.1008656355268975e+00 +0.0000000000000000e+00 -2.8999999566265475e+00 +2.9956797898501180e-04 +0.0000000000000000e+00 +9.9999995512951201e-01
-3.0000000000000013e+00 +9.1008351622008181e+00 +0.0000000000000000e+00 -2.9999999519829847e+00 +3.0989854901402697e-04 +0.0000000000000000e+00 +9.9999995198144354e-01
-3.1000000000000014e+00 +9.1008036558158150e+00 +0.0000000000000000e+00 -3.0999999470192785e+00 +3.2022915740923566e-04 +0.0000000000000000e+00 +9.9999994872664211e-01
-3.2000000000000015e+00 +9.1007711163680671e+00 +0.0000000000000000e+00 -3.1999999417247555e+00 +3.3055980387210551e-04 +0.0000000000000000e+00 +9.9999994536510661e-01
-3.3000000000000016e+00 +9.1007375438537803e+00 +0.0000000000000000e+00 -3.2999999360887422e+00 +3.4089048812917250e-04 +0.0000000000000000e+00 +9.9999994189683594e-01
-3.4000000000000017e+00 +9.1007029382691886e+00 +0.0000000000000000e+00 -3.3999999301005648e+00 +3.5122120993204021e-04 +0.0000000000000000e+00 +9.9999993832182899e-01
-3.5000000000000018e+00 +9.1006672996105493e+00 +0.0000000000000000e+00 -3.4999999237495500e+00 +3.6155196905737915e-04 +0.0000000000000000e+00 +9.9999993464008474e-01
-3.6000000000000019e+00 +9.1006306278741391e+00 +0.0000000000000000e+00 -3.5999999170250239e+00 +3.7188276530692604e-04 +0.0000000000000000e+00 +9.9999993085160210e-01
-3.7000000000000020e+00 +9.1005929230562561e+00 +0.0000000000000000e+00 -3.6999999099163126e+00 +3.8221359850748284e-04 +0.0000000000000000e+00 +9.9999992695637996e-01
-3.8000000000000020e+00 +9.1005541851532108e+00 +0.0000000000000000e+00 -3.7999999024127420e+00 +3.9254446851091571e-04 +0.0000000000000000e+00 +9.9999992295441720e-01
-3.9000000000000021e+00 +9.1005144141613314e+00 +0.0000000000000000e+00 -3.8999998945036380e+00 +4.0287537519415398e-04 +0.0000000000000000e+00 +9.9999991884571282e-01
-4.0000000000000018e+00 +9.1004736100769534e+00 +0.0000000000000000e+00 -3.9999998861783266e+00 +4.1320631845918871e-04 +0.0000000000000000e+00 +9.9999991463026561e-01
-4.1000000000000014e+00 +9.1004317728964228e+00 +0.0000000000000000e+00 -4.0999998774261330e+00 +4.2353729823099056e-04 +0.0000000000000000e+00 +9.9999991030807456e-01
-4.2000000000000011e+00 +9.1003889026160927e+00 +0.0000000000000000e+00 -4.1999998682363833e+00 +4.3386831443461687e-04 +0.0000000000000000e+00 +9.9999990587913856e-01
-4.3000000000000007e+00 +9.1003449992323251e+00 +0.0000000000000000e+00 -4.2999998585984027e+00 +4.4419936697231879e-04 +0.0000000000000000e+00 +9.9999990134345640e-01
-4.4000000000000004e+00 +9.1003000627414909e+00 +0.0000000000000000e+00 -4.3999998485015164e+00 +4.5453045572145794e-04 +0.0000000000000000e+00 +9.9999989670102718e-01
-4.5000000000000000e+00 +9.1002540931399771e+00 +0.0000000000000000e+00 -4.4999998379350501e+00 +4.6486158053450443e-04 +0.0000000000000000e+00 +9.9999989195184968e-01
-4.5999999999999996e+00 +9.1002070904241865e+00 +0.0000000000000000e+00 -4.5999998268883280e+00 +4.7519274123903439e-04 +0.0000000000000000e+00 +9.9999988709592302e-01
-4.6999999999999993e+00 +9.1001590545905398e+00 +0.0000000000000000e+00 -4.6999998153506759e+00 +4.8552393763772763e-04 +0.0000000000000000e+00 +9.9999988213324609e-01
-4.7999999999999989e+00 +9.1001099856354770e+00 +0.0000000000000000e+00 -4.7999998033114188e+00 +4.9585516950836483e-04 +0.0000000000000000e+00 +9.9999987706381788e-01
-4.8999999999999986e+00 +9.1000598835554634e+00 +0.0000000000000000e+00 -4.8999997907598809e+00 +5.0618643660382519e-04 +0.0000000000000000e+00 +9.9999987188763750e-01
-4.9999999999999982e+00 +9.1000087483469905e+00 +0.0000000000000000e+00 -4.9999997776853879e+00 +5.1651773865208316e-04 +0.0000000000000000e+00 +9.9999986660470397e-01
-5.0999999999999979e+00 +9.0999565800065767e+00 +0.0000000000000000e+00 -5.0999997640772632e+00 +5.2684907535620557e-04 +0.0000000000000000e+00 +9.9999986121501627e-01
-5.1999999999999975e+00 +9.0999033785307741e+00 +0.0000000000000000e+00 -5.1999997499248325e+00 +5.3718044639434873e-04 +0.0000000000000000e+00 +9.9999985571857364e-01
-5.2999999999999972e+00 +9.0998491439161651e+00 +0.0000000000000000e+00 -5.2999997352174200e+00 +5.4751185141975499e-04 +0.0000000000000000e+00 +9.9999985011537507e-01
-5.3999999999999968e+00 +9.0997938761593691e+00 +0.0000000000000000e+00 -5.3999997199443497e+00 +5.5784329006074932e-04 +0.0000000000000000e+00 +9.9999984440541978e-01
-5.4999999999999964e+00 +9.0997375752570449e+00 +0.0000000000000000e+00 -5.4999997040949458e+00 +5.6817476192073599e-04 +0.0000000000000000e+00 +9.9999983858870700e-01
-5.5999999999999961e+00 +9.0996802412058919e+00 +0.0000000000000000e+00 -5.5999996876585323e+00 +5.7850626657819453e-04 +0.0000000000000000e+00 +9.9999983266523584e-01
-5.6999999999999957e+00 +9.0996218740026507e+00 +0.0000000000000000e+00 -5.6999996706244342e+00 +5.8883780358667641e-04 +0.0000000000000000e+00 +9.9999982663500564e-01
-5.7999999999999954e+00 +9.0995624736441112e+00 +0.0000000000000000e+00 -5.7999996529819748e+00 +5.9916937247480077e-04 +0.0000000000000000e+00 +9.9999982049801561e-01
-5.8999999999999950e+00 +9.0995020401271098e+00 +0.0000000000000000e+00 -5.8999996347204782e+00 +6.0950097274625064e-04 +0.0000000000000000e+00 +9.9999981425426498e-01
-5.9999999999999947e+00 +9.0994405734485326e+00 +0.0000000000000000e+00 -5.9999996158292692e+00 +6.1983260387976863e-04 +0.0000000000000000e+00 +9.9999980790375331e-01
-6.0999999999999943e+00 +9.0993780736053225e+00 +0.0000000000000000e+00 -6.0999995962976703e+00 +6.3016426533129730e-04 +0.0000000000000000e+00 +9.9999980144647982e-01
-6.1999999999999940e+00 +9.0993145405944738e+00 +0.0000000000000000e+00 -6.1999995761150064e+00 +6.4049595655756670e-04 +0.0000000000000000e+00 +9.9999979488244395e-01
-6.2999999999999936e+00 +9.0992499744130360e+00 +0.0000000000000000e+00 -6.2999995552706007e+00 +6.5082767703968482e-04 +0.0000000000000000e+00 +9.9999978821164515e-01
-6.3999999999999932e+00 +9.0991843750581083e+00 +0.0000000000000000e+00 -6.3999995337537765e+00 +6.6115942628528325e-04 +0.0000000000000000e+00 +9.9999978143408286e-01
-6.4999999999999929e+00 +9.0991177425268361e+00 +0.0000000000000000e+00 -6.4999995115538578e+00 +6.7149120382851816e-04 +0.0000000000000000e+00 +9.9999977454975641e-01
-6.5999999999999925e+00 +9.0990500768164129e+00 +0.0000000000000000e+00 -6.5999994886601687e+00 +6.8182300923007083e-04 +0.0000000000000000e+00 +9.9999976755866526e-01
-6.6999999999999922e+00 +9.0989813779240745e+00 +0.0000000000000000e+00 -6.6999994650620325e+00 +6.9215484207714917e-04 +0.0000000000000000e+00 +9.9999976046080885e-01
-6.7999999999999918e+00 +9.0989116458470960e+00 +0.0000000000000000e+00 -6.7999994407487723e+00 +7.0248670198348880e-04 +0.0000000000000000e+00 +9.9999975325618662e-01
-6.8999999999999915e+00 +9.0988408805827881e+00 +0.0000000000000000e+00 -6.8999994157097113e+00 +7.1281858858935406e-04 +0.0000000000000000e+00 +9.9999974594479790e-01
-6.9999999999999911e+00 +9.0987690821284986e+00 +0.0000000000000000e+00 -6.9999993899341728e+00 +7.2315050156153957e-04 +0.0000000000000000e+00 +9.9999973852664215e-01
-7.0999999999999908e+00 +9.0986962504816074e+00 +0.0000000000000000e+00 -7.0999993634114809e+00 +7.3348244059337172e-04 +0.0000000000000000e+00 +9.9999973100171879e-01
-7.1999999999999904e+00 +9.0986223856395210e+00 +0.0000000000000000e+00 -7.1999993361309578e+00 +7.4381440540470978e-04 +0.0000000000000000e+00 +9.9999972337002718e-01
-7.2999999999999901e+00 +9.0985474875996761e+00 +0.0000000000000000e+00 -7.2999993080819277e+00 +7.5414639574194792e-04 +0.0000000000000000e+00 +9.9999971563156675e-01
-7.3999999999999897e+00 +9.0984715563595309e+00 +0.0000000000000000e+00 -7.3999992792537128e+00 +7.6447841137801658e-04 +0.0000000000000000e+00 +9.9999970778633684e-01
-7.4999999999999893e+00 +9.0983945919165645e+00 +0.0000000000000000e+00 -7.4999992496356365e+00 +7.7481045211238433e-04 +0.0000000000000000e+00 +9.9999969983433690e-01
-7.5999999999999890e+00 +9.0983165942682778e+00 +0.0000000000000000e+00 -7.5999992192170218e+00 +7.8514251777105982e-04 +0.0000000000000000e+00 +9.9999969177556625e-01
-7.6999999999999886e+00 +9.0982375634121855e+00 +0.0000000000000000e+00 -7.6999991879871912e+00 +7.9547460820659349e-04 +0.0000000000000000e+00 +9.9999968361002411e-01
-7.7999999999999883e+00 +9.0981574993458150e+00 +0.0000000000000000e+00 -7.7999991559354678e+00 +8.0580672329807980e-04 +0.0000000000000000e+00 +9.9999967533770995e-01
-7.8999999999999879e+00 +9.0980764020667060e+00 +0.0000000000000000e+00 -7.8999991230511739e+00 +8.1613886295115910e-04 +0.0000000000000000e+00 +9.9999966695862308e-01
-7.9999999999999876e+00 +9.0979942715724071e+00 +0.0000000000000000e+00 -7.9999990893236328e+00 +8.2647102709802007e-04 +0.0000000000000000e+00 +9.9999965847276273e-01
-8.0999999999999872e+00 +9.0979111078604706e+00 +0.0000000000000000e+00 -8.0999990547421667e+00 +8.3680321569579836e-04 +0.0000000000000000e+00 +9.9999964988012813e-01
-8.1999999999999869e+00 +9.0978269109284540e+00 +0.0000000000000000e+00 -8.1999990192960990e+00 +8.4713542870894188e-04 +0.0000000000000000e+00 +9.9999964118071860e-01
-8.2999999999999865e+00 +9.0977416807739164e+00 +0.0000000000000000e+00 -8.2999989829747509e+00 +8.5746766609157393e-04 +0.0000000000000000e+00 +9.9999963237453349e-01
-8.3999999999999861e+00 +9.0976554173944244e+00 +0.0000000000000000e+00 -8.3999989457674467e+00 +8.6779992778588961e-04 +0.0000000000000000e+00 +9.9999962346157201e-01
-8.4999999999999858e+00 +9.0975681207875514e+00 +0.0000000000000000e+00 -8.4999989076635067e+00 +8.7813221372215553e-04 +0.0000000000000000e+00 +9.9999961444183350e-01
-8.5999999999999854e+00 +9.0974797909508744e+00 +0.0000000000000000e+00 -8.5999988686522535e+00 +8.8846452381870927e-04 +0.0000000000000000e+00 +9.9999960531531729e-01
-8.6999999999999851e+00 +9.0973904278819848e+00 +0.0000000000000000e+00 -8.6999988287230110e+00 +8.9879685798195913e-04 +0.0000000000000000e+00 +9.9999959608202271e-01
-8.7999999999999847e+00 +9.0973000315784791e+00 +0.0000000000000000e+00 -8.7999987878650998e+00 +9.0912921610638404e-04 +0.0000000000000000e+00 +9.9999958674194911e-01
-8.8999999999999844e+00 +9.0972086020379681e+00 +0.0000000000000000e+00 -8.8999987460678422e+00 +9.1946159807453304e-04 +0.0000000000000000e+00 +9.9999957729509581e-01
-8.9999999999999840e+00 +9.0971161392580733e+00 +0.0000000000000000e+00 -8.9999987033205606e+00 +9.2979400375702503e-04 +0.0000000000000000e+00 +9.9999956774146215e-01
-9.0999999999999837e+00 +9.0970226432364303e+00 +0.0000000000000000e+00 -9.0999986596125755e+00 +9.4012643301254835e-04 +0.0000000000000000e+00 +9.9999955808104757e-01
-9.1999999999999833e+00 +9.0969281139706890e+00 +0.0000000000000000e+00 -9.1999986149332109e+00 +9.5045888568786056e-04 +0.0000000000000000e+00 +9.9999954831385152e-01
-9.2999999999999829e+00 +9.0968325514585171e+00 +0.0000000000000000e+00 -9.2999985692717875e+00 +9.6079136161778813e-04 +0.0000000000000000e+00 +9.9999953843987344e-01
-9.3999999999999826e+00 +9.0967359556975964e+00 +0.0000000000000000e+00 -9.3999985226176275e+00 +9.7112386062522609e-04 +0.0000000000000000e+00 +9.9999952845911277e-01
-9.4999999999999822e+00 +9.0966383266856283e+00 +0.0000000000000000e+00 -9.4999984749600515e+00 +9.8145638252113794e-04 +0.0000000000000000e+00 +9.9999951837156886e-01
-9.5999999999999819e+00 +9.0965396644203356e+00 +0.0000000000000000e+00 -9.5999984262883817e+00 +9.9178892710455476e-04 +0.0000000000000000e+00 +9.9999950817724137e-01
-9.6999999999999815e+00 +9.0964399688994586e+00 +0.0000000000000000e+00 -9.6999983765919406e+00 +1.0021214941625754e-03 +0.0000000000000000e+00 +9.9999949787612963e-01
-9.7999999999999812e+00 +9.0963392401207610e+00 +0.0000000000000000e+00 -9.7999983258600487e+00 +1.0124540834703661e-03 +0.0000000000000000e+00 +9.9999948746823331e-01
-9.8999999999999808e+00 +9.0962374780820312e+00 +0.0000000000000000e+00 -9.8999982740820283e+00 +1.0227866947911601e-03 +0.0000000000000000e+00 +9.9999947695355196e-01
-9.9999999999999805e+00 +9.0961346827810790e+00 +0.0000000000000000e+00 -9.9999982212471998e+00 +1.0331193278762573e-03 +0.0000000000000000e+00 +9.9999946633208503e-01
-1.0099999999999980e+01 +9.0960308542157406e+00 +0.0000000000000000e+00 -1.0099998167344886e+01 +1.0434519824659184e-03 +0.0000000000000000e+00 +9.9999945560383219e-01
-1.0199999999999980e+01 +9.0959259923838776e+00 +0.0000000000000000e+00 -1.0199998112364407e+01 +1.0537846582992045e-03 +0.0000000000000000e+00 +9.9999944476879310e-01
-1.0299999999999979e+01 +9.0958200972833811e+00 +0.0000000000000000e+00 -1.0299998056295085e+01 +1.0641173551238199e-03 +0.0000000000000000e+00 +9.9999943382696721e-01
-1.0399999999999979e+01 +9.0957131689121624e+00 +0.0000000000000000e+00 -1.0399997999126240e+01 +1.0744500726970134e-03 +0.0000000000000000e+00 +9.9999942277835430e-01
-1.0499999999999979e+01 +9.0956052072681590e+00 +0.0000000000000000e+00 -1.0499997940847196e+01 +1.0847828107855835e-03 +0.0000000000000000e+00 +9.9999941162295392e-01
-1.0599999999999978e+01 +9.0954962123493299e+00 +0.0000000000000000e+00 -1.0599997881447273e+01 +1.0951155691658852e-03 +0.0000000000000000e+00 +9.9999940036076562e-01
-1.0699999999999978e+01 +9.0953861841536572e+00 +0.0000000000000000e+00 -1.0699997820915790e+01 +1.1054483476238368e-03 +0.0000000000000000e+00 +9.9999938899178897e-01
-1.0799999999999978e+01 +9.0952751226791424e+00 +0.0000000000000000e+00 -1.0799997759242071e+01 +1.1157811459549258e-03 +0.0000000000000000e+00 +9.9999937751602375e-01
-1.0899999999999977e+01 +9.0951630279238103e+00 +0.0000000000000000e+00 -1.0899997696415436e+01 +1.1261139639642159e-03 +0.0000000000000000e+00 +9.9999936593346939e-01
-1.0999999999999977e+01 +9.0950498998856997e+00 +0.0000000000000000e+00 -1.0999997632425206e+01 +1.1364468014663542e-03 +0.0000000000000000e+00 +9.9999935424412556e-01
-1.1099999999999977e+01 +9.0949357385628726e+00 +0.0000000000000000e+00 -1.1099997567260703e+01 +1.1467796582855776e-03 +0.0000000000000000e+00 +9.9999934244799182e-01
-1.1199999999999976e+01 +9.0948205439534053e+00 +0.0000000000000000e+00 -1.1199997500911245e+01 +1.1571125342557209e-03 +0.0000000000000000e+00 +9.9999933054506784e-01
-1.1299999999999976e+01 +9.0947043160553900e+00 +0.0000000000000000e+00 -1.1299997433366155e+01 +1.1674454292202234e-03 +0.0000000000000000e+00 +9.9999931853535307e-01
-1.1399999999999975e+01 +9.0945870548669330e+00 +0.0000000000000000e+00 -1.1399997364614755e+01 +1.1777783430321368e-03 +0.0000000000000000e+00 +9.9999930641884716e-01
-1.1499999999999975e+01 +9.0944687603861585e+00 +0.0000000000000000e+00 -1.1499997294646365e+01 +1.1881112755541328e-03 +0.0000000000000000e+00 +9.9999929419554967e-01
-1.1599999999999975e+01 +9.0943494326112013e+00 +0.0000000000000000e+00 -1.1599997223450305e+01 +1.1984442266585109e-03 +0.0000000000000000e+00 +9.9999928186546028e-01
-1.1699999999999974e+01 +9.0942290715402105e+00 +0.0000000000000000e+00 -1.1699997151015898e+01 +1.2087771962272062e-03 +0.0000000000000000e+00 +9.9999926942857842e-01
