# trajectory
# s[mm] rx[mm] ry[mm] rz[mm] px[rad] py[rad] pz[rad]
0.0000000000000000e+00 +9.1013000000000002e+00 +0.0000000000000000e+00 +0.0000000000000000e+00 +0.0000000000000000e+00 +0.0000000000000000e+00 +1.0000000000000000e+00
-1.0000000000000001e-01 +9.1012994834404690e+00 +0.0000000000000000e+00 -9.9999999998221095e-02 +1.0331190754418403e-05 +0.0000000000000000e+00 +9.9999999994663324e-01
-2.0000000000000001e-01 +9.1012979337618152e+00 +0.0000000000000000e+00 -1.9999999998576887e-01 +2.0662382506907441e-05 +0.0000000000000000e+00 +9.9999999978653298e-01
-3.0000000000000004e-01 +9.1012953509639267e+00 +0.0000000000000000e+00 -2.9999999995196991e-01 +3.0993575501898693e-05 +0.0000000000000000e+00 +9.9999999951969909e-01
-4.0000000000000002e-01 +9.1012917350466669e+00 +0.0000000000000000e+00 -3.9999999988615087e-01 +4.1324769971510134e-05 +0.0000000000000000e+00 +9.9999999914613169e-01
-5.0000000000000000e-01 +9.1012870860098758e+00 +0.0000000000000000e+00 -4.9999999977763843e-01 +5.1655966135545270e-05 +0.0000000000000000e+00 +9.9999999866583056e-01
-5.9999999999999998e-01 +9.1012814038533758e+00 +0.0000000000000000e+00 -5.9999999961575923e-01 +6.1987164201492235e-05 +0.0000000000000000e+00 +9.9999999807879569e-01
-6.9999999999999996e-01 +9.1012746885769662e+00 +0.0000000000000000e+00 -6.9999999938983981e-01 +7.2318364364522977e-05 +0.0000000000000000e+00 +9.9999999738502710e-01
-7.9999999999999993e-01 +9.1012669401804267e+00 +0.0000000000000000e+00 -7.9999999908920683e-01 +8.2649566807492395e-05 +0.0000000000000000e+00 +9.9999999658452454e-01
-8.9999999999999991e-01 +9.1012581586635228e+00 +0.0000000000000000e+00 -8.9999999870318692e-01 +9.2980771700937521e-05 +0.0000000000000000e+00 +9.9999999567728803e-01
-9.9999999999999989e-01 +9.1012483440260006e+00 +0.0000000000000000e+00 -9.9999999822110663e-01 +1.0331197920307674e-04 +0.0000000000000000e+00 +9.9999999466331746e-01
-1.0999999999999999e+00 +9.1012374962675917e+00 +0.0000000000000000e+00 -1.0999999976322925e+00 +1.1364318945980900e-04 +0.0000000000000000e+00 +9.9999999354261271e-01
-1.2000000000000000e+00 +9.1012256153880138e+00 +0.0000000000000000e+00 -1.1999999969260713e+00 +1.2397440260471305e-04 +0.0000000000000000e+00 +9.9999999231517367e-01
-1.3000000000000000e+00 +9.1012127013869719e+00 +0.0000000000000000e+00 -1.2999999960917694e+00 +1.3430561875904669e-04 +0.0000000000000000e+00 +9.9999999098100034e-01
-1.4000000000000001e+00 +9.1011987542641588e+00 +0.0000000000000000e+00 -1.3999999951187134e+00 +1.4463683803174609e-04 +0.0000000000000000e+00 +9.9999998954009250e-01
-1.5000000000000002e+00 +9.1011837740192583e+00 +0.0000000000000000e+00 -1.4999999939962301e+00 +1.5496806051942501e-04 +0.0000000000000000e+00 +9.9999998799245005e-01
-1.6000000000000003e+00 +9.1011677606519452e+00 +0.0000000000000000e+00 -1.5999999927136457e+00 +1.6529928630637422e-04 +0.0000000000000000e+00 +9.9999998633807285e-01
-1.7000000000000004e+00 +9.1011507141618857e+00 +0.0000000000000000e+00 -1.6999999912602868e+00 +1.7563051546456068e-04 +0.0000000000000000e+00 +9.9999998457696082e-01
-1.8000000000000005e+00 +9.1011326345487387e+00 +0.0000000000000000e+00 -1.7999999896254799e+00 +1.8596174805362705e-04 +0.0000000000000000e+00 +9.9999998270911394e-01
-1.9000000000000006e+00 +9.1011135218121595e+00 +0.0000000000000000e+00 -1.8999999877985516e+00 +1.9629298412089096e-04 +0.0000000000000000e+00 +9.9999998073453200e-01
-2.0000000000000004e+00 +9.1010933759517982e+00 +0.0000000000000000e+00 -1.9999999857688284e+00 +2.0662422370134446e-04 +0.0000000000000000e+00 +9.9999997865321488e-01
-2.1000000000000005e+00 +9.1010721969673014e+00 +0.0000000000000000e+00 -2.0999999835256369e+00 +2.1695546681790029e-04 +0.0000000000000000e+00 +9.9999997646516248e-01
-2.2000000000000006e+00 +9.1010499848583155e+00 +0.0000000000000000e+00 -2.1999999810583031e+00 +2.2728671348410789e-04 +0.0000000000000000e+00 +9.9999997417037467e-01
-2.3000000000000007e+00 +9.1010267396244853e+00 +0.0000000000000000e+00 -2.2999999783561540e+00 +2.3761796370686984e-04 +0.0000000000000000e+00 +9.9999997176885136e-01
-2.4000000000000008e+00 +9.1010024612654554e+00 +0.0000000000000000e+00 -2.3999999754085155e+00 +2.4794921748668921e-04 +0.0000000000000000e+00 +9.9999996926059243e-01
-2.5000000000000009e+00 +9.1009771497808689e+00 +0.0000000000000000e+00 -2.4999999722047144e+00 +2.5828047481767021e-04 +0.0000000000000000e+00 +9.9999996664559776e-01
-2.6000000000000010e+00 +9.1009508051703722e+00 +0.0000000000000000e+00 -2.5999999687340769e+00 +2.6861173568751875e-04 +0.0000000000000000e+00 +9.9999996392386725e-01
-2.7000000000000011e+00 +9.1009234274336137e+00 +0.0000000000000000e+00 -2.6999999649859299e+00 +2.7894300007754336e-04 +0.0000000000000000e+00 +9.9999996109540079e-01
-2.8000000000000012e+00 +9.1008950165702416e+00 +0.0000000000000000e+00 -2.7999999609495991e+00 +2.8927426796265603e-04 +0.0000000000000000e+00 +9.9999995816019827e-01
-2.9000000000000012e+00 +9.1008655725799059e+00 +0.0000000000000000e+00 -2.8999999566144115e+00 +2.9960553931137343e-04 +0.0000000000000000e+00 +9.9999995511825956e-01
-3.0000000000000013e+00 +9.1008350954622639e+00 +0.0000000000000000e+00 -2.9999999519696932e+00 +3.0993681408581782e-04 +0.0000000000000000e+00 +9.9999995196958469e-01
-3.1000000000000014e+00 +9.1008035852169762e+00 +0.0000000000000000e+00 -3.0999999470047706e+00 +3.2026809224171862e-04 +0.0000000000000000e+00 +9.9999994871417341e-01
-3.2000000000000015e+00 +9.1007710418437053e+00 +0.0000000000000000e+00 -3.1999999417089700e+00 +3.3059937372841366e-04 +0.0000000000000000e+00 +9.9999994535202574e-01
-3.3000000000000016e+00 +9.1007374653421209e+00 +0.0000000000000000e+00 -3.2999999360716177e+00 +3.4093065848885083e-04 +0.0000000000000000e+00 +9.9999994188314156e-01
-3.4000000000000017e+00 +9.1007028557118996e+00 +0.0000000000000000e+00 -3.3999999300820400e+00 +3.5126194645958964e-04 +0.0000000000000000e+00 +9.9999993830752076e-01
-3.5000000000000018e+00 +9.1006672129527235e+00 +0.0000000000000000e+00 -3.4999999237295638e+00 +3.6159323757080304e-04 +0.0000000000000000e+00 +9.9999993462516334e-01
-3.6000000000000019e+00 +9.1006305370642835e+00 +0.0000000000000000e+00 -3.5999999170035148e+00 +3.7192453174627937e-04 +0.0000000000000000e+00 +9.9999993083606920e-01
-3.7000000000000020e+00 +9.1005928280462758e+00 +0.0000000000000000e+00 -3.6999999098932195e+00 +3.8225582890342438e-04 +0.0000000000000000e+00 +9.9999992694023820e-01
-3.8000000000000020e+00 +9.1005540858984073e+00 +0.0000000000000000e+00 -3.7999999023880044e+00 +3.9258712895326328e-04 +0.0000000000000000e+00 +9.9999992293767037e-01
-3.9000000000000021e+00 +9.1005143106203921e+00 +0.0000000000000000e+00 -3.8999998944771956e+00 +4.0291843180044327e-04 +0.0000000000000000e+00 +9.9999991882836559e-01
-4.0000000000000018e+00 +9.1004735022119565e+00 +0.0000000000000000e+00 -3.9999998861501194e+00 +4.1324973734323560e-04 +0.0000000000000000e+00 +9.9999991461232385e-01
-4.1000000000000014e+00 +9.1004316606728359e+00 +0.0000000000000000e+00 -4.0999998773961019e+00 +4.2358104547370149e-04 +0.0000000000000000e+00 +9.9999991028954516e-01
-4.2000000000000011e+00 +9.1003887860027781e+00 +0.0000000000000000e+00 -4.1999998682044701e+00 +4.3391235607948881e-04 +0.0000000000000000e+00 +9.9999990586002940e-01
-4.3000000000000007e+00 +9.1003448782015415e+00 +0.0000000000000000e+00 -4.2999998585645498e+00 +4.4424366904562747e-04 +0.0000000000000000e+00 +9.9999990132377659e-01
-4.4000000000000004e+00 +9.1002999372688951e+00 +0.0000000000000000e+00 -4.3999998484656677e+00 +4.5457498425469301e-04 +0.0000000000000000e+00 +9.9999989668078670e-01
-4.5000000000000000e+00 +9.1002539632046204e+00 +0.0000000000000000e+00 -4.4999998378971497e+00 +4.6490630158680659e-04 +0.0000000000000000e+00 +9.9999989193105976e-01
-4.5999999999999996e+00 +9.1002069560085115e+00 +0.0000000000000000e+00 -4.5999998268483218e+00 +4.7523762091963525e-04 +0.0000000000000000e+00 +9.9999988707459564e-01
-4.6999999999999993e+00 +9.1001589156803746e+00 +0.0000000000000000e+00 -4.6999998153085105e+00 +4.8556894212839187e-04 +0.0000000000000000e+00 +9.9999988211139446e-01
-4.7999999999999989e+00 +9.1001098422200286e+00 +0.0000000000000000e+00 -4.7999998032670428e+00 +4.9590026508583552e-04 +0.0000000000000000e+00 +9.9999987704145621e-01
-4.8999999999999986e+00 +9.1000597356273047e+00 +0.0000000000000000e+00 -4.8999997907132444e+00 +5.0623158966227116e-04 +0.0000000000000000e+00 +9.9999987186478079e-01
-4.9999999999999982e+00 +9.1000085959020467e+00 +0.0000000000000000e+00 -4.9999997776364413e+00 +5.1656291572555000e-04 +0.0000000000000000e+00 +9.9999986658136830e-01
-5.0999999999999979e+00 +9.0999564230441141e+00 +0.0000000000000000e+00 -5.0999997640259602e+00 +5.2689424314106910e-04 +0.0000000000000000e+00 +9.9999986119121875e-01
-5.1999999999999975e+00 +9.0999032170533773e+00 +0.0000000000000000e+00 -5.1999997498711270e+00 +5.3722557177177186e-04 +0.0000000000000000e+00 +9.9999985569433225e-01
-5.2999999999999972e+00 +9.0998489779297227e+00 +0.0000000000000000e+00 -5.2999997351612684e+00 +5.4755690147814749e-04 +0.0000000000000000e+00 +9.9999985009070869e-01
-5.3999999999999968e+00 +9.0997937056730507e+00 +0.0000000000000000e+00 -5.3999997198857104e+00 +5.5788823211823098e-04 +0.0000000000000000e+00 +9.9999984438034828e-01
-5.4999999999999964e+00 +9.0997374002832725e+00 +0.0000000000000000e+00 -5.4999997040337796e+00 +5.6821956354760313e-04 +0.0000000000000000e+00 +9.9999983856325092e-01
-5.5999999999999961e+00 +9.0996800617603188e+00 +0.0000000000000000e+00 -5.5999996875948028e+00 +5.7855089561939022e-04 +0.0000000000000000e+00 +9.9999983263941672e-01
-5.6999999999999957e+00 +9.0996216901041329e+00 +0.0000000000000000e+00 -5.6999996705581051e+00 +5.8888222818426401e-04 +0.0000000000000000e+00 +9.9999982660884579e-01
-5.7999999999999954e+00 +9.0995622853146720e+00 +0.0000000000000000e+00 -5.7999996529130140e+00 +5.9921356109044128e-04 +0.0000000000000000e+00 +9.9999982047153813e-01
-5.8999999999999950e+00 +9.0995018473919096e+00 +0.0000000000000000e+00 -5.8999996346488555e+00 +6.0954489418368364e-04 +0.0000000000000000e+00 +9.9999981422749384e-01
-5.9999999999999947e+00 +9.0994403763358349e+00 +0.0000000000000000e+00 -5.9999996157549553e+00 +6.1987622730729744e-04 +0.0000000000000000e+00 +9.9999980787671305e-01
-6.0999999999999943e+00 +9.0993778721464533e+00 +0.0000000000000000e+00 -6.0999995962206404e+00 +6.3020756030309909e-04 +0.0000000000000000e+00 +9.9999980141919587e-01
-6.1999999999999940e+00 +9.0993143348237844e+00 +0.0000000000000000e+00 -6.1999995760352364e+00 +6.4053889302204006e-04 +0.0000000000000000e+00 +9.9999979485494228e-01
-6.2999999999999936e+00 +9.0992497643678618e+00 +0.0000000000000000e+00 -6.2999995551880703e+00 +6.5087022533483121e-04 +0.0000000000000000e+00 +9.9999978818395252e-01
-6.3999999999999932e+00 +9.0991841607787336e+00 +0.0000000000000000e+00 -6.3999995336684687e+00 +6.6120155713290767e-04 +0.0000000000000000e+00 +9.9999978140622658e-01
-6.4999999999999929e+00 +9.0991175240564548e+00 +0.0000000000000000e+00 -6.4999995114657576e+00 +6.7153288832842706e-04 +0.0000000000000000e+00 +9.9999977452176458e-01
-6.5999999999999925e+00 +9.0990498542010894e+00 +0.0000000000000000e+00 -6.5999994885692637e+00 +6.8186421885426860e-04 +0.0000000000000000e+00 +9.9999976753056652e-01
-6.6999999999999922e+00 +9.0989811512127066e+00 +0.0000000000000000e+00 -6.6999994649683128e+00 +6.9219554866403114e-04 +0.0000000000000000e+00 +9.9999976043263250e-01
-6.7999999999999918e+00 +9.0989114150913810e+00 +0.0000000000000000e+00 -6.7999994406522317e+00 +7.0252687773203200e-04 +0.0000000000000000e+00 +9.9999975322796253e-01
-6.8999999999999915e+00 +9.0988406458371855e+00 +0.0000000000000000e+00 -6.8999994156103472e+00 +7.1285820605330498e-04 +0.0000000000000000e+00 +9.9999974591655671e-01
-6.9999999999999911e+00 +9.0987688434501948e+00 +0.0000000000000000e+00 -6.9999993898319852e+00 +7.2318953364359888e-04 +0.0000000000000000e+00 +9.9999973849841495e-01
-7.0999999999999908e+00 +9.0986960079304797e+00 +0.0000000000000000e+00 -7.0999993633064724e+00 +7.3352086053937585e-04 +0.0000000000000000e+00 +9.9999973097353734e-01
-7.1999999999999904e+00 +9.0986221392781079e+00 +0.0000000000000000e+00 -7.1999993360231347e+00 +7.4385218679780935e-04 +0.0000000000000000e+00 +9.9999972334192377e-01
-7.2999999999999901e+00 +9.0985472374931398e+00 +0.0000000000000000e+00 -7.2999993079712988e+00 +7.5418351249678228e-04 +0.0000000000000000e+00 +9.9999971560357426e-01
-7.3999999999999897e+00 +9.0984713025756250e+00 +0.0000000000000000e+00 -7.3999992791402915e+00 +7.6451483773488503e-04 +0.0000000000000000e+00 +9.9999970775848868e-01
-7.4999999999999893e+00 +9.0983943345256044e+00 +0.0000000000000000e+00 -7.4999992495194387e+00 +7.7484616263141380e-04 +0.0000000000000000e+00 +9.9999969980666703e-01
-7.5999999999999890e+00 +9.0983163333431047e+00 +0.0000000000000000e+00 -7.5999992190980672e+00 +7.8517748732636792e-04 +0.0000000000000000e+00 +9.9999969174810910e-01
-7.6999999999999886e+00 +9.0982372990281402e+00 +0.0000000000000000e+00 -7.6999991878655027e+00 +7.9550881198044827e-04 +0.0000000000000000e+00 +9.9999968358281488e-01
-7.7999999999999883e+00 +9.0981572315807036e+00 +0.0000000000000000e+00 -7.7999991558110722e+00 +8.0584013677505455e-04 +0.0000000000000000e+00 +9.9999967531078415e-01
-7.8999999999999879e+00 +9.0980761310007736e+00 +0.0000000000000000e+00 -7.8999991229241013e+00 +8.1617146191228335e-04 +0.0000000000000000e+00 +9.9999966693201681e-01
-7.9999999999999876e+00 +9.0979939972883024e+00 +0.0000000000000000e+00 -7.9999990891939170e+00 +8.2650278761492576e-04 +0.0000000000000000e+00 +9.9999965844651262e-01
-8.0999999999999872e+00 +9.0979108304432224e+00 +0.0000000000000000e+00 -8.0999990546098459e+00 +8.3683411412448661e-04 +0.0000000000000000e+00 +9.9999964985427137e-01
-8.1999999999999869e+00 +9.0978266304654412e+00 +0.0000000000000000e+00 -8.1999990191612131e+00 +8.4716544167942186e-04 +0.0000000000000000e+00 +9.9999964115529283e-01
-8.2999999999999865e+00 +9.0977413973548433e+00 +0.0000000000000000e+00 -8.2999989828373462e+00 +8.5749677049337788e-04 +0.0000000000000000e+00 +9.9999963234957667e-01
-8.3999999999999861e+00 +9.0976551311112939e+00 +0.0000000000000000e+00 -8.3999989456275710e+00 +8.6782810075321432e-04 +0.0000000000000000e+00 +9.9999962343712279e-01
-8.4999999999999858e+00 +9.0975678317346400e+00 +0.0000000000000000e+00 -8.4999989075212135e+00 +8.7815943261900539e-04 +0.0000000000000000e+00 +9.9999961441793106e-01
-8.5999999999999854e+00 +9.0974794992247130e+00 +0.0000000000000000e+00 -8.5999988685075994e+00 +8.8849076622404171e-04 +0.0000000000000000e+00 +9.9999960529200127e-01
-8.6999999999999851e+00 +9.0973901335813334e+00 +0.0000000000000000e+00 -8.6999988285760548e+00 +8.9882210167483139e-04 +0.0000000000000000e+00 +9.9999959605933320e-01
-8.7999999999999847e+00 +9.0972997348043130e+00 +0.0000000000000000e+00 -8.7999987877159072e+00 +9.0915343905110212e-04 +0.0000000000000000e+00 +9.9999958671992673e-01
-8.8999999999999844e+00 +9.0972083028934563e+00 +0.0000000000000000e+00 -8.8999987459164824e+00 +9.1948477840580242e-04 +0.0000000000000000e+00 +9.9999957727378175e-01
-8.9999999999999840e+00 +9.0971158378485644e+00 +0.0000000000000000e+00 -8.9999987031671065e+00 +9.2981611976510363e-04 +0.0000000000000000e+00 +9.9999956772089826e-01
-9.0999999999999837e+00 +9.0970223396694365e+00 +0.0000000000000000e+00 -9.0999986594571052e+00 +9.4014746312840163e-04 +0.0000000000000000e+00 +9.9999955806127616e-01
-9.1999999999999833e+00 +9.0969278083558738e+00 +0.0000000000000000e+00 -9.1999986147758044e+00 +9.5047880846831849e-04 +0.0000000000000000e+00 +9.9999954829491533e-01
-9.2999999999999829e+00 +9.0968322439076790e+00 +0.0000000000000000e+00 -9.2999985691125300e+00 +9.6081015573070436e-04 +0.0000000000000000e+00 +9.9999953842181577e-01
-9.3999999999999826e+00 +9.0967356463246656e+00 +0.0000000000000000e+00 -9.3999985224566096e+00 +9.7114150483463971e-04 +0.0000000000000000e+00 +9.9999952844197759e-01
-9.4999999999999822e+00 +9.0966380156066542e+00 +0.0000000000000000e+00 -9.4999984747973674e+00 +9.8147285567243693e-04 +0.0000000000000000e+00 +9.9999951835540080e-01
-9.5999999999999819e+00 +9.0965393517534778e+00 +0.0000000000000000e+00 -9.5999984261241309e+00 +9.9180420810964258e-04 +0.0000000000000000e+00 +9.9999950816208538e-01
-9.6999999999999815e+00 +9.0964396547649837e+00 +0.0000000000000000e+00 -9.6999983764262261e+00 +1.0021355619850394e-03 +0.0000000000000000e+00 +9.9999949786203157e-01
-9.7999999999999812e+00 +9.0963389246410387e+00 +0.0000000000000000e+00 -9.7999983256929788e+00 +1.0124669171106483e-03 +0.0000000000000000e+00 +9.9999948745523948e-01
-9.8999999999999808e+00 +9.0962371613815272e+00 +0.0000000000000000e+00 -9.8999982739137149e+00 +1.0227982732717311e-03 +0.0000000000000000e+00 +9.9999947694170921e-01
-9.9999999999999805e+00 +9.0961343649863586e+00 +0.0000000000000000e+00 -9.9999982210777620e+00 +1.0331296302267920e-03 +0.0000000000000000e+00 +9.9999946632144110e-01
-1.0099999999999980e+01 +9.0960305354554656e+00 +0.0000000000000000e+00 -1.0099998167174446e+01 +1.0434609877093984e-03 +0.0000000000000000e+00 +9.9999945559443526e-01
-1.0199999999999980e+01 +9.0959256727888089e+00 +0.0000000000000000e+00 -1.0199998112193091e+01 +1.0537923454481770e-03 +0.0000000000000000e+00 +9.9999944476069202e-01
-1.0299999999999979e+01 +9.0958197769863762e+00 +0.0000000000000000e+00 -1.0299998056123027e+01 +1.0641237031868121e-03 +0.0000000000000000e+00 +9.9999943382021172e-01
-1.0399999999999979e+01 +9.0957128480481799e+00 +0.0000000000000000e+00 -1.0399997998953577e+01 +1.0744550606858628e-03 +0.0000000000000000e+00 +9.9999942277299458e-01
-1.0499999999999979e+01 +9.0956048859742555e+00 +0.0000000000000000e+00 -1.0499997940674067e+01 +1.0847864177227641e-03 +0.0000000000000000e+00 +9.9999941161904071e-01
-1.0599999999999978e+01 +9.0954958907646581e+00 +0.0000000000000000e+00 -1.0599997881273826e+01 +1.0951177740918267e-03 +0.0000000000000000e+00 +9.9999940035835044e-01
-1.0699999999999978e+01 +9.0953858624194659e+00 +0.0000000000000000e+00 -1.0699997820742178e+01 +1.1054491296042376e-03 +0.0000000000000000e+00 +9.9999938899092411e-01
-1.0799999999999978e+01 +9.0952748009387712e+00 +0.0000000000000000e+00 -1.0799997759068452e+01 +1.1157804840880607e-03 +0.0000000000000000e+00 +9.9999937751676182e-01
-1.0899999999999977e+01 +9.0951627063226876e+00 +0.0000000000000000e+00 -1.0899997696241973e+01 +1.1261118373882366e-03 +0.0000000000000000e+00 +9.9999936593586369e-01
-1.0999999999999977e+01 +9.0950495785713379e+00 +0.0000000000000000e+00 -1.0999997632252068e+01 +1.1364431893665834e-03 +0.0000000000000000e+00 +9.9999935424823005e-01
-1.1099999999999977e+01 +9.0949354176848622e+00 +0.0000000000000000e+00 -1.1099997567088062e+01 +1.1467745399017968e-03 +0.0000000000000000e+00 +9.9999934245386102e-01
-1.1199999999999976e+01 +9.0948202236634099e+00 +0.0000000000000000e+00 -1.1199997500739283e+01 +1.1571058888894506e-03 +0.0000000000000000e+00 +9.9999933055275680e-01
-1.1299999999999976e+01 +9.0947039965071390e+00 +0.0000000000000000e+00 -1.1299997433195056e+01 +1.1674372362419972e-03 +0.0000000000000000e+00 +9.9999931854491741e-01
-1.1399999999999975e+01 +9.0945867362162183e+00 +0.0000000000000000e+00 -1.1399997364444708e+01 +1.1777685818887681e-03 +0.0000000000000000e+00 +9.9999930643034307e-01
-1.1499999999999975e+01 +9.0944684427908200e+00 +0.0000000000000000e+00 -1.1499997294477566e+01 +1.1880999257759734e-03 +0.0000000000000000e+00 +9.9999929420903400e-01
-1.1599999999999975e+01 +9.0943491162311236e+00 +0.0000000000000000e+00 -1.1599997223282957e+01 +1.1984312678667034e-03 +0.0000000000000000e+00 +9.9999928188099019e-01
-1.1699999999999974e+01 +9.0942287565373086e+00 +0.0000000000000000e+00 -1.1699997150850207e+01 +1.2087626081409284e-03 +0.0000000000000000e+00 +9.9999926944621165e-01
