# trajectory
# s[mm] rx[mm] ry[mm] rz[mm] px[rad] py[rad] pz[rad]
0.0000000000000000e+00 +9.1013000000000002e+00 +0.0000000000000000e+00 +0.0000000000000000e+00 +0.0000000000000000e+00 +0.0000000000000000e+00 +1.0000000000000000e+00
-1.0000000000000001e-01 +9.1012994834661551e+00 +0.0000000000000000e+00 -9.9999999998221276e-02 +1.0330676862291765e-05 +0.0000000000000000e+00 +9.9999999994663857e-01
-2.0000000000000001e-01 +9.1012979338646378e+00 +0.0000000000000000e+00 -1.9999999998577028e-01 +2.0661353453390546e-05 +0.0000000000000000e+00 +9.9999999978655429e-01
-3.0000000000000004e-01 +9.1012953511954695e+00 +0.0000000000000000e+00 -2.9999999995197468e-01 +3.0992029902510302e-05 +0.0000000000000000e+00 +9.9999999951974705e-01
-4.0000000000000002e-01 +9.1012917354586573e+00 +0.0000000000000000e+00 -3.9999999988616225e-01 +4.1322706340947952e-05 +0.0000000000000000e+00 +9.9999999914621696e-01
-5.0000000000000000e-01 +9.1012870866541959e+00 +0.0000000000000000e+00 -4.9999999977766063e-01 +5.1653382902083401e-05 +0.0000000000000000e+00 +9.9999999866596401e-01
-5.9999999999999998e-01 +9.1012814047820676e+00 +0.0000000000000000e+00 -5.9999999961579764e-01 +6.1984059721379651e-05 +0.0000000000000000e+00 +9.9999999807898821e-01
-6.9999999999999996e-01 +9.1012746898422385e+00 +0.0000000000000000e+00 -6.9999999938990087e-01 +7.2314736936383037e-05 +0.0000000000000000e+00 +9.9999999738528944e-01
-7.9999999999999993e-01 +9.1012669418346626e+00 +0.0000000000000000e+00 -7.9999999908929809e-01 +8.2645414686723632e-05 +0.0000000000000000e+00 +9.9999999658486771e-01
-8.9999999999999991e-01 +9.1012581607592793e+00 +0.0000000000000000e+00 -8.9999999870331693e-01 +9.2976093114115755e-05 +0.0000000000000000e+00 +9.9999999567772302e-01
-9.9999999999999989e-01 +9.1012483466160123e+00 +0.0000000000000000e+00 -9.9999999822128516e-01 +1.0330677236235858e-04 +0.0000000000000000e+00 +9.9999999466385536e-01
-1.0999999999999999e+00 +9.1012374994047747e+00 +0.0000000000000000e+00 -1.0999999976325305e+00 +1.1363745257733692e-04 +0.0000000000000000e+00 +9.9999999354326463e-01
-1.2000000000000000e+00 +9.1012256191254597e+00 +0.0000000000000000e+00 -1.1999999969263806e+00 +1.2396813390702212e-04 +0.0000000000000000e+00 +9.9999999231595083e-01
-1.3000000000000000e+00 +9.1012127057779502e+00 +0.0000000000000000e+00 -1.2999999960921631e+00 +1.3429881650147308e-04 +0.0000000000000000e+00 +9.9999999098191383e-01
-1.4000000000000001e+00 +9.1011987593621111e+00 +0.0000000000000000e+00 -1.3999999951192059e+00 +1.4462950051283735e-04 +0.0000000000000000e+00 +9.9999998954115366e-01
-1.5000000000000002e+00 +9.1011837798777950e+00 +0.0000000000000000e+00 -1.4999999939968365e+00 +1.5496018609535247e-04 +0.0000000000000000e+00 +9.9999998799367018e-01
-1.6000000000000003e+00 +9.1011677673248350e+00 +0.0000000000000000e+00 -1.5999999927143824e+00 +1.6529087340534735e-04 +0.0000000000000000e+00 +9.9999998633946341e-01
-1.7000000000000004e+00 +9.1011507217030516e+00 +0.0000000000000000e+00 -1.6999999912611716e+00 +1.7562156260124374e-04 +0.0000000000000000e+00 +9.9999998457853312e-01
-1.8000000000000005e+00 +9.1011326430122477e+00 +0.0000000000000000e+00 -1.7999999896265315e+00 +1.8595225384355796e-04 +0.0000000000000000e+00 +9.9999998271087931e-01
-1.9000000000000006e+00 +9.1011135312522100e+00 +0.0000000000000000e+00 -1.8999999877997900e+00 +1.9628294729490261e-04 +0.0000000000000000e+00 +9.9999998073650198e-01
-2.0000000000000004e+00 +9.1010933864227095e+00 +0.0000000000000000e+00 -1.9999999857702744e+00 +2.0661364311998857e-04 +0.0000000000000000e+00 +9.9999997865540091e-01
-2.1000000000000005e+00 +9.1010722085235010e+00 +0.0000000000000000e+00 -2.0999999835273124e+00 +2.1694434148529986e-04 +0.0000000000000000e+00 +9.9999997646757599e-01
-2.2000000000000006e+00 +9.1010499975543215e+00 +0.0000000000000000e+00 -2.1999999810602318e+00 +2.2727504255549765e-04 +0.0000000000000000e+00 +9.9999997417302711e-01
-2.3000000000000007e+00 +9.1010267535148941e+00 +0.0000000000000000e+00 -2.2999999783583602e+00 +2.3760574648982251e-04 +0.0000000000000000e+00 +9.9999997177175415e-01
-2.4000000000000008e+00 +9.1010024764049238e+00 +0.0000000000000000e+00 -2.3999999754110251e+00 +2.4793645344176648e-04 +0.0000000000000000e+00 +9.9999996926375700e-01
-2.5000000000000009e+00 +9.1009771662241015e+00 +0.0000000000000000e+00 -2.4999999722075539e+00 +2.5826716355907184e-04 +0.0000000000000000e+00 +9.9999996664903545e-01
-2.6000000000000010e+00 +9.1009508229721021e+00 +0.0000000000000000e+00 -2.5999999687372743e+00 +2.6859787698372975e-04 +0.0000000000000000e+00 +9.9999996392758950e-01
-2.7000000000000011e+00 +9.1009234466485900e+00 +0.0000000000000000e+00 -2.6999999649895141e+00 +2.7892859385197851e-04 +0.0000000000000000e+00 +9.9999996109941891e-01
-2.8000000000000012e+00 +9.1008950372532134e+00 +0.0000000000000000e+00 -2.7999999609536008e+00 +2.8925931429430173e-04 +0.0000000000000000e+00 +9.9999995816452358e-01
-2.9000000000000012e+00 +9.1008655947856081e+00 +0.0000000000000000e+00 -2.8999999566188617e+00 +2.9959003843542631e-04 +0.0000000000000000e+00 +9.9999995512290329e-01
-3.0000000000000013e+00 +9.1008351192453993e+00 +0.0000000000000000e+00 -2.9999999519746243e+00 +3.0992076639431990e-04 +0.0000000000000000e+00 +9.9999995197455804e-01
-3.1000000000000014e+00 +9.1008036106321981e+00 +0.0000000000000000e+00 -3.0999999470102160e+00 +3.2025149828418862e-04 +0.0000000000000000e+00 +9.9999994871948750e-01
-3.2000000000000015e+00 +9.1007710689456065e+00 +0.0000000000000000e+00 -3.1999999417149643e+00 +3.3058223421247401e-04 +0.0000000000000000e+00 +9.9999994535769166e-01
-3.3000000000000016e+00 +9.1007374941852159e+00 +0.0000000000000000e+00 -3.2999999360781969e+00 +3.4091297428085019e-04 +0.0000000000000000e+00 +9.9999994188917019e-01
-3.4000000000000017e+00 +9.1007028863506090e+00 +0.0000000000000000e+00 -3.3999999300892410e+00 +3.5124371858522046e-04 +0.0000000000000000e+00 +9.9999993831392309e-01
-3.5000000000000018e+00 +9.1006672454413557e+00 +0.0000000000000000e+00 -3.4999999237374242e+00 +3.6157446721571407e-04 +0.0000000000000000e+00 +9.9999993463195014e-01
-3.6000000000000019e+00 +9.1006305714570193e+00 +0.0000000000000000e+00 -3.5999999170120738e+00 +3.7190522025668221e-04 +0.0000000000000000e+00 +9.9999993084325112e-01
-3.7000000000000020e+00 +9.1005928643971554e+00 +0.0000000000000000e+00 -3.6999999099025169e+00 +3.8223597778669436e-04 +0.0000000000000000e+00 +9.9999992694782591e-01
-3.8000000000000020e+00 +9.1005541242613113e+00 +0.0000000000000000e+00 -3.7999999023980813e+00 +3.9256673987853388e-04 +0.0000000000000000e+00 +9.9999992294567430e-01
-3.9000000000000021e+00 +9.1005143510490267e+00 +0.0000000000000000e+00 -3.8999998944880940e+00 +4.0289750659919390e-04 +0.0000000000000000e+00 +9.9999991883679618e-01
-4.0000000000000018e+00 +9.1004735447598364e+00 +0.0000000000000000e+00 -3.9999998861618828e+00 +4.1322827800987242e-04 +0.0000000000000000e+00 +9.9999991462119131e-01
-4.1000000000000014e+00 +9.1004317053932677e+00 +0.0000000000000000e+00 -4.0999998774087745e+00 +4.2355905416574654e-04 +0.0000000000000000e+00 +9.9999991029885960e-01
-4.2000000000000011e+00 +9.1003888329488447e+00 +0.0000000000000000e+00 -4.1999998682180966e+00 +4.3388983511353585e-04 +0.0000000000000000e+00 +9.9999990586980081e-01
-4.3000000000000007e+00 +9.1003449274260841e+00 +0.0000000000000000e+00 -4.2999998585791763e+00 +4.4422062088906884e-04 +0.0000000000000000e+00 +9.9999990133401484e-01
-4.4000000000000004e+00 +9.1002999888245046e+00 +0.0000000000000000e+00 -4.3999998484813414e+00 +4.5455141151706259e-04 +0.0000000000000000e+00 +9.9999989669150158e-01
-4.5000000000000000e+00 +9.1002540171436195e+00 +0.0000000000000000e+00 -4.4999998379139186e+00 +4.6488220701112359e-04 +0.0000000000000000e+00 +9.9999989194226069e-01
-4.5999999999999996e+00 +9.1002070123829402e+00 +0.0000000000000000e+00 -4.5999998268662354e+00 +4.7521300737374874e-04 +0.0000000000000000e+00 +9.9999988708629217e-01
-4.6999999999999993e+00 +9.1001589745419817e+00 +0.0000000000000000e+00 -4.6999998153276188e+00 +4.8554381259632655e-04 +0.0000000000000000e+00 +9.9999988212359581e-01
-4.7999999999999989e+00 +9.1001099036202593e+00 +0.0000000000000000e+00 -4.7999998032873963e+00 +4.9587462265913843e-04 +0.0000000000000000e+00 +9.9999987705417148e-01
-4.8999999999999986e+00 +9.1000597996172896e+00 +0.0000000000000000e+00 -4.8999997907348956e+00 +5.0620543753136012e-04 +0.0000000000000000e+00 +9.9999987187801909e-01
-4.9999999999999982e+00 +9.1000086625325949e+00 +0.0000000000000000e+00 -4.9999997776594425e+00 +5.1653625717106326e-04 +0.0000000000000000e+00 +9.9999986659513840e-01
-5.0999999999999979e+00 +9.0999564923656990e+00 +0.0000000000000000e+00 -5.0999997640503656e+00 +5.2686708152521679e-04 +0.0000000000000000e+00 +9.9999986120552931e-01
-5.1999999999999975e+00 +9.0999032891161349e+00 +0.0000000000000000e+00 -5.1999997498969908e+00 +5.3719791052968919e-04 +0.0000000000000000e+00 +9.9999985570919181e-01
-5.2999999999999972e+00 +9.0998490527834406e+00 +0.0000000000000000e+00 -5.2999997351886456e+00 +5.4752874410925016e-04 +0.0000000000000000e+00 +9.9999985010612569e-01
-5.3999999999999968e+00 +9.0997937833671632e+00 +0.0000000000000000e+00 -5.3999997199146579e+00 +5.5785958217757271e-04 +0.0000000000000000e+00 +9.9999984439633094e-01
-5.4999999999999964e+00 +9.0997374808668585e+00 +0.0000000000000000e+00 -5.4999997040643542e+00 +5.6819042463723552e-04 +0.0000000000000000e+00 +9.9999983857980745e-01
-5.5999999999999961e+00 +9.0996801452820932e+00 +0.0000000000000000e+00 -5.5999996876270615e+00 +5.7852127137972514e-04 +0.0000000000000000e+00 +9.9999983265655512e-01
-5.6999999999999957e+00 +9.0996217766124445e+00 +0.0000000000000000e+00 -5.6999996705921072e+00 +5.8885212228543835e-04 +0.0000000000000000e+00 +9.9999982662657383e-01
-5.7999999999999954e+00 +9.0995623748575021e+00 +0.0000000000000000e+00 -5.7999996529488183e+00 +5.9918297722368497e-04 +0.0000000000000000e+00 +9.9999982048986358e-01
-5.8999999999999950e+00 +9.0995019400168697e+00 +0.0000000000000000e+00 -5.8999996346865222e+00 +6.0951383605269062e-04 +0.0000000000000000e+00 +9.9999981424642437e-01
-5.9999999999999947e+00 +9.0994404720901674e+00 +0.0000000000000000e+00 -5.9999996157945459e+00 +6.1984469861959927e-04 +0.0000000000000000e+00 +9.9999980789625609e-01
-6.0999999999999943e+00 +9.0993779710770273e+00 +0.0000000000000000e+00 -6.0999995962622160e+00 +6.3017556476120174e-04 +0.0000000000000000e+00 +9.9999980143935885e-01
-6.1999999999999940e+00 +9.0993144369771013e+00 +0.0000000000000000e+00 -6.1999995760788602e+00 +6.4050643431191640e-04 +0.0000000000000000e+00 +9.9999979487573254e-01
-6.2999999999999936e+00 +9.0992498697900572e+00 +0.0000000000000000e+00 -6.2999995552338053e+00 +6.5083730711176986e-04 +0.0000000000000000e+00 +9.9999978820537716e-01
-6.3999999999999932e+00 +9.0991842695155771e+00 +0.0000000000000000e+00 -6.3999995337163780e+00 +6.6116818300712449e-04 +0.0000000000000000e+00 +9.9999978142829271e-01
-6.4999999999999929e+00 +9.0991176361533590e+00 +0.0000000000000000e+00 -6.4999995115159059e+00 +6.7149906185068103e-04 +0.0000000000000000e+00 +9.9999977454447930e-01
-6.5999999999999925e+00 +9.0990499697031151e+00 +0.0000000000000000e+00 -6.5999994886217159e+00 +6.8182994350148116e-04 +0.0000000000000000e+00 +9.9999976755393682e-01
-6.6999999999999922e+00 +9.0989812701645700e+00 +0.0000000000000000e+00 -6.6999994650231356e+00 +6.9216082782491012e-04 +0.0000000000000000e+00 +9.9999976045666528e-01
-6.7999999999999918e+00 +9.0989115375374645e+00 +0.0000000000000000e+00 -6.7999994407094917e+00 +7.0249171469269963e-04 +0.0000000000000000e+00 +9.9999975325266466e-01
-6.8999999999999915e+00 +9.0988407718215498e+00 +0.0000000000000000e+00 -6.8999994156701110e+00 +7.1282260398293073e-04 +0.0000000000000000e+00 +9.9999974594193508e-01
-6.9999999999999911e+00 +9.0987689730165897e+00 +0.0000000000000000e+00 -6.9999993898943211e+00 +7.2315349558003679e-04 +0.0000000000000000e+00 +9.9999973852447643e-01
-7.0999999999999908e+00 +9.0986961411223604e+00 +0.0000000000000000e+00 -7.0999993633714489e+00 +7.3348438937480655e-04 +0.0000000000000000e+00 +9.9999973100028883e-01
-7.1999999999999904e+00 +9.0986222761386450e+00 +0.0000000000000000e+00 -7.1999993360908210e+00 +7.4381528526438730e-04 +0.0000000000000000e+00 +9.9999972336937215e-01
-7.2999999999999901e+00 +9.0985473780652413e+00 +0.0000000000000000e+00 -7.2999993080417651e+00 +7.5414618315228807e-04 +0.0000000000000000e+00 +9.9999971563172652e-01
-7.3999999999999897e+00 +9.0984714469019519e+00 +0.0000000000000000e+00 -7.3999992792136080e+00 +7.6447708294838303e-04 +0.0000000000000000e+00 +9.9999970778735181e-01
-7.4999999999999893e+00 +9.0983944826485903e+00 +0.0000000000000000e+00 -7.4999992495956773e+00 +7.7480798456891508e-04 +0.0000000000000000e+00 +9.9999969983624815e-01
-7.5999999999999890e+00 +9.0983164853049789e+00 +0.0000000000000000e+00 -7.5999992191772998e+00 +7.8513888793649918e-04 +0.0000000000000000e+00 +9.9999969177841552e-01
-7.6999999999999886e+00 +9.0982374548709473e+00 +0.0000000000000000e+00 -7.6999991879478031e+00 +7.9546979298012604e-04 +0.0000000000000000e+00 +9.9999968361385383e-01
-7.7999999999999883e+00 +9.0981573913463301e+00 +0.0000000000000000e+00 -7.7999991558965132e+00 +8.0580069963516595e-04 +0.0000000000000000e+00 +9.9999967534256318e-01
-7.8999999999999879e+00 +9.0980762947309692e+00 +0.0000000000000000e+00 -7.8999991230127575e+00 +8.1613160784337242e-04 +0.0000000000000000e+00 +9.9999966696454357e-01
-7.9999999999999876e+00 +9.0979941650247120e+00 +0.0000000000000000e+00 -7.9999990892858639e+00 +8.2646251755288632e-04 +0.0000000000000000e+00 +9.9999965847979488e-01
-8.0999999999999872e+00 +9.0979110022274110e+00 +0.0000000000000000e+00 -8.0999990547051581e+00 +8.3679342871799032e-04 +0.0000000000000000e+00 +9.9999964988831724e-01
-8.1999999999999869e+00 +9.0978268063389223e+00 +0.0000000000000000e+00 -8.1999990192599697e+00 +8.4712434129636811e-04 +0.0000000000000000e+00 +9.9999964119011053e-01
-8.2999999999999865e+00 +9.0977415773591073e+00 +0.0000000000000000e+00 -8.2999989829396235e+00 +8.5745525524636064e-04 +0.0000000000000000e+00 +9.9999963238517475e-01
-8.3999999999999861e+00 +9.0976553152878292e+00 +0.0000000000000000e+00 -8.3999989457334472e+00 +8.6778617052671455e-04 +0.0000000000000000e+00 +9.9999962347350990e-01
-8.4999999999999858e+00 +9.0975680201249585e+00 +0.0000000000000000e+00 -8.4999989076307685e+00 +8.7811708709658058e-04 +0.0000000000000000e+00 +9.9999961445511598e-01
-8.5999999999999854e+00 +9.0974796918703689e+00 +0.0000000000000000e+00 -8.5999988686209132e+00 +8.8844800491551126e-04 +0.0000000000000000e+00 +9.9999960532999299e-01
-8.6999999999999851e+00 +9.0973903305239361e+00 +0.0000000000000000e+00 -8.6999988286932091e+00 +8.9877892394345867e-04 +0.0000000000000000e+00 +9.9999959609814093e-01
-8.7999999999999847e+00 +9.0972999360855411e+00 +0.0000000000000000e+00 -8.7999987878369836e+00 +9.0910984414077232e-04 +0.0000000000000000e+00 +9.9999958675955980e-01
-8.8999999999999844e+00 +9.0972085085550702e+00 +0.0000000000000000e+00 -8.8999987460415628e+00 +9.1944076546819685e-04 +0.0000000000000000e+00 +9.9999957731424960e-01
-8.9999999999999840e+00 +9.0971160479324116e+00 +0.0000000000000000e+00 -8.9999987032962760e+00 +9.2977168788686956e-04 +0.0000000000000000e+00 +9.9999956776221033e-01
-9.0999999999999837e+00 +9.0970225542174585e+00 +0.0000000000000000e+00 -9.0999986595904474e+00 +9.4010261135831787e-04 +0.0000000000000000e+00 +9.9999955810344199e-01
-9.1999999999999833e+00 +9.0969280274101063e+00 +0.0000000000000000e+00 -9.1999986149134063e+00 +9.5043353584445657e-04 +0.0000000000000000e+00 +9.9999954833794458e-01
-9.2999999999999829e+00 +9.0968324675102572e+00 +0.0000000000000000e+00 -9.2999985692544787e+00 +9.6076446130758536e-04 +0.0000000000000000e+00 +9.9999953846571810e-01
-9.3999999999999826e+00 +9.0967358745178135e+00 +0.0000000000000000e+00 -9.3999985226029921e+00 +9.7109538771038588e-04 +0.0000000000000000e+00 +9.9999952848676243e-01
-9.4999999999999822e+00 +9.0966382484326846e+00 +0.0000000000000000e+00 -9.4999984749482742e+00 +9.8142631501591882e-04 +0.0000000000000000e+00 +9.9999951840107770e-01
-9.5999999999999819e+00 +9.0965395892547818e+00 +0.0000000000000000e+00 -9.5999984262796509e+00 +9.9175724318762109e-04 +0.0000000000000000e+00 +9.9999950820866390e-01
-9.6999999999999815e+00 +9.0964398969840197e+00 +0.0000000000000000e+00 -9.6999983765864499e+00 +1.0020881721893027e-03 +0.0000000000000000e+00 +9.9999949790952103e-01
-9.7999999999999812e+00 +9.0963391716203166e+00 +0.0000000000000000e+00 -9.7999983258579970e+00 +1.0124191019851431e-03 +0.0000000000000000e+00 +9.9999948750364909e-01
-9.8999999999999808e+00 +9.0962374131635961e+00 +0.0000000000000000e+00 -9.8999982740836217e+00 +1.0227500325396888e-03 +0.0000000000000000e+00 +9.9999947699104819e-01
-9.9999999999999805e+00 +9.0961346216137837e+00 +0.0000000000000000e+00 -9.9999982212526497e+00 +1.0330809638178493e-03 +0.0000000000000000e+00 +9.9999946637171822e-01
-1.0099999999999980e+01 +9.0960307969708083e+00 +0.0000000000000000e+00 -1.0099998167354409e+01 +1.0434118957850151e-03 +0.0000000000000000e+00 +9.9999945564565917e-01
-1.0199999999999980e+01 +9.0959259392346041e+00 +0.0000000000000000e+00 -1.0199998112378225e+01 +1.0537428284083867e-03 +0.0000000000000000e+00 +9.9999944481287117e-01
-1.0299999999999979e+01 +9.0958200484051055e+00 +0.0000000000000000e+00 -1.0299998056313425e+01 +1.0640737616583046e-03 +0.0000000000000000e+00 +9.9999943387335410e-01
-1.0399999999999979e+01 +9.0957131244822520e+00 +0.0000000000000000e+00 -1.0399997999149338e+01 +1.0744046955083685e-03 +0.0000000000000000e+00 +9.9999942282710808e-01
-1.0499999999999979e+01 +9.0956051674659850e+00 +0.0000000000000000e+00 -1.0499997940875289e+01 +1.0847356299354353e-03 +0.0000000000000000e+00 +9.9999941167413298e-01
-1.0599999999999978e+01 +9.0954961773562477e+00 +0.0000000000000000e+00 -1.0599997881480606e+01 +1.0950665649196167e-03 +0.0000000000000000e+00 +9.9999940041442892e-01
-1.0699999999999978e+01 +9.0953861541529832e+00 +0.0000000000000000e+00 -1.0699997820954616e+01 +1.1053975004442780e-03 +0.0000000000000000e+00 +9.9999938904799590e-01
-1.0799999999999978e+01 +9.0952750978561401e+00 +0.0000000000000000e+00 -1.0799997759286647e+01 +1.1157284364960351e-03 +0.0000000000000000e+00 +9.9999937757483381e-01
-1.0899999999999977e+01 +9.0951630084656667e+00 +0.0000000000000000e+00 -1.0899997696466025e+01 +1.1260593730647529e-03 +0.0000000000000000e+00 +9.9999936599494266e-01
-1.0999999999999977e+01 +9.0950498859815099e+00 +0.0000000000000000e+00 -1.0999997632482078e+01 +1.1363903101435429e-03 +0.0000000000000000e+00 +9.9999935430832254e-01
-1.1099999999999977e+01 +9.0949357304036198e+00 +0.0000000000000000e+00 -1.1099997567324133e+01 +1.1467212477287608e-03 +0.0000000000000000e+00 +9.9999934251497336e-01
-1.1199999999999976e+01 +9.0948205417319468e+00 +0.0000000000000000e+00 -1.1199997500981516e+01 +1.1570521858200041e-03 +0.0000000000000000e+00 +9.9999933061489510e-01
-1.1299999999999976e+01 +9.0947043199664392e+00 +0.0000000000000000e+00 -1.1299997433443554e+01 +1.1673831244201106e-03 +0.0000000000000000e+00 +9.9999931860808777e-01
-1.1399999999999975e+01 +9.0945870651070457e+00 +0.0000000000000000e+00 -1.1399997364699576e+01 +1.1777140635351546e-03 +0.0000000000000000e+00 +9.9999930649455127e-01
-1.1499999999999975e+01 +9.0944687771537147e+00 +0.0000000000000000e+00 -1.1499997294738908e+01 +1.1880450031744457e-03 +0.0000000000000000e+00 +9.9999929427428569e-01
-1.1599999999999975e+01 +9.0943494561063929e+00 +0.0000000000000000e+00 -1.1599997223550876e+01 +1.1983759433505255e-03 +0.0000000000000000e+00 +9.9999928194729093e-01
-1.1699999999999974e+01 +9.0942291019650252e+00 +0.0000000000000000e+00 -1.1699997151124808e+01 +1.2087068840791655e-03 +0.0000000000000000e+00 +9.9999926951356688e-01
