# multipoles
# s[mm] polynom_b[n=0][T/m^n] polynom_b[n=1][T/m^n] polynom_b[n=2][T/m^n] polynom_b[n=3][T/m^n] polynom_b[n=4][T/m^n] polynom_b[n=5][T/m^n] polynom_b[n=6][T/m^n] 
+0.0000000000000000e+00 -1.0310428489013177e+00 +2.2863961811949380e+00 +9.0910646953976713e+00 -5.4310294770305507e+02 +9.4849711414272635e+04 +4.3146606490902090e+06 -5.1184388928303875e+07 
+1.0000000000000001e-01 -1.0310440844991962e+00 +2.2863981611988713e+00 +9.0083124470970564e+00 -5.3285024975104909e+02 +9.6674938867684876e+04 +4.2358784134121723e+06 -6.1503509389742546e+07 
+2.0000000000000001e-01 -1.0310452553764571e+00 +2.2863975515947637e+00 +8.9181258661029297e+00 -5.2230335232565392e+02 +9.8631764656170766e+04 +4.1549140469062976e+06 -7.2431051917287558e+07 
+3.0000000000000004e-01 -1.0310463735383537e+00 +2.2863931162039646e+00 +8.8208774511331693e+00 -5.1144304180667746e+02 +1.0070910666296227e+05 +4.0717033147041621e+06 -8.3898745855294853e+07 
+4.0000000000000002e-01 -1.0310474509900809e+00 +2.2863836188666777e+00 +8.7169396903436525e+00 -5.0025010470734560e+02 +1.0289588293657715e+05 +3.9861819803697099e+06 -9.5838321038378268e+07 
+5.0000000000000000e-01 -1.0310484997367775e+00 +2.2863678234573572e+00 +8.6066850644591675e+00 -4.8870532807466685e+02 +1.0518101160838085e+05 +3.8982858076979006e+06 -1.0818150732993475e+08 
+5.9999999999999998e-01 -1.0310495313210368e+00 +2.2863445276738008e+00 +8.4905104304514900e+00 -4.7679087055392847e+02 +1.0755437312497817e+05 +3.8079590068369377e+06 -1.2086876311091557e+08 
+6.9999999999999996e-01 -1.0310505554098603e+00 +2.2863126758891528e+00 +8.3689063273138551e+00 -4.6449539734627638e+02 +1.1000977977432444e+05 +3.7151865485507995e+06 -1.3387588268305123e+08 
+7.9999999999999993e-01 -1.0310515811948646e+00 +2.2862712520590356e+00 +8.2423857385075436e+00 -4.5180945713538262e+02 +1.1254204803805331e+05 +3.6199653453133609e+06 -1.4718760280525342e+08 
+8.9999999999999991e-01 -1.0310526178676100e+00 +2.2862192401484349e+00 +8.1114616450088786e+00 -4.3872359904343909e+02 +1.1514599434274116e+05 +3.5222923118889267e+06 -1.6078865949172002e+08 
+9.9999999999999989e-01 -1.0310536746195627e+00 +2.2861556241271721e+00 +7.9766470214159577e+00 -4.2522837264248824e+02 +1.1781643512078766e+05 +3.4221643660077583e+06 -1.7466378826612341e+08 
+1.0999999999999999e+00 -1.0310547606421565e+00 +2.2860793879658896e+00 +7.8384548467859245e+00 -4.1131432799660411e+02 +1.2054818658669358e+05 +3.3195784292757167e+06 -1.8879772305146995e+08 
+1.2000000000000000e+00 -1.0310558851267320e+00 +2.2859895156312025e+00 +7.6973980960034609e+00 -3.9697201568821356e+02 +1.2333606489809899e+05 +3.2145314280112181e+06 -2.0317519692622557e+08 
+1.3000000000000000e+00 -1.0310570572645399e+00 +2.2858849910741403e+00 +7.5539897430650473e+00 -3.8219198660696873e+02 +1.2617488607644491e+05 +3.1070202925700825e+06 -2.1778094170265293e+08 
+1.4000000000000001e+00 -1.0310582862467510e+00 +2.2857647982394802e+00 +7.4087427637508245e+00 -3.6696479241185023e+02 +1.2905946594513177e+05 +2.9970419607953066e+06 -2.3259968760535935e+08 
+1.5000000000000002e+00 -1.0310595812645016e+00 +2.2856279210454282e+00 +7.2621701416440754e+00 -3.5128098507708143e+02 +1.3198462000188028e+05 +2.8845933759613582e+06 -2.4761616262441930e+08 
+1.6000000000000003e+00 -1.0310609515087659e+00 +2.2854733433849095e+00 +7.1147848549075308e+00 -3.3513111708811925e+02 +1.3494516365842879e+05 +2.7696714885797212e+06 -2.6281509362852535e+08 
+1.7000000000000004e+00 -1.0310624061704681e+00 +2.2853000491256448e+00 +6.9670998904693207e+00 -3.1850574160334435e+02 +1.3793591195974470e+05 +2.6522732579970509e+06 -2.7818120499774081e+08 
+1.8000000000000005e+00 -1.0310639544404228e+00 +2.2851070220909659e+00 +6.8196282386023652e+00 -3.0139541204184746e+02 +1.4095167967592643e+05 +2.5323956506120125e+06 -2.9369921903127944e+08 
+1.9000000000000006e+00 -1.0310656055093401e+00 +2.2848932460710598e+00 +6.6728828951323473e+00 -2.8379068257834706e+02 +1.4398728124274869e+05 +2.4100356434548176e+06 -3.0935385561845583e+08 
+2.0000000000000004e+00 -1.0310673685678273e+00 +2.2846577048092604e+00 +6.5273768620987029e+00 -2.6568210789809496e+02 +1.4703753074492820e+05 +2.2851902233881592e+06 -3.2512983214795059e+08 
+2.1000000000000005e+00 -1.0310692528063850e+00 +2.2843993819952098e+00 +6.3836231495978346e+00 -2.4706024313554485e+02 +1.5009724186358479e+05 +2.1578563873581509e+06 -3.4101186321042472e+08 
+2.2000000000000006e+00 -1.0310712674153812e+00 +2.2841172612646679e+00 +6.2421347735533859e+00 -2.2791564405653031e+02 +1.5316122790645008e+05 +2.0280311441931068e+06 -3.5698466071082330e+08 
+2.3000000000000007e+00 -1.0310734215851027e+00 +2.2838103261922096e+00 +6.1034247632804881e+00 -2.0823886697520643e+02 +1.5622430165581327e+05 +1.8957115146965338e+06 -3.7303293312224549e+08 
+2.4000000000000008e+00 -1.0310757245056938e+00 +2.2834775602853861e+00 +5.9680061561943774e+00 -1.8802046874834789e+02 +1.5928127545001806e+05 +1.7608945322819189e+06 -3.8914138582340181e+08 
+2.5000000000000009e+00 -1.0310781853671585e+00 +2.2831179469890279e+00 +5.8363919980403169e+00 -1.6725100710944650e+02 +1.6232696116769430e+05 +1.6235772455605890e+06 -4.0529472100062621e+08 
+2.6000000000000010e+00 -1.0310808117054939e+00 +2.2827311686235854e+00 +5.7090905405500143e+00 -1.4594041119167119e+02 +1.6535473800262430e+05 +1.4838598843326869e+06 -4.2146775192571771e+08 
+2.7000000000000011e+00 -1.0310836043077569e+00 +2.2823195761674766e+00 +5.5865508210417900e+00 -1.2417119354871005e+02 +1.6835321807574472e+05 +1.3422274835968011e+06 -4.3760071972623497e+08 
+2.8000000000000012e+00 -1.0310865622446417e+00 +2.2818861581375396e+00 +5.4691979053925390e+00 -1.0204285938443593e+02 +1.7131004117200727e+05 +1.1992547173508983e+06 -4.5362635522236842e+08 
+2.9000000000000012e+00 -1.0310896845871802e+00 +2.2814339030355022e+00 +5.3574569106646717e+00 -7.9654913170765170e+01 +1.7421284619146489e+05 +1.0555162537589085e+06 -4.6947738569820076e+08 
+3.0000000000000013e+00 -1.0310929704067684e+00 +2.2809657993449015e+00 +5.2517530082361938e+00 -5.7106858405510280e+01 +1.7704927111305017e+05 +9.1158675311126653e+05 -4.8508653484330845e+08 
+3.1000000000000014e+00 -1.0310964187751799e+00 +2.2804848355314085e+00 +5.1525114252449429e+00 -3.4498197505171781e+01 +1.7980695299059787e+05 +7.6804086672665412e+05 -5.0038652284927577e+08 
+3.2000000000000015e+00 -1.0311000287646628e+00 +2.2799940000538657e+00 +5.0601574555857569e+00 -1.1928431963942376e+01 +1.8247352777106813e+05 +6.2545323727557855e+05 -5.1531006567180264e+08 
+3.3000000000000016e+00 -1.0311037994478973e+00 +2.2794962813537820e+00 +4.9751164547371136e+00 +1.0502938076870086e+01 +1.8503663041315260e+05 +4.8439849576957151e+05 -5.2978987570360380e+08 
+3.4000000000000017e+00 -1.0311077298980948e+00 +2.2789946678638926e+00 +4.8978138512815539e+00 +3.2696413727371876e+01 +1.8748389469369067e+05 +3.4545126160179597e+05 -5.4375866097276509e+08 
+3.5000000000000018e+00 -1.0311118191889881e+00 +2.2784921480041724e+00 +4.8286751450872920e+00 +5.4552497603943422e+01 +1.8980295326881268e+05 +2.0918614051080990e+05 -5.5714912556201351e+08 
+3.6000000000000019e+00 -1.0311160663948928e+00 +2.2779917101879072e+00 +4.7681259143296373e+00 +7.5971693800713211e+01 +1.9198143756271192e+05 +7.6177724198319120e+04 -5.6989396918844593e+08 
+3.7000000000000020e+00 -1.0311204705907313e+00 +2.2774963428168307e+00 +4.7165918187897589e+00 +9.6854508162786857e+01 +1.9400697772645304e+05 -5.2999411786763565e+04 -5.8192588712171900e+08 
+3.8000000000000020e+00 -1.0311250308521072e+00 +2.2770090342895100e+00 +4.6744986080725868e+00 +1.1710144818680820e+02 +1.9586720250727545e+05 -1.7777070802904782e+05 -5.9317756968303585e+08 
+3.9000000000000021e+00 -1.0311297462552118e+00 +2.2765327729973768e+00 +4.6422721084324747e+00 +1.3661302326977420e+02 +1.9754973953208458e+05 -2.9756162320052681e+05 -6.0358170373716438e+08 
+4.0000000000000018e+00 -1.0311346158770649e+00 +2.2760705473254159e+00 +4.6203382549692842e+00 +1.5528974485488015e+02 +1.9904221469799656e+05 -4.1179763553528849e+05 -6.1307096985026145e+08 
+4.1000000000000014e+00 -1.0311396387953617e+00 +2.2756253456562598e+00 +4.6091230688607450e+00 +1.7303212642411529e+02 +2.0033225265570215e+05 -5.1990424324699579e+05 -6.2157804478277051e+08 
+4.2000000000000011e+00 -1.0311448140886106e+00 +2.2752001563711808e+00 +4.6090526768526541e+00 +1.8974068362353728e+02 +2.0140747643948710e+05 -6.2130696583160630e+05 -6.2903559978091931e+08 
+4.3000000000000007e+00 -1.0311501408361439e+00 +2.2747979678480927e+00 +4.6205533096317790e+00 +2.0531593446454409e+02 +2.0225550754150908e+05 -7.1543134579545329e+05 -6.3537630110184252e+08 
+4.4000000000000004e+00 -1.0311556181181396e+00 +2.2744217684621906e+00 +4.6440513060800575e+00 +2.1965839944910579e+02 +2.0286396584041542e+05 -8.0170294992870558e+05 -6.4053280975133681e+08 
+4.5000000000000000e+00 -1.0311612450156404e+00 +2.2740745465570065e+00 +4.6799731090224759e+00 +2.3266860321380054e+02 +2.0322046983222119e+05 -8.7954738104871823e+05 -6.4443778309978092e+08 
+4.5999999999999996e+00 -1.0311670194730131e+00 +2.2737587551629157e+00 +4.7286137850709062e+00 +2.4426984964746120e+02 +2.0331657408457668e+05 -9.4853625491456373e+05 -6.4704700889415562e+08 
+4.6999999999999993e+00 -1.0311729350394723e+00 +2.2734749651160069e+00 +4.7897922877715313e+00 +2.5446395534801982e+02 +2.0315796539074040e+05 -1.0087416743848940e+06 -6.4839911450821173e+08 
+4.7999999999999989e+00 -1.0311789841996957e+00 +2.2732233336771381e+00 +4.8632195181938140e+00 +2.6326955541109311e+02 +2.0275351285471863e+05 -1.0603422235828948e+06 -6.4855134675414622e+08 
+4.8999999999999986e+00 -1.0311851594382531e+00 +2.2730040178447197e+00 +4.9486063305072321e+00 +2.7070529306484417e+02 +2.0211208703182466e+05 -1.1035165307291537e+06 -6.4756096150071514e+08 
+4.9999999999999982e+00 -1.0311914532396369e+00 +2.2728171743459509e+00 +5.0456635335279225e+00 +2.7678981999974752e+02 +2.0124255991255271e+05 -1.1384432698965066e+06 -6.4548522364202332e+08 
+5.0999999999999979e+00 -1.0311978580880814e+00 +2.2726629596287142e+00 +5.1541018658869762e+00 +2.8154179663984155e+02 +2.0015380541837480e+05 -1.1653011624141317e+06 -6.4238140952959681e+08 
+5.1999999999999975e+00 -1.0312043664677275e+00 +2.2725415298463534e+00 +5.2736320148248712e+00 +2.8497989258909780e+02 +1.9885469906295949e+05 -1.1842689792065453e+06 -6.3830680541871905e+08 
+5.2999999999999972e+00 -1.0312109708624460e+00 +2.2724530408387280e+00 +5.4039645914055585e+00 +2.8712278720136470e+02 +1.9735411845474437e+05 -1.1955255438745213e+06 -6.3331870995953000e+08 
+5.3999999999999968e+00 -1.0312176637559285e+00 +2.2723976481330723e+00 +5.5448101408841506e+00 +2.8798916956513375e+02 +1.9566094310994208e+05 -1.1992497323657314e+06 -6.2747443333897483e+08 
+5.4999999999999964e+00 -1.0312244376316115e+00 +2.2723755069242753e+00 +5.6958791299466789e+00 +2.8759773908866970e+02 +1.9378405473029683e+05 -1.1956204761322092e+06 -6.2083129871138692e+08 
+5.5999999999999961e+00 -1.0312312849726377e+00 +2.2723867720593827e+00 +5.8568819401749934e+00 +2.8596720598518164e+02 +1.9173233734376746e+05 -1.1848167647737022e+06 -6.1344664292069137e+08 
+5.6999999999999957e+00 -1.0312381982618899e+00 +2.2724315980349341e+00 +6.0275288699669360e+00 +2.8311629133208334e+02 +1.8951467729418009e+05 -1.1670176460550257e+06 -6.0537781653276420e+08 
+5.7999999999999954e+00 -1.0312451699819174e+00 +2.2725101389779909e+00 +6.2075301235822558e+00 +2.7906372765806236e+02 +1.8713996347038689e+05 -1.1424022291339575e+06 -5.9668218499144113e+08 
+5.8999999999999950e+00 -1.0312521926149216e+00 +2.2726225486375768e+00 +6.3965958070223357e+00 +2.7382825920844806e+02 +1.8461708740743584e+05 -1.1111496858954513e+06 -5.8741712917292893e+08 
+5.9999999999999947e+00 -1.0312592586427811e+00 +2.2727689803665165e+00 +6.5944359292286920e+00 +2.6742864247098794e+02 +1.8195494328572004e+05 -1.0734392537060981e+06 -5.7764004544930696e+08 
+6.0999999999999943e+00 -1.0312663605469614e+00 +2.2729495871181311e+00 +6.8007603875404765e+00 +2.5988364629905504e+02 +1.7916242823797237e+05 -1.0294502359423405e+06 -5.6740834724227893e+08 
+6.1999999999999940e+00 -1.0312734908085588e+00 +2.2731645214282659e+00 +7.0152789733998580e+00 +2.5121205244274981e+02 +1.7624844224926247e+05 -9.7936200481672003e+05 -5.5677946458270359e+08 
+6.2999999999999936e+00 -1.0312806419082183e+00 +2.2734139354038367e+00 +7.2377013573768938e+00 +2.4143265589755006e+02 +1.7322188847946501e+05 -9.2335400318126171e+05 -5.4581084575225520e+08 
+6.3999999999999932e+00 -1.0312878063261217e+00 +2.2736979807144611e+00 +7.4677370872211988e+00 +2.3056426516215711e+02 +1.7009167331387044e+05 -8.6160574578888959e+05 -5.3455995757412791e+08 
+6.4999999999999929e+00 -1.0312949765419139e+00 +2.2740168085886991e+00 +7.7050955751233454e+00 +2.1862570090822689e+02 +1.6686670648896950e+05 -7.9429680216508778e+05 -5.2308428510991466e+08 
+6.5999999999999925e+00 -1.0313021462084180e+00 +2.2743701593944836e+00 +7.9495149125536004e+00 +2.0564337457445794e+02 +1.6355440112778364e+05 -7.2162459606600716e+05 -5.1142923415711409e+08 
+6.6999999999999922e+00 -1.0313093138981730e+00 +2.2747559560234869e+00 +8.2009150889115094e+00 +1.9168755941033430e+02 +1.6015477472465948e+05 -6.4396908418736828e+05 -4.9958602204613364e+08 
+6.7999999999999918e+00 -1.0313164794593970e+00 +2.2751716158309390e+00 +8.4592776952451842e+00 +1.7684307142765405e+02 +1.5666560837041558e+05 -5.6178418471270311e+05 -4.8753046734259087e+08 
+6.8999999999999915e+00 -1.0313236427400345e+00 +2.2756145562456043e+00 +8.7245843216304237e+00 +1.6119472572834582e+02 +1.5308468219533880e+05 -4.7552382067610545e+05 -4.7523837991709447e+08 
+6.9999999999999911e+00 -1.0313308035877236e+00 +2.2760821948532954e+00 +8.9968165447960740e+00 +1.4482733269497749e+02 +1.4940977578908647e+05 -3.8564189405063132e+05 -4.6268556354377967e+08 
+7.0999999999999908e+00 -1.0313379618497984e+00 +2.2765719494166015e+00 +9.2759559317649920e+00 +1.2782569743414412e+02 +1.4563866808172196e+05 -2.9259228289303038e+05 -4.4984781513223785e+08 
+7.1999999999999904e+00 -1.0313451173731942e+00 +2.2770812378742553e+00 +9.5619840285804205e+00 +1.1027461974797457e+02 +1.4176913752104508e+05 -1.9682884135329022e+05 -4.3670092540730828e+08 
+7.2999999999999901e+00 -1.0313522700045255e+00 +2.2776074783625826e+00 +9.8548823712552505e+00 +9.2258893514504436e+01 +1.3779896182872495e+05 -9.8805396423407248e+04 -4.2322067758134633e+08 
+7.3999999999999897e+00 -1.0313594195899949e+00 +2.2781480892163550e+00 +1.0154632476047173e+01 +7.3863306607944750e+01 +1.3372591814249530e+05 +1.0242523666906488e+03 -4.0938284785305703e+08 
+7.4999999999999893e+00 -1.0313665659754616e+00 +2.2787004889923397e+00 +1.0461215850297183e+01 +5.5172640241156330e+01 +1.2954778276616483e+05 +1.0220633636219133e+05 -3.9516320403250808e+08 
+7.5999999999999890e+00 -1.0313737090063178e+00 +2.2792620964715264e+00 +1.0774613977106990e+01 +3.6271668843500677e+01 +1.2526233142517469e+05 +2.0428711834319809e+05 -3.8053750658863384e+08 
+7.6999999999999886e+00 -1.0313808485276106e+00 +2.2798303306676182e+00 +1.1094808332813884e+01 +1.7245159804131422e+01 +1.2086733889615470e+05 +3.0681289370587829e+05 -3.6548150672473300e+08 
+7.7999999999999883e+00 -1.0313879843839024e+00 +2.2804026108508184e+00 +1.1421780370734227e+01 -1.8221272288621368e+00 +1.1636057927048302e+05 +4.0932999424919998e+05 -3.4997094743564099e+08 
+7.8999999999999879e+00 -1.0313951164193365e+00 +2.2809763565476393e+00 +1.1755511530871539e+01 -2.0845440374228296e+01 +1.1173982573496968e+05 +5.1138478808120958e+05 -3.3398156230897558e+08 
+7.9999999999999876e+00 -1.0314022444776028e+00 +2.2815489875534731e+00 +1.2095983237304125e+01 -3.9740035897693808e+01 +1.0700285057637430e+05 +6.1252368154706864e+05 -3.1748907535479361e+08 
+8.0999999999999872e+00 -1.0314093684019112e+00 +2.2821179239495661e+00 +1.2443176895998100e+01 -5.8421178718814531e+01 +1.0214742518755478e+05 +7.1229312188520248e+05 -3.0046920087506235e+08 
+8.1999999999999869e+00 -1.0314164880350092e+00 +2.2826805861098882e+00 +1.2797073898399233e+01 -7.6804142651246565e+01 +9.7171319957171625e+04 +8.1023959842376038e+05 -2.8289764275609541e+08 
+8.2999999999999865e+00 -1.0314236032191202e+00 +2.2832343947129132e+00 +1.3157655615603643e+01 -9.4804210742749319e+01 +9.2072304340150076e+04 +9.0590964420479594e+05 -2.6475009463074610e+08 
+8.3999999999999861e+00 -1.0314307137959735e+00 +2.2837767707477954e+00 +1.3524903403214116e+01 -1.1233667547994250e+02 +8.6848146724875536e+04 +9.9884983693658048e+05 -2.4600223906831452e+08 
+8.4999999999999858e+00 -1.0314378196068097e+00 +2.2843051355361066e+00 +1.3898798601487334e+01 -1.2931684022256465e+02 +8.1496614263164753e+04 +1.0886067989066683e+06 -2.2662974705856481e+08 
+8.5999999999999854e+00 -1.0314449196752307e+00 +2.2848172495399615e+00 +1.4279141045715487e+01 -1.4567495887759341e+02 +7.6018459397411425e+04 +1.1748126986983041e+06 -2.0662217749887961e+08 
+8.6999999999999851e+00 -1.0314520102931461e+00 +2.2853125428018441e+00 +1.4665040970684768e+01 -1.6140637659960879e+02 +7.0426474863906435e+04 +1.2574817754549035e+06 -1.8602655670823064e+08 
+8.7999999999999847e+00 -1.0314590872000835e+00 +2.2857909493176902e+00 +1.5055442697627136e+01 -1.7652450945991487e+02 +6.4736536856105937e+04 +1.3367364892358920e+06 -1.6490508012955916e+08 
+8.8999999999999844e+00 -1.0314661461357388e+00 +2.2862524038967917e+00 +1.5449290596629622e+01 -1.9104279856447494e+02 +5.8964520427515694e+04 +1.4126994499089369e+06 -1.4331993762758955e+08 
+8.9999999999999840e+00 -1.0314731828400654e+00 +2.2866968420950280e+00 +1.5845529110142289e+01 -2.0497470701629686e+02 +5.3126298831256179e+04 +1.4854933930421944e+06 -1.2133330935903041e+08 
+9.0999999999999837e+00 -1.0314801930532196e+00 +2.2871242002405419e+00 +1.6243102746182320e+01 -2.1833372066763826e+02 +4.7237743648669180e+04 +1.5552411842401286e+06 -9.9007366388290718e+07 
+9.1999999999999833e+00 -1.0314871725156172e+00 +2.2875344154523334e+00 +1.6640956087115129e+01 -2.3113334866207154e+02 +4.1314724615629966e+04 +1.6220658222598189e+06 -7.6404269855436578e+07 
+9.2999999999999829e+00 -1.0314941169679177e+00 +2.2879274256669402e+00 +1.7038033788733649e+01 -2.4338712426628186e+02 +3.5373109623239769e+04 +1.6860904439665058e+06 -5.3586170933629729e+07 
+9.3999999999999826e+00 -1.0315010221510679e+00 +2.2883031696484060e+00 +1.7433280586657890e+01 -2.5510860510747935e+02 +2.9428764594535394e+04 +1.7474383255149503e+06 -3.0615210251356371e+07 
+9.4999999999999822e+00 -1.0315078838062022e+00 +2.2886615870190892e+00 +1.7825641283997328e+01 -2.6631137415299781e+02 +2.3497553717295174e+04 +1.8062328882446529e+06 -7.5535189992548833e+06 
+9.5999999999999819e+00 -1.0315146976748548e+00 +2.2890026182781420e+00 +1.8214060780829371e+01 -2.7700904021404784e+02 +1.7595338859234980e+04 +1.8625977014718712e+06 +1.5536783909760833e+07 
+9.6999999999999815e+00 -1.0315214594987530e+00 +2.2893262048232730e+00 +1.8597484047566187e+01 -2.8721523860828643e+02 +1.1737980080472069e+04 +1.9166564863755722e+06 +3.8593589379945099e+07 
+9.7999999999999812e+00 -1.0315281650199539e+00 +2.2896322889692948e+00 +1.8974856143502137e+01 -2.9694363171673416e+02 +5.9413352713998756e+03 +1.9685331192555246e+06 +6.1554799871877387e+07 
+9.8999999999999808e+00 -1.0315348099808084e+00 +2.2899208139697986e+00 +1.9345122214689045e+01 -3.0620790962031276e+02 +2.2126017394306714e+02 +2.0183516351943116e+06 +8.4358329348111689e+07 
+9.9999999999999805e+00 -1.0315413901240063e+00 +2.2901917240407488e+00 +1.9707227498570155e+01 -3.1502179080371764e+02 -5.4063917011778040e+03 +2.0662362321715748e+06 +1.0694210364470261e+08 
+1.0099999999999980e+01 -1.0315479011925526e+00 +2.2904449643804927e+00 +2.0060117323282174e+01 -3.2339902275058097e+02 -1.0925769073329418e+04 +2.1123112745043146e+06 +1.2924406049031533e+08 
