# multipoles
# s[mm] polynom_b[n=0][T/m^n] polynom_b[n=1][T/m^n] polynom_b[n=2][T/m^n] polynom_b[n=3][T/m^n] polynom_b[n=4][T/m^n] polynom_b[n=5][T/m^n] polynom_b[n=6][T/m^n] 
+0.0000000000000000e+00 -1.0318882713159774e+00 +2.2700827020204390e+00 +2.3572415666199944e+01 +7.9662822117259827e+02 -1.2196542010152843e+05 -4.0584859108207724e+06 +7.6719992986184323e+08 
-1.0000000000000001e-01 -1.0318862140314697e+00 +2.2698163309456039e+00 +2.3504279182177271e+01 +8.0179512026273778e+02 -1.2110073612000814e+05 -4.0800569647197658e+06 +7.6431634591049981e+08 
-2.0000000000000001e-01 -1.0318842342755938e+00 +2.2695855635301978e+00 +2.3437415113166143e+01 +8.0609811069592422e+02 -1.2021385909736318e+05 -4.0971056745566432e+06 +7.6123129167718089e+08 
-3.0000000000000004e-01 -1.0318823360361278e+00 +2.2693895073910770e+00 +2.3372147570498232e+01 +8.0954659122693374e+02 -1.1931271450003055e+05 -4.1096760341877649e+06 +7.5798671190303707e+08 
-4.0000000000000002e-01 -1.0318805233009947e+00 +2.2692272701050014e+00 +2.3308800676543168e+01 +8.1214996118354668e+02 -1.1840522790655456e+05 -4.1178120387861906e+06 +7.5462455151000881e+08 
-5.0000000000000000e-01 -1.0318788000584573e+00 +2.2690979591947049e+00 +2.3247698590319768e+01 +8.1391762098305946e+02 -1.1749932550033818e+05 -4.1215576884108419e+06 +7.5118675796561575e+08 
-5.9999999999999998e-01 -1.0318771702970153e+00 +2.2690006821306312e+00 +2.3189165495728133e+01 +8.1485897218336731e+02 -1.1660293385296719e+05 -4.1209569888541773e+06 +7.4771528027709496e+08 
-6.9999999999999996e-01 -1.0318756380053997e+00 +2.2689345463210131e+00 +2.3133525601516812e+01 +8.1498341790173072e+02 -1.1572397992649893e+05 -4.1160539546992956e+06 +7.4425206901374018e+08 
-7.9999999999999993e-01 -1.0318742071725957e+00 +2.2688986591127192e+00 +2.3081103144865125e+01 +8.1430036288535814e+02 -1.1487039114305643e+05 -4.1068926102732439e+06 +7.4083907664594221e+08 
-8.9999999999999991e-01 -1.0318728817878078e+00 +2.2688921277829621e+00 +2.3032222388734017e+01 +8.1281921387779425e+02 -1.1405009534586876e+05 -4.0935169923702064e+06 +7.3751825739613283e+08 
-9.9999999999999989e-01 -1.0318716658404714e+00 +2.2689140595278934e+00 +2.2987207623504780e+01 +8.1054938005094073e+02 -1.1327102082942979e+05 -4.0759711533295955e+06 +7.3433156738373017e+08 
-1.0999999999999999e+00 -1.0318705633202225e+00 +2.2689635614751942e+00 +2.2946383164294133e+01 +8.0750027275370564e+02 -1.1254109629361962e+05 -4.0542991601374443e+06 +7.3132096442411864e+08 
-1.2000000000000000e+00 -1.0318695782169036e+00 +2.2690397406602751e+00 +2.2910073352798975e+01 +8.0368130632586644e+02 -1.1186825088412497e+05 -4.0285450997821125e+06 +7.2852840824090254e+08 
-1.3000000000000000e+00 -1.0318687145205829e+00 +2.2691417040317368e+00 +2.2878602560459608e+01 +7.9910189804752406e+02 -1.1126041425782346e+05 -3.9987530795131084e+06 +7.2599586079603124e+08 
-1.4000000000000001e+00 -1.0318679762214731e+00 +2.2692685584433825e+00 +2.2852295179324997e+01 +7.9377146847063671e+02 -1.1072551641276707e+05 -3.9649672293152446e+06 +7.2376528549456608e+08 
-1.5000000000000002e+00 -1.0318673673099936e+00 +2.2694194106488133e+00 +2.2831475630424698e+01 +7.8769944170906592e+02 -1.1027148784925345e+05 -3.9272317042009453e+06 +7.2187864796256888e+08 
-1.6000000000000003e+00 -1.0318668895455165e+00 +2.2695932589166476e+00 +2.2816318757065414e+01 +7.8090038344274694e+02 -1.0990339605792217e+05 -3.8856169646387761e+06 +7.2036397872867584e+08 
-1.7000000000000004e+00 -1.0318665357373700e+00 +2.2697886947486974e+00 +2.2806399363718629e+01 +7.7340803785407059e+02 -1.0961487429291490e+05 -3.8402899130986449e+06 +7.1919366789151394e+08 
-1.8000000000000005e+00 -1.0318662964500560e+00 +2.2700042146315380e+00 +2.2801141664296647e+01 +7.6526060267513424e+02 -1.0939669763855601e+05 -3.7914393896078616e+06 +7.1832619774413955e+08 
-1.9000000000000006e+00 -1.0318661622480498e+00 +2.2702383150589669e+00 +2.2799969869333673e+01 +7.5649627540772838e+02 -1.0923964104972652e+05 -3.7392542324115285e+06 +7.1772004962295568e+08 
-2.0000000000000004e+00 -1.0318661236958482e+00 +2.2704894925467398e+00 +2.2802308192426924e+01 +7.4715325284869664e+02 -1.0913447947555827e+05 -3.6839232748476570e+06 +7.1733370448718834e+08 
-2.1000000000000005e+00 -1.0318661713578183e+00 +2.2707562436462192e+00 +2.2807580830736118e+01 +7.3726973067947313e+02 -1.0907198748747230e+05 -3.6256353426954807e+06 +7.1712564113413095e+08 
-2.2000000000000006e+00 -1.0318662957982794e+00 +2.2710370649477909e+00 +2.2815211976912270e+01 +7.2688390334109260e+02 -1.0904293951282452e+05 -3.5645792531463252e+06 +7.1705433731298470e+08 
-2.3000000000000007e+00 -1.0318664875813908e+00 +2.2713304530996292e+00 +2.2824625802824688e+01 +7.1603396344337841e+02 -1.0903810951354384e+05 -3.5009438109992053e+06 +7.1707826815347004e+08 
-2.4000000000000008e+00 -1.0318667372712216e+00 +2.2716349048127342e+00 +2.2835246470930660e+01 +7.0475810161744130e+02 -1.0904827121880083e+05 -3.4349178075815439e+06 +7.1715590730212498e+08 
-2.5000000000000009e+00 -1.0318670354316120e+00 +2.2719489168836846e+00 +2.2846498114702733e+01 +6.9309450579925340e+02 -1.0906419773525288e+05 -3.3666900161789418e+06 +7.1724572500686693e+08 
-2.6000000000000010e+00 -1.0318673726262262e+00 +2.2722709861855370e+00 +2.2857804846179750e+01 +6.8108136148498215e+02 -1.0907666170053826e+05 -3.2964491932747271e+06 +7.1730618886131203e+08 
-2.7000000000000011e+00 -1.0318677394184945e+00 +2.2725996097041676e+00 +2.2868590749748165e+01 +6.6875685064825961e+02 -1.0907643516766878e+05 -3.2243840719477646e+06 +7.1729576324753940e+08 
-2.8000000000000012e+00 -1.0318681263716203e+00 +2.2729332845280354e+00 +2.2878279881651252e+01 +6.5615915199533333e+02 -1.0905428958930835e+05 -3.1506833629907821e+06 +7.1717290923297524e+08 
-2.9000000000000012e+00 -1.0318685240484440e+00 +2.2732705078673496e+00 +2.2886296253080115e+01 +6.4332644039766183e+02 -1.0900099549494515e+05 -3.0755357513684039e+06 +7.1689608301416397e+08 
-3.0000000000000013e+00 -1.0318689230115801e+00 +2.2736097770700523e+00 +2.2892063849071672e+01 +6.3029688638290747e+02 -1.0890732286080430e+05 -2.9991298928832947e+06 +7.1642373769380856e+08 
-3.1000000000000014e+00 -1.0318693138232289e+00 +2.2739495896260475e+00 +2.2895006602815059e+01 +6.1710865600289571e+02 -1.0876404060904555e+05 -2.9216544131609024e+06 +7.1571432085154307e+08 
-3.2000000000000015e+00 -1.0318696870453028e+00 +2.2742884431826593e+00 +2.2894548413159288e+01 +6.0379991034218267e+02 -1.0856191694967500e+05 -2.8432979044364369e+06 +7.1472627618136919e+08 
-3.3000000000000016e+00 -1.0318700332392459e+00 +2.2746248355530367e+00 +2.2890113120972188e+01 +5.9040880525512739e+02 -1.0829171892418611e+05 -2.7642489237420578e+06 +7.1341804128772724e+08 
-3.4000000000000017e+00 -1.0318703429661022e+00 +2.2749572647270013e+00 +2.2881124518824727e+01 +5.7697349101260590e+02 -1.0794421259680038e+05 -2.6846959905110979e+06 +7.1174804860165393e+08 
-3.5000000000000018e+00 -1.0318706067864849e+00 +2.2752842288873691e+00 +2.2867006346278540e+01 +5.6353211184826466e+02 -1.0751016295393727e+05 -2.6048275836214400e+06 +7.0967472486964381e+08 
-3.6000000000000019e+00 -1.0318708169386497e+00 +2.2756045655208719e+00 +2.2847304825467138e+01 +5.5011741271743108e+02 -1.0698211909421689e+05 -2.5248102495012162e+06 +7.0716398940550601e+08 
-3.7000000000000020e+00 -1.0318709725416078e+00 +2.2759184543009501e+00 +2.2822065598114584e+01 +5.3674055695519462e+02 -1.0636002081963515e+05 -2.4447238201498250e+06 +7.0421320402532208e+08 
-3.8000000000000020e+00 -1.0318710744797452e+00 +2.2762264061943367e+00 +2.2791461950023695e+01 +5.2340735107083970e+02 -1.0564572701126714e+05 -2.3646269431702583e+06 +7.0082800080602527e+08 
-3.9000000000000021e+00 -1.0318711236375404e+00 +2.2765289321337931e+00 +2.2755667173138352e+01 +5.1012360243644650e+02 -1.0484109673514312e+05 -2.2845782704832656e+06 +6.9701401312646568e+08 
-4.0000000000000018e+00 -1.0318711208995892e+00 +2.2768265430027692e+00 +2.2714854566864823e+01 +4.9689511969201504e+02 -1.0394798926596629e+05 -2.2046364605175932e+06 +6.9277687579170418e+08 
-4.1000000000000014e+00 -1.0318710671505946e+00 +2.2771197496356574e+00 +2.2669197435841181e+01 +4.8372771274163483e+02 -1.0296826404545312e+05 -2.1248601782496357e+06 +6.8812222486408973e+08 
-4.2000000000000011e+00 -1.0318709632753142e+00 +2.2774090628132004e+00 +2.2618869084367415e+01 +4.7062719289005588e+02 -1.0190378059353151e+05 -2.0453080960603906e+06 +6.8305569731323433e+08 
-4.3000000000000007e+00 -1.0318708101586904e+00 +2.2776949932548267e+00 +2.2564042831051928e+01 +4.5759937304877457e+02 -1.0075639878853592e+05 -1.9660388949353916e+06 +6.7758293238253164e+08 
-4.4000000000000004e+00 -1.0318706086857874e+00 +2.2779780516125445e+00 +2.2504892000497406e+01 +4.4465006792673819e+02 -9.9527978714901998e+04 -1.8871112656811948e+06 +6.7170957090818751e+08 
-4.5000000000000000e+00 -1.0318703597417744e+00 +2.2782587484631840e+00 +2.2441589921438737e+01 +4.3178509424835141e+02 -9.8220380641273325e+04 -1.8085839102067999e+06 +6.6544125527788174e+08 
-4.5999999999999996e+00 -1.0318700642120635e+00 +2.2785375943071968e+00 +2.2374309943501732e+01 +4.1901027079253953e+02 -9.6835465345732853e+04 -1.7305155418334308e+06 +6.5878363102509916e+08 
-4.6999999999999993e+00 -1.0318697229821427e+00 +2.2788150995607079e+00 +2.2303225414784475e+01 +4.0633141861240421e+02 -9.5375093689711473e+04 -1.6529648865814640e+06 +6.5174234482935238e+08 
-4.7999999999999989e+00 -1.0318693369377758e+00 +2.2790917745506620e+00 +2.2228509707608730e+01 +3.9375436117506541e+02 -9.3841127122977006e+04 -1.5759906840414051e+06 +6.4432304698730075e+08 
-4.8999999999999986e+00 -1.0318689069648475e+00 +2.2793681295043542e+00 +2.2150336198426729e+01 +3.8128492468608732e+02 -9.2235427308637314e+04 -1.4996516893707125e+06 +6.3653138967645288e+08 
-4.9999999999999982e+00 -1.0318684339495339e+00 +2.2796446745470322e+00 +2.2068878288646630e+01 +3.6892893813327538e+02 -9.0559856524137722e+04 -1.4240066735306142e+06 +6.2837302890310562e+08 
-5.0999999999999979e+00 -1.0318679187781521e+00 +2.2799219197029768e+00 +2.1984309384881268e+01 +3.5669223326505363e+02 -8.8816277293291554e+04 -1.3491144232410763e+06 +6.1985362280201459e+08 
-5.1999999999999975e+00 -1.0318673623373080e+00 +2.2802003748763426e+00 +2.1896802917700807e+01 +3.4458064513951871e+02 -8.7006552750810428e+04 -1.2750337442041584e+06 +6.1097883341661561e+08 
-5.2999999999999972e+00 -1.0318667655138134e+00 +2.2804805498524057e+00 +2.1806532330193008e+01 +3.3260001209562279e+02 -8.5132546432197021e+04 -1.2018234610178359e+06 +6.0175432575034571e+08 
-5.3999999999999968e+00 -1.0318661291947815e+00 +2.2807629542920189e+00 +2.1713671090799938e+01 +3.2075617591546609e+02 -8.3196122532220557e+04 -1.1295424181703932e+06 +5.9218576906173456e+08 
-5.4999999999999964e+00 -1.0318654542676080e+00 +2.2810480977579477e+00 +2.1618392691249099e+01 +3.0905498080482914e+02 -8.1199145923832228e+04 -1.0582494762949082e+06 +5.8227883692196608e+08 
-5.5999999999999961e+00 -1.0318647432466079e+00 +2.2813362632904610e+00 +2.1520961443375249e+01 +2.9750205874980907e+02 -7.9145220306539923e+04 -9.8800245594557421e+05 +5.7204696505507779e+08 
-5.6999999999999957e+00 -1.0318640047110412e+00 +2.2816268104593038e+00 +2.1421957828918956e+01 +2.8610400657637217e+02 -7.7043637073289006e+04 -9.1886077611035458e+05 +5.6152833114278889e+08 
-5.7999999999999954e+00 -1.0318632486567141e+00 +2.2819188679542806e+00 +2.1322031168702694e+01 +2.7486791464810744e+02 -7.4904829509244679e+04 -8.5088481384180812e+05 +5.5076589209126163e+08 
-5.8999999999999950e+00 -1.0318624850789195e+00 +2.2822115640968597e+00 +2.1221830715667689e+01 +2.6380088518058727e+02 -7.2739229274019395e+04 -7.8413502042279730e+05 +5.3980259587629759e+08 
-5.9999999999999947e+00 -1.0318617239723840e+00 +2.2825040268180916e+00 +2.1122005649000705e+01 +2.5291003307291800e+02 -7.0557266297691487e+04 -7.1867192624689906e+05 +5.2868138101419789e+08 
-6.0999999999999943e+00 -1.0318609753312400e+00 +2.2827953836430317e+00 +2.1023205069910073e+01 +2.4220248640650948e+02 -6.8369368684512228e+04 -6.5455614392712619e+05 +5.1744517604299724e+08 
-6.1999999999999940e+00 -1.0318602491490192e+00 +2.2830847616725847e+00 +2.0926078002221246e+01 +2.3168538704203314e+02 -6.6185962715248519e+04 -5.9184837206386984e+05 +5.0613689949032080e+08 
-6.2999999999999936e+00 -1.0318595554186158e+00 +2.2833712875816663e+00 +2.0831273386266606e+01 +2.2136589071562653e+02 -6.4017472709712798e+04 -5.3060939600331860e+05 +4.9479945914429706e+08 
-6.3999999999999932e+00 -1.0318589041322939e+00 +2.2836540875867470e+00 +2.0739440081427588e+01 +2.1125116806498301e+02 -6.1874321068600708e+04 -4.7090009412488609e+05 +4.8347575221580386e+08 
-6.4999999999999929e+00 -1.0318583052816237e+00 +2.2839322874454737e+00 +2.0651226856971846e+01 +2.0134840467505381e+02 -5.9766928077291588e+04 -4.1278143830993574e+05 +4.7220866432757771e+08 
-6.5999999999999925e+00 -1.0318577688574897e+00 +2.2842050124308519e+00 +2.0567282394040863e+01 +1.9166480190253222e+02 -5.7705711937213091e+04 -3.5631449901343201e+05 +4.6104106962852079e+08 
-6.6999999999999922e+00 -1.0318573048500208e+00 +2.2844713873230917e+00 +2.0488255276487440e+01 +1.8220757717343830e+02 -5.5701088571620698e+04 -3.0156044726351718e+05 +4.5001582979619795e+08 
-6.7999999999999918e+00 -1.0318569232486392e+00 +2.2847305363899704e+00 +2.0414793996956305e+01 +1.7298396459880757e+02 -5.3763471729047538e+04 -2.4858055845984299e+05 +4.3917579447915941e+08 
-6.8999999999999915e+00 -1.0318566340419559e+00 +2.2849815833751892e+00 +2.0347546944616937e+01 +1.6400121538238528e+02 -5.1903272737369116e+04 -1.9743621502103502e+05 +4.2856380007248402e+08 
-6.9999999999999911e+00 -1.0318564472178227e+00 +2.2852236514841162e+00 +2.0287162411048296e+01 +1.5526659829075001e+02 -5.0130900601680391e+04 -1.4818890936232431e+05 +4.1822267013029647e+08 
-7.0999999999999908e+00 -1.0318563727632535e+00 +2.2854558633681021e+00 +2.0234288580316662e+01 +1.4678740016908708e+02 -4.8456761796579478e+04 -1.0090024716546641e+05 +4.0819521430501789e+08 
-7.1999999999999904e+00 -1.0318564206644316e+00 +2.2856773411013025e+00 +2.0189573530895728e+01 +1.3857092666959667e+02 -4.6891260294891617e+04 -5.5631951837224144e+04 +3.9852422844547737e+08 
-7.2999999999999901e+00 -1.0318566009066776e+00 +2.2858872061813691e+00 +2.0153665230758445e+01 +1.3062450230000638e+02 -4.5444797457626737e+04 -1.2445865087977947e+04 +3.8925249401129943e+08 
-7.3999999999999897e+00 -1.0318569234743620e+00 +2.2860845794981408e+00 +2.0127211526585526e+01 +1.2295547138245402e+02 -4.4127771810025042e+04 +2.8596047271901305e+04 +3.8042277693609279e+08 
-7.4999999999999893e+00 -1.0318573983508197e+00 +2.2862685812620391e+00 +2.0110860123682528e+01 +1.1557119980502402e+02 -4.2950578575101870e+04 +6.7431695950319830e+04 +3.7207782605947942e+08 
-7.5999999999999890e+00 -1.0318580325121849e+00 +2.2864387487620497e+00 +2.0105045526895402e+01 +1.0847043017873331e+02 -4.1920119544750516e+04 +1.0406723902423067e+05 +3.6424611990653759e+08 
-7.6999999999999886e+00 -1.0318588220703777e+00 +2.2865963408097052e+00 +2.0109475049505818e+01 +1.0161633963765476e+02 -4.1031850851298768e+04 +1.3877548233516715e+05 +3.5690935505169940e+08 
-7.7999999999999883e+00 -1.0318597606740672e+00 +2.2867430519759839e+00 +2.0123700016015238e+01 +9.4963152079534623e+01 -4.0278886759899870e+04 +1.7189467700222848e+05 +3.5003960002816039e+08 
-7.8999999999999879e+00 -1.0318608419732302e+00 +2.2868805769710332e+00 +2.0147271945500403e+01 +8.8465087012908100e+01 -3.9654345872088910e+04 +2.0376310689306448e+05 +3.4360894548431844e+08 
-7.9999999999999876e+00 -1.0318620596192254e+00 +2.2870106106349462e+00 +2.0179742560509755e+01 +8.2076360013672215e+01 -3.9151351308894715e+04 +2.3471908047039766e+05 +3.3758950555637276e+08 
-8.0999999999999872e+00 -1.0318634072648323e+00 +2.2871348479523546e+00 +2.0220663793695017e+01 +7.5751182250620715e+01 -3.8763030865285044e+04 +2.6510093376289826e+05 +3.3195341869030362e+08 
-8.1999999999999869e+00 -1.0318648785643232e+00 +2.2872549840603145e+00 +2.0269587798479758e+01 +6.9443760260751219e+01 -3.8482517244029463e+04 +2.9524703169433359e+05 +3.2667284885193026e+08 
-8.2999999999999865e+00 -1.0318664671735072e+00 +2.2873727142538027e+00 +2.0326066955273337e+01 +6.3108295758031971e+01 -3.8302948192553427e+04 +3.2549576933398924e+05 +3.2171998623422921e+08 
-8.3999999999999861e+00 -1.0318681667497791e+00 +2.2874897340026039e+00 +2.0389653878735206e+01 +5.6698985126226333e+01 -3.8217466666676475e+04 +3.5618557494847936e+05 +3.1706704811728358e+08 
-8.4999999999999858e+00 -1.0318699709521768e+00 +2.2876077389564387e+00 +2.0459901425552982e+01 +5.0170019239104199e+01 -3.8219221001480517e+04 +3.8765491117688111e+05 +3.1268627975453019e+08 
-8.5999999999999854e+00 -1.0318718734413765e+00 +2.2877284249635581e+00 +2.0536362695202804e+01 +4.3475582912496733e+01 -3.8301364949042116e+04 +4.2024227829330513e+05 +3.0854995462422574e+08 
-8.6999999999999851e+00 -1.0318738678798534e+00 +2.2878534880592718e+00 +2.0618591051753494e+01 +3.6569855209341725e+01 -3.8457058123279705e+04 +4.5428621254526736e+05 +3.0463037663780284e+08 
-8.7999999999999847e+00 -1.0318759479318340e+00 +2.2879846245000555e+00 +2.0706140118075847e+01 +2.9407008431450240e+01 -3.8679465907621743e+04 +4.9012529213794810e+05 +3.0089987975952238e+08 
-8.8999999999999844e+00 -1.0318781072633809e+00 +2.2881235307646994e+00 +2.0798563787929751e+01 +2.1941208061329025e+01 -3.8961759710899940e+04 +5.2809813766660576e+05 +2.9733082930300248e+08 
-8.9999999999999840e+00 -1.0318803395424319e+00 +2.2882719035567254e+00 +2.0895416231771996e+01 +1.4126612675952675e+01 -3.9297117102768119e+04 +5.6854341272347176e+05 +2.9389562265406275e+08 
-9.0999999999999837e+00 -1.0318826384388700e+00 +2.2884314398214607e+00 +2.0996251906918204e+01 +5.9173734264446223e+00 -3.9678722031655911e+04 +6.1179982703502662e+05 +2.9056669038581890e+08 
-9.1999999999999833e+00 -1.0318849976245545e+00 +2.2886038367574995e+00 +2.1100625562005288e+01 -2.7323663121508015e+00 -4.0099764931356542e+04 +6.5820613860045839e+05 +2.8731649683212948e+08 
-9.2999999999999829e+00 -1.0318874107733880e+00 +2.2887907918199906e+00 +2.1208092246988276e+01 -1.1868471052723789e+01 -4.0553442939915512e+04 +7.0810115441847476e+05 +2.8411754121924216e+08 
-9.3999999999999826e+00 -1.0318898715613438e+00 +2.2889940027370628e+00 +2.1318207317204539e+01 -2.1536813710062003e+01 -4.1032959994717850e+04 +7.6182373364797723e+05 +2.8094235817434871e+08 
-9.4999999999999822e+00 -1.0318923736667724e+00 +2.2892151676215304e+00 +2.1430526487802332e+01 -3.1783278922442850e+01 -4.1531528055677067e+04 +8.1971279926168127e+05 +2.7776352340320575e+08 
-9.5999999999999819e+00 -1.0318949116872020e+00 +2.2894555650809028e+00 +2.1544660450525484e+01 -4.2641780280047968e+01 -4.2043570434846552e+04 +8.8202301945591043e+05 +2.7456005008622640e+08 
-9.6999999999999815e+00 -1.0318974823015334e+00 +2.2897147297532996e+00 +2.1660264066388919e+01 -5.4093001970165041e+01 -4.2565264436140627e+04 +9.4863104156048677e+05 +2.7132453796983498e+08 
-9.7999999999999812e+00 -1.0319000823190283e+00 +2.2899917541960404e+00 +2.1776960838138734e+01 -6.6103066423795170e+01 -4.3092513987697959e+04 +1.0193070258315653e+06 +2.6805037561008757e+08 
-9.8999999999999808e+00 -1.0319027085479442e+00 +2.2902857316146004e+00 +2.1894374113073951e+01 -7.8638114629809522e+01 -4.3621220029315868e+04 +1.0938212244332824e+06 +2.6473093861266717e+08 
-9.9999999999999805e+00 -1.0319053577957871e+00 +2.2905957559016765e+00 +2.2012127117014487e+01 -9.1664309983794269e+01 -4.4147280922954436e+04 +1.1719440244496558e+06 +2.6135958953227535e+08 
-1.0099999999999980e+01 -1.0319080268692995e+00 +2.2909209216443909e+00 +2.2129842953019629e+01 -1.0514783853371603e+02 -4.4666592421891874e+04 +1.2534459493467170e+06 +2.5792967770201957e+08 
