# field on trajectory
# s[mm] rx[mm] ry[mm] rz[mm] bx[T] by[T] bz[T]
0.0000000000000000e+00 +9.0449999999999999e+00 +0.0000000000000000e+00 +0.0000000000000000e+00 +1.0984646772614463e-02 -1.0323269362468850e+00 -5.9193782153156752e-02
1.0000000000000001e-01 +9.0449994841933830e+00 +0.0000000000000000e+00 +9.9999999998226285e-02 +1.0984495312101456e-02 -1.0323282445928705e+00 -5.9192714941156598e-02
2.0000000000000001e-01 +9.0449979367726652e+00 +0.0000000000000000e+00 +1.9999999998581031e-01 +1.0984341093980349e-02 -1.0323295396404664e+00 -5.9191653448938911e-02
3.0000000000000004e-01 +9.0449953577365516e+00 +0.0000000000000000e+00 +2.9999999995210974e-01 +1.0984184589615101e-02 -1.0323308202378532e+00 -5.9190598091541979e-02
4.0000000000000002e-01 +9.0449917470837633e+00 +0.0000000000000000e+00 +3.9999999988648227e-01 +1.0984026270366163e-02 -1.0323320852330973e+00 -5.9189549284068513e-02
5.0000000000000000e-01 +9.0449871048130355e+00 +0.0000000000000000e+00 +4.9999999977828546e-01 +1.0983866607588438e-02 -1.0323333334741600e+00 -5.9188507441691580e-02
5.9999999999999998e-01 +9.0449814309231229e+00 +0.0000000000000000e+00 +5.9999999961687689e-01 +1.0983706043485197e-02 -1.0323345636151195e+00 -5.9187472850801698e-02
6.9999999999999996e-01 +9.0449747254127963e+00 +0.0000000000000000e+00 +6.9999999939161417e-01 +1.0983544903675785e-02 -1.0323357735348246e+00 -5.9186445282425643e-02
7.9999999999999993e-01 +9.0449669882808479e+00 +0.0000000000000000e+00 +7.9999999909185471e-01 +1.0983383484630710e-02 -1.0323369609183217e+00 -5.9185424378789722e-02
8.9999999999999991e-01 +9.0449582195260909e+00 +0.0000000000000000e+00 +8.9999999870695602e-01 +1.0983222082816525e-02 -1.0323381234506737e+00 -5.9184409782172695e-02
9.9999999999999989e-01 +9.0449484191473655e+00 +0.0000000000000000e+00 +9.9999999822627550e-01 +1.0983060994696198e-02 -1.0323392588169951e+00 -5.9183401134901281e-02
1.0999999999999999e+00 +9.0449375871435382e+00 +0.0000000000000000e+00 +1.0999999976391706e+00 +1.0982900516729538e-02 -1.0323403647024771e+00 -5.9182398079345583e-02
1.2000000000000000e+00 +9.0449257235135061e+00 +0.0000000000000000e+00 +1.1999999969349986e+00 +1.0982740945373576e-02 -1.0323414387924252e+00 -5.9181400257914810e-02
1.3000000000000000e+00 +9.0449128282561979e+00 +0.0000000000000000e+00 +1.2999999961031168e+00 +1.0982582577082947e-02 -1.0323424787722841e+00 -5.9180407313052470e-02
1.4000000000000001e+00 +9.0448989013705745e+00 +0.0000000000000000e+00 +1.3999999951328825e+00 +1.0982425708310300e-02 -1.0323434823276711e+00 -5.9179418887232070e-02
1.5000000000000002e+00 +9.0448839428556340e+00 +0.0000000000000000e+00 +1.4999999940136532e+00 +1.0982270635506683e-02 -1.0323444471444072e+00 -5.9178434622952580e-02
1.6000000000000003e+00 +9.0448679527104154e+00 +0.0000000000000000e+00 +1.5999999927347861e+00 +1.0982117655121934e-02 -1.0323453709085466e+00 -5.9177454162733852e-02
1.7000000000000004e+00 +9.0448509309339968e+00 +0.0000000000000000e+00 +1.6999999912856383e+00 +1.0981967063605083e-02 -1.0323462513064090e+00 -5.9176477149112262e-02
1.8000000000000005e+00 +9.0448328775255007e+00 +0.0000000000000000e+00 +1.7999999896555670e+00 +1.0981819157404734e-02 -1.0323470860246073e+00 -5.9175503224635988e-02
1.9000000000000006e+00 +9.0448137924840957e+00 +0.0000000000000000e+00 +1.8999999878339295e+00 +1.0981674232969463e-02 -1.0323478727500834e+00 -5.9174532031860752e-02
2.0000000000000004e+00 +9.0447936758089966e+00 +0.0000000000000000e+00 +1.9999999858100830e+00 +1.0981532586748234e-02 -1.0323486091701330e+00 -5.9173563213345180e-02
2.1000000000000005e+00 +9.0447725274994699e+00 +0.0000000000000000e+00 +2.0999999835733845e+00 +1.0981394515190744e-02 -1.0323492929724409e+00 -5.9172596411646315e-02
2.2000000000000006e+00 +9.0447503475548352e+00 +0.0000000000000000e+00 +2.1999999811131912e+00 +1.0981260314747871e-02 -1.0323499218451098e+00 -5.9171631269315135e-02
2.3000000000000007e+00 +9.0447271359744672e+00 +0.0000000000000000e+00 +2.2999999784188603e+00 +1.0981130281872014e-02 -1.0323504934766907e+00 -5.9170667428892064e-02
2.4000000000000008e+00 +9.0447028927577975e+00 +0.0000000000000000e+00 +2.3999999754797492e+00 +1.0981004713017545e-02 -1.0323510055562148e+00 -5.9169704532902469e-02
2.5000000000000009e+00 +9.0446776179043162e+00 +0.0000000000000000e+00 +2.4999999722852144e+00 +1.0980883904641159e-02 -1.0323514557732234e+00 -5.9168742223852155e-02
2.6000000000000010e+00 +9.0446513114135758e+00 +0.0000000000000000e+00 +2.5999999688246138e+00 +1.0980768025045690e-02 -1.0323518439984130e+00 -5.9167780205239190e-02
2.7000000000000011e+00 +9.0446239732851907e+00 +0.0000000000000000e+00 +2.6999999650873039e+00 +1.0980656729907189e-02 -1.0323521788254730e+00 -5.9166818424617844e-02
2.8000000000000012e+00 +9.0445956035188289e+00 +0.0000000000000000e+00 +2.7999999610626420e+00 +1.0980549546739412e-02 -1.0323524710291938e+00 -5.9165856890581285e-02
2.9000000000000012e+00 +9.0445662021142006e+00 +0.0000000000000000e+00 +2.8999999567399857e+00 +1.0980446003049397e-02 -1.0323527313848562e+00 -5.9164895611750645e-02
3.0000000000000013e+00 +9.0445357690710466e+00 +0.0000000000000000e+00 +2.9999999521086917e+00 +1.0980345626336959e-02 -1.0323529706682513e+00 -5.9163934596775984e-02
3.1000000000000014e+00 +9.0445043043891307e+00 +0.0000000000000000e+00 +3.0999999471581172e+00 +1.0980247944094221e-02 -1.0323531996556998e+00 -5.9162973854337268e-02
3.2000000000000015e+00 +9.0444718080682271e+00 +0.0000000000000000e+00 +3.1999999418776190e+00 +1.0980152483805090e-02 -1.0323534291240686e+00 -5.9162013393145287e-02
3.3000000000000016e+00 +9.0444382801081087e+00 +0.0000000000000000e+00 +3.2999999362565551e+00 +1.0980058772944791e-02 -1.0323536698507931e+00 -5.9161053221942636e-02
3.4000000000000017e+00 +9.0444037205085372e+00 +0.0000000000000000e+00 +3.3999999302842818e+00 +1.0979966338979364e-02 -1.0323539326138957e+00 -5.9160093349504728e-02
3.5000000000000018e+00 +9.0443681292692535e+00 +0.0000000000000000e+00 +3.4999999239501567e+00 +1.0979874709365164e-02 -1.0323542281920000e+00 -5.9159133784640668e-02
3.6000000000000019e+00 +9.0443315063899643e+00 +0.0000000000000000e+00 +3.5999999172435366e+00 +1.0979783411548382e-02 -1.0323545673643559e+00 -5.9158174536194166e-02
3.7000000000000020e+00 +9.0442938518703357e+00 +0.0000000000000000e+00 +3.6999999101537786e+00 +1.0979691972964532e-02 -1.0323549609108564e+00 -5.9157215613044704e-02
3.8000000000000020e+00 +9.0442551657099752e+00 +0.0000000000000000e+00 +3.7999999026702400e+00 +1.0979599921037978e-02 -1.0323554196120546e+00 -5.9156257024108261e-02
3.9000000000000021e+00 +9.0442154479084280e+00 +0.0000000000000000e+00 +3.8999998947822774e+00 +1.0979506783181435e-02 -1.0323559542491858e+00 -5.9155298778338347e-02
4.0000000000000018e+00 +9.0441746984651648e+00 +0.0000000000000000e+00 +3.9999998864792481e+00 +1.0979412086795462e-02 -1.0323565756041839e+00 -5.9154340884727062e-02
4.1000000000000014e+00 +9.0441329173795673e+00 +0.0000000000000000e+00 +4.0999998777505091e+00 +1.0979315359267985e-02 -1.0323572944597019e+00 -5.9153383352305834e-02
4.2000000000000011e+00 +9.0440901046509197e+00 +0.0000000000000000e+00 +4.1999998685854170e+00 +1.0979216127973791e-02 -1.0323581215991313e+00 -5.9152426190146566e-02
4.3000000000000007e+00 +9.0440462602783995e+00 +0.0000000000000000e+00 +4.2999998589733277e+00 +1.0979113920274041e-02 -1.0323590678066192e+00 -5.9151469407362475e-02
4.4000000000000004e+00 +9.0440013842610654e+00 +0.0000000000000000e+00 +4.3999998489035992e+00 +1.0979008263515774e-02 -1.0323601438670882e+00 -5.9150513013109064e-02
4.5000000000000000e+00 +9.0439554765978460e+00 +0.0000000000000000e+00 +4.4999998383655875e+00 +1.0978898685031416e-02 -1.0323613605662580e+00 -5.9149557016585107e-02
4.5999999999999996e+00 +9.0439085372875283e+00 +0.0000000000000000e+00 +4.5999998273486495e+00 +1.0978784931285099e-02 -1.0323627258032388e+00 -5.9148601506576609e-02
4.6999999999999993e+00 +9.0438605663287550e+00 +0.0000000000000000e+00 +4.6999998158421405e+00 +1.0978667625310011e-02 -1.0323642359281016e+00 -5.9147646890074561e-02
4.7999999999999989e+00 +9.0438115637200216e+00 +0.0000000000000000e+00 +4.7999998038354184e+00 +1.0978547609252752e-02 -1.0323658844039485e+00 -5.9146693653620575e-02
4.8999999999999986e+00 +9.0437615294596867e+00 +0.0000000000000000e+00 +4.8999997913178381e+00 +1.0978425725221086e-02 -1.0323676646943274e+00 -5.9145742283758289e-02
4.9999999999999982e+00 +9.0437104635459775e+00 +0.0000000000000000e+00 +4.9999997782787560e+00 +1.0978302815282360e-02 -1.0323695702632310e+00 -5.9144793267032085e-02
5.0999999999999979e+00 +9.0436583659769969e+00 +0.0000000000000000e+00 +5.0999997647075279e+00 +1.0978179721461860e-02 -1.0323715945750906e+00 -5.9143847089985865e-02
5.1999999999999975e+00 +9.0436052367507251e+00 +0.0000000000000000e+00 +5.1999997505935101e+00 +1.0978057285741248e-02 -1.0323737310947796e+00 -5.9142904239161638e-02
5.2999999999999972e+00 +9.0435510758650359e+00 +0.0000000000000000e+00 +5.2999997359260576e+00 +1.0977936350056908e-02 -1.0323759732876050e+00 -5.9141965201098254e-02
5.3999999999999968e+00 +9.0434958833176946e+00 +0.0000000000000000e+00 +5.3999997206945265e+00 +1.0977817756298388e-02 -1.0323783146193104e+00 -5.9141030462330234e-02
5.4999999999999964e+00 +9.0434396591063670e+00 +0.0000000000000000e+00 +5.4999997048882721e+00 +1.0977702346306743e-02 -1.0323807485560692e+00 -5.9140100509386194e-02
5.5999999999999961e+00 +9.0433824032286267e+00 +0.0000000000000000e+00 +5.5999996884966494e+00 +1.0977590961872950e-02 -1.0323832685644849e+00 -5.9139175828787825e-02
5.6999999999999957e+00 +9.0433241156819637e+00 +0.0000000000000000e+00 +5.6999996715090138e+00 +1.0977484444736311e-02 -1.0323858681115896e+00 -5.9138256907048443e-02
5.7999999999999954e+00 +9.0432647964637862e+00 +0.0000000000000000e+00 +5.7999996539147203e+00 +1.0977383636582815e-02 -1.0323885406648377e+00 -5.9137344230671671e-02
5.8999999999999950e+00 +9.0432044455714315e+00 +0.0000000000000000e+00 +5.8999996357031241e+00 +1.0977289379043553e-02 -1.0323912796921062e+00 -5.9136438286150221e-02
5.9999999999999947e+00 +9.0431430630021676e+00 +0.0000000000000000e+00 +5.9999996168635796e+00 +1.0977202513693083e-02 -1.0323940786616939e+00 -5.9135539559964520e-02
6.0999999999999943e+00 +9.0430806487532056e+00 +0.0000000000000000e+00 +6.0999995973854420e+00 +1.0977123882047860e-02 -1.0323969310423142e+00 -5.9134648538581427e-02
6.1999999999999940e+00 +9.0430172028217015e+00 +0.0000000000000000e+00 +6.1999995772580654e+00 +1.0977054325564572e-02 -1.0323998303030975e+00 -5.9133765708452982e-02
6.2999999999999936e+00 +9.0429527252047670e+00 +0.0000000000000000e+00 +6.2999995564708042e+00 +1.0976994685638571e-02 -1.0324027699135863e+00 -5.9132891556014942e-02
6.3999999999999932e+00 +9.0428872158994711e+00 +0.0000000000000000e+00 +6.3999995350130128e+00 +1.0976945803602247e-02 -1.0324057433437317e+00 -5.9132026567685694e-02
6.4999999999999929e+00 +9.0428206749028490e+00 +0.0000000000000000e+00 +6.4999995128740453e+00 +1.0976908520723418e-02 -1.0324087440638954e+00 -5.9131171229864742e-02
6.5999999999999925e+00 +9.0427531022119112e+00 +0.0000000000000000e+00 +6.5999994900432561e+00 +1.0976883316388070e-02 -1.0324117648841051e+00 -5.9130325893862690e-02
6.6999999999999922e+00 +9.0426844978236449e+00 +0.0000000000000000e+00 +6.6999994665099996e+00 +1.0976869222677961e-02 -1.0324147959718752e+00 -5.9129490370663333e-02
6.7999999999999918e+00 +9.0426148617350304e+00 +0.0000000000000000e+00 +6.7999994422636290e+00 +1.0976864909911611e-02 -1.0324178268345447e+00 -5.9128664336093359e-02
6.8999999999999915e+00 +9.0425441939430478e+00 +0.0000000000000000e+00 +6.8999994172934986e+00 +1.0976869048485853e-02 -1.0324208469800580e+00 -5.9127847465886153e-02
6.9999999999999911e+00 +9.0424724944446879e+00 +0.0000000000000000e+00 +6.9999993915889611e+00 +1.0976880308879524e-02 -1.0324238459169661e+00 -5.9127039435677951e-02
7.0999999999999908e+00 +9.0423997632369613e+00 +0.0000000000000000e+00 +7.0999993651393716e+00 +1.0976897361657236e-02 -1.0324268131544339e+00 -5.9126239921004083e-02
7.1999999999999904e+00 +9.0423260003169119e+00 +0.0000000000000000e+00 +7.1999993379340825e+00 +1.0976918877473077e-02 -1.0324297382022463e+00 -5.9125448597295287e-02
7.2999999999999901e+00 +9.0422512056816249e+00 +0.0000000000000000e+00 +7.2999993099624474e+00 +1.0976943527074361e-02 -1.0324326105708108e+00 -5.9124665139873897e-02
7.3999999999999897e+00 +9.0421753793282384e+00 +0.0000000000000000e+00 +7.3999992812138204e+00 +1.0976969981305375e-02 -1.0324354197711649e+00 -5.9123889223950128e-02
7.4999999999999893e+00 +9.0420985212539549e+00 +0.0000000000000000e+00 +7.4999992516775542e+00 +1.0976996911111101e-02 -1.0324381553149804e+00 -5.9123120524618315e-02
7.5999999999999890e+00 +9.0420206314560492e+00 +0.0000000000000000e+00 +7.5999992213430030e+00 +1.0977022987540970e-02 -1.0324408067145672e+00 -5.9122358716853181e-02
7.6999999999999886e+00 +9.0419417099318817e+00 +0.0000000000000000e+00 +7.6999991901995202e+00 +1.0977046881752583e-02 -1.0324433634828822e+00 -5.9121603475506122e-02
7.7999999999999883e+00 +9.0418617566789070e+00 +0.0000000000000000e+00 +7.7999991582364583e+00 +1.0977067265015471e-02 -1.0324458151335310e+00 -5.9120854475301361e-02
7.8999999999999879e+00 +9.0417807716946825e+00 +0.0000000000000000e+00 +7.8999991254431707e+00 +1.0977082808714837e-02 -1.0324481511807753e+00 -5.9120111390832376e-02
7.9999999999999876e+00 +9.0416987549768848e+00 +0.0000000000000000e+00 +7.9999990918090118e+00 +1.0977092184355278e-02 -1.0324503611395381e+00 -5.9119373896558053e-02
8.0999999999999872e+00 +9.0416157065233147e+00 +0.0000000000000000e+00 +8.0999990573233340e+00 +1.0977094063564560e-02 -1.0324524345254069e+00 -5.9118641666798963e-02
8.1999999999999869e+00 +9.0415316263319099e+00 +0.0000000000000000e+00 +8.1999990219754917e+00 +1.0977087118097332e-02 -1.0324543608546430e+00 -5.9117914375733646e-02
8.2999999999999865e+00 +9.0414465144007554e+00 +0.0000000000000000e+00 +8.2999989857548382e+00 +1.0977070019838907e-02 -1.0324561296441823e+00 -5.9117191697394947e-02
8.3999999999999861e+00 +9.0413603707280945e+00 +0.0000000000000000e+00 +8.3999989486507260e+00 +1.0977041440808992e-02 -1.0324577304116447e+00 -5.9116473305666231e-02
8.4999999999999858e+00 +9.0412731953123373e+00 +0.0000000000000000e+00 +8.4999989106525096e+00 +1.0977000053165421e-02 -1.0324591526753362e+00 -5.9115758874277620e-02
8.5999999999999854e+00 +9.0411849881520716e+00 +0.0000000000000000e+00 +8.5999988717495430e+00 +1.0976945015854974e-02 -1.0324603884230241e+00 -5.9115048244361722e-02
8.6999999999999851e+00 +9.0410957492460717e+00 +0.0000000000000000e+00 +8.6999988319311790e+00 +1.0976877434540113e-02 -1.0324614395177678e+00 -5.9114341927221446e-02
8.7999999999999847e+00 +9.0410054785932967e+00 +0.0000000000000000e+00 +8.7999987911867734e+00 +1.0976798901483628e-02 -1.0324623102900459e+00 -5.9113640601765521e-02
8.8999999999999844e+00 +9.0409141761928851e+00 +0.0000000000000000e+00 +8.8999987495056789e+00 +1.0976711008846373e-02 -1.0324630050685757e+00 -5.9112944946958457e-02
8.9999999999999840e+00 +9.0408218420441528e+00 +0.0000000000000000e+00 +8.9999987068772516e+00 +1.0976615348683882e-02 -1.0324635281802446e+00 -5.9112255641822799e-02
9.0999999999999837e+00 +9.0407284761465867e+00 +0.0000000000000000e+00 +9.0999986632908438e+00 +1.0976513512942966e-02 -1.0324638839500493e+00 -5.9111573365441678e-02
9.1999999999999833e+00 +9.0406340784998402e+00 +0.0000000000000000e+00 +9.1999986187358118e+00 +1.0976407093458358e-02 -1.0324640767010311e+00 -5.9110898796961277e-02
9.2999999999999829e+00 +9.0405386491037305e+00 +0.0000000000000000e+00 +9.2999985732015098e+00 +1.0976297681949314e-02 -1.0324641107542145e+00 -5.9110232615593179e-02
9.3999999999999826e+00 +9.0404421879582326e+00 +0.0000000000000000e+00 +9.3999985266772921e+00 +1.0976186870016223e-02 -1.0324639904285404e+00 -5.9109575500616886e-02
9.4999999999999822e+00 +9.0403446950634780e+00 +0.0000000000000000e+00 +9.4999984791525147e+00 +1.0976076249137228e-02 -1.0324637200408051e+00 -5.9108928131382243e-02
9.5999999999999819e+00 +9.0402461704197474e+00 +0.0000000000000000e+00 +9.5999984306165320e+00 +1.0975967410664813e-02 -1.0324633039055964e+00 -5.9108291187311784e-02
9.6999999999999815e+00 +9.0401466140274653e+00 +0.0000000000000000e+00 +9.6999983810587000e+00 +1.0975861945822439e-02 -1.0324627463352301e+00 -5.9107665347903370e-02
9.7999999999999812e+00 +9.0400460258872002e+00 +0.0000000000000000e+00 +9.7999983304683731e+00 +1.0975761445701124e-02 -1.0324620516396856e+00 -5.9107051292732450e-02
9.8999999999999808e+00 +9.0399444059996554e+00 +0.0000000000000000e+00 +9.8999982788349090e+00 +1.0975667501256055e-02 -1.0324612241265438e+00 -5.9106449701454469e-02
9.9999999999999805e+00 +9.0398417543656695e+00 +0.0000000000000000e+00 +9.9999982261476621e+00 +1.0975581703303179e-02 -1.0324602681009227e+00 -5.9105861253807485e-02
1.0099999999999980e+01 +9.0397380709862070e+00 +0.0000000000000000e+00 +1.0099998172395988e+01 +1.0975505642515808e-02 -1.0324591878654152e+00 -5.9105286629614458e-02
1.0199999999999980e+01 +9.0396333558623585e+00 +0.0000000000000000e+00 +1.0199998117569244e+01 +1.0975440909421208e-02 -1.0324579877200231e+00 -5.9104726508785711e-02
1.0299999999999979e+01 +9.0395276089953356e+00 +0.0000000000000000e+00 +1.0299998061656785e+01 +1.0975389094397185e-02 -1.0324566719620962e+00 -5.9104181571321308e-02
1.0399999999999979e+01 +9.0394208303864634e+00 +0.0000000000000000e+00 +1.0399998004647969e+01 +1.0975351787668694e-02 -1.0324552448862678e+00 -5.9103652497313586e-02
1.0499999999999979e+01 +9.0393130200371772e+00 +0.0000000000000000e+00 +1.0499997946532151e+01 +1.0975330579304410e-02 -1.0324537107843919e+00 -5.9103139966949499e-02
1.0599999999999978e+01 +9.0392041779490224e+00 +0.0000000000000000e+00 +1.0599997887298690e+01 +1.0975326512470069e-02 -1.0324520737131766e+00 -5.9102644443006870e-02
1.0699999999999978e+01 +9.0390943041236476e+00 +0.0000000000000000e+00 +1.0699997826936940e+01 +1.0975338443150731e-02 -1.0324503367989482e+00 -5.9102165518303072e-02
1.0799999999999978e+01 +9.0389833985627988e+00 +0.0000000000000000e+00 +1.0799997765436260e+01 +1.0975364680605015e-02 -1.0324485029377104e+00 -5.9101702568276314e-02
1.0899999999999977e+01 +9.0388714612683199e+00 +0.0000000000000000e+00 +1.0899997702786006e+01 +1.0975403534200942e-02 -1.0324465750279819e+00 -5.9101254968526938e-02
1.0999999999999977e+01 +9.0387584922421489e+00 +0.0000000000000000e+00 +1.0999997638975538e+01 +1.0975453313418980e-02 -1.0324445559708577e+00 -5.9100822094821252e-02
1.1099999999999977e+01 +9.0386444914863162e+00 +0.0000000000000000e+00 +1.1099997573994212e+01 +1.0975512327855074e-02 -1.0324424486700681e+00 -5.9100403323095213e-02
1.1199999999999976e+01 +9.0385294590029392e+00 +0.0000000000000000e+00 +1.1199997507831386e+01 +1.0975578887223688e-02 -1.0324402560320456e+00 -5.9099998029458187e-02
1.1299999999999976e+01 +9.0384133947942207e+00 +0.0000000000000000e+00 +1.1299997440476417e+01 +1.0975651301360852e-02 -1.0324379809659834e+00 -5.9099605590196641e-02
1.1399999999999975e+01 +9.0382962988624467e+00 +0.0000000000000000e+00 +1.1399997371918664e+01 +1.0975727880227219e-02 -1.0324356263838999e+00 -5.9099225381777962e-02
1.1499999999999975e+01 +9.0381781712099816e+00 +0.0000000000000000e+00 +1.1499997302147484e+01 +1.0975806933911106e-02 -1.0324331952006995e+00 -5.9098856780854192e-02
1.1599999999999975e+01 +9.0380590118392679e+00 +0.0000000000000000e+00 +1.1599997231152237e+01 +1.0975886772631572e-02 -1.0324306903342366e+00 -5.9098499164265697e-02
1.1699999999999974e+01 +9.0379388207528208e+00 +0.0000000000000000e+00 +1.1699997158922281e+01 +1.0975965706741454e-02 -1.0324281147053755e+00 -5.9098151909045007e-02
1.1799999999999974e+01 +9.0378175979532269e+00 +0.0000000000000000e+00 +1.1799997085446975e+01 +1.0976042046730443e-02 -1.0324254712380525e+00 -5.9097814392420379e-02
