# trajectory
# s[mm] rx[mm] ry[mm] rz[mm] px[rad] py[rad] pz[rad]
0.0000000000000000e+00 +9.1013000000000002e+00 +0.0000000000000000e+00 +0.0000000000000000e+00 +0.0000000000000000e+00 +0.0000000000000000e+00 +1.0000000000000000e+00
1.0000000000000001e-01 +9.1012994837738344e+00 +0.0000000000000000e+00 +9.9999999998223399e-02 -1.0324525250555631e-05 +0.0000000000000000e+00 +9.9999999994670208e-01
2.0000000000000001e-01 +9.1012979350945677e+00 +0.0000000000000000e+00 +1.9999999998578721e-01 -2.0649061961729433e-05 +0.0000000000000000e+00 +9.9999999978680809e-01
3.0000000000000004e-01 +9.1012953539610777e+00 +0.0000000000000000e+00 +2.9999999995203180e-01 -3.0973609619945565e-05 +0.0000000000000000e+00 +9.9999999952031771e-01
4.0000000000000002e-01 +9.1012917403722984e+00 +0.0000000000000000e+00 +3.9999999988629753e-01 -4.1298167652398796e-05 +0.0000000000000000e+00 +9.9999999914723059e-01
5.0000000000000000e-01 +9.1012870943272226e+00 +0.0000000000000000e+00 +4.9999999977792470e-01 -5.1622735427060228e-05 +0.0000000000000000e+00 +9.9999999866754652e-01
5.9999999999999998e-01 +9.1012814158249107e+00 +0.0000000000000000e+00 +5.9999999961625361e-01 -6.1947312254248142e-05 +0.0000000000000000e+00 +9.9999999808126516e-01
6.9999999999999996e-01 +9.1012747048644940e+00 +0.0000000000000000e+00 +6.9999999939062452e-01 -7.2271897403838076e-05 +0.0000000000000000e+00 +9.9999999738838630e-01
7.9999999999999993e-01 +9.1012669614451767e+00 +0.0000000000000000e+00 +7.9999999909037767e-01 -8.2596490122470963e-05 +0.0000000000000000e+00 +9.9999999658890981e-01
8.9999999999999991e-01 +9.1012581855662429e+00 +0.0000000000000000e+00 +8.9999999870485325e-01 -9.2921089635121022e-05 +0.0000000000000000e+00 +9.9999999568283549e-01
9.9999999999999989e-01 +9.1012483772270496e+00 +0.0000000000000000e+00 +9.9999999822339147e-01 -1.0324569514509908e-04 +0.0000000000000000e+00 +9.9999999467016309e-01
1.0999999999999999e+00 +9.1012375364270408e+00 +0.0000000000000000e+00 +1.0999999976353325e+00 -1.1357030583405518e-04 +0.0000000000000000e+00 +9.9999999355089264e-01
1.2000000000000000e+00 +9.1012256631657387e+00 +0.0000000000000000e+00 +1.1999999969300166e+00 -1.2389492086198057e-04 +0.0000000000000000e+00 +9.9999999232502412e-01
1.3000000000000000e+00 +9.1012127574427524e+00 +0.0000000000000000e+00 +1.2999999960967838e+00 -1.3421953936720895e-04 +0.0000000000000000e+00 +9.9999999099255743e-01
1.4000000000000001e+00 +9.1011988192577782e+00 +0.0000000000000000e+00 +1.3999999951249746e+00 -1.4454416046641709e-04 +0.0000000000000000e+00 +9.9999998955349267e-01
1.5000000000000002e+00 +9.1011838486106029e+00 +0.0000000000000000e+00 +1.4999999940039290e+00 -1.5486878325462471e-04 +0.0000000000000000e+00 +9.9999998800782985e-01
1.6000000000000003e+00 +9.1011678455011022e+00 +0.0000000000000000e+00 +1.5999999927229873e+00 -1.6519340680519375e-04 +0.0000000000000000e+00 +9.9999998635556897e-01
1.7000000000000004e+00 +9.1011508099292477e+00 +0.0000000000000000e+00 +1.6999999912714896e+00 -1.7551803016982689e-04 +0.0000000000000000e+00 +9.9999998459671036e-01
1.8000000000000005e+00 +9.1011327418951069e+00 +0.0000000000000000e+00 +1.7999999896387762e+00 -1.8584265237856548e-04 +0.0000000000000000e+00 +9.9999998273125401e-01
1.9000000000000006e+00 +9.1011136413988432e+00 +0.0000000000000000e+00 +1.8999999878141871e+00 -1.9616727243978668e-04 +0.0000000000000000e+00 +9.9999998075920027e-01
2.0000000000000004e+00 +9.1010935084407230e+00 +0.0000000000000000e+00 +1.9999999857870630e+00 -2.0649188934020006e-04 +0.0000000000000000e+00 +9.9999997868054946e-01
2.1000000000000005e+00 +9.1010723430211140e+00 +0.0000000000000000e+00 +2.0999999835467440e+00 -2.1681650204484335e-04 +0.0000000000000000e+00 +9.9999997649530181e-01
2.2000000000000006e+00 +9.1010501451404888e+00 +0.0000000000000000e+00 +2.1999999810825703e+00 -2.2714110949707768e-04 +0.0000000000000000e+00 +9.9999997420345776e-01
2.3000000000000007e+00 +9.1010269147994265e+00 +0.0000000000000000e+00 +2.2999999783838825e+00 -2.3746571061858198e-04 +0.0000000000000000e+00 +9.9999997180501765e-01
2.4000000000000008e+00 +9.1010026519986127e+00 +0.0000000000000000e+00 +2.3999999754400210e+00 -2.4779030430934688e-04 +0.0000000000000000e+00 +9.9999996929998203e-01
2.5000000000000009e+00 +9.1009773567388486e+00 +0.0000000000000000e+00 +2.4999999722403259e+00 -2.5811488944766774e-04 +0.0000000000000000e+00 +9.9999996668835134e-01
2.6000000000000010e+00 +9.1009510290210454e+00 +0.0000000000000000e+00 +2.5999999687741382e+00 -2.6843946489513290e-04 +0.0000000000000000e+00 +9.9999996397012614e-01
2.7000000000000011e+00 +9.1009236688462281e+00 +0.0000000000000000e+00 +2.6999999650307980e+00 -2.7876402955156863e-04 +0.0000000000000000e+00 +9.9999996114530709e-01
2.8000000000000012e+00 +9.1008952762155282e+00 +0.0000000000000000e+00 +2.7999999609996462e+00 -2.8908858240998586e-04 +0.0000000000000000e+00 +9.9999995821389487e-01
2.9000000000000012e+00 +9.1008658511301697e+00 +0.0000000000000000e+00 +2.8999999566700239e+00 -2.9941312256157092e-04 +0.0000000000000000e+00 +9.9999995517589002e-01
3.0000000000000013e+00 +9.1008353935914652e+00 +0.0000000000000000e+00 +2.9999999520312715e+00 -3.0973764919568010e-04 +0.0000000000000000e+00 +9.9999995203129322e-01
3.1000000000000014e+00 +9.1008039036008039e+00 +0.0000000000000000e+00 +3.0999999470727295e+00 -3.2006216159983424e-04 +0.0000000000000000e+00 +9.9999994878010512e-01
3.2000000000000015e+00 +9.1007713811596407e+00 +0.0000000000000000e+00 +3.1999999417837395e+00 -3.3038665915971271e-04 +0.0000000000000000e+00 +9.9999994542232629e-01
3.3000000000000016e+00 +9.1007378262694854e+00 +0.0000000000000000e+00 +3.2999999361536418e+00 -3.4071114135914731e-04 +0.0000000000000000e+00 +9.9999994195795749e-01
3.4000000000000017e+00 +9.1007032389318958e+00 +0.0000000000000000e+00 +3.3999999301717780e+00 -3.5103560778011592e-04 +0.0000000000000000e+00 +9.9999993838699919e-01
3.5000000000000018e+00 +9.1006676191484672e+00 +0.0000000000000000e+00 +3.4999999238274890e+00 -3.6136005810273575e-04 +0.0000000000000000e+00 +9.9999993470945214e-01
3.6000000000000019e+00 +9.1006309669208196e+00 +0.0000000000000000e+00 +3.5999999171101158e+00 -3.7168449210525634e-04 +0.0000000000000000e+00 +9.9999993092531680e-01
3.7000000000000020e+00 +9.1005932822505944e+00 +0.0000000000000000e+00 +3.6999999100089997e+00 -3.8200890966405223e-04 +0.0000000000000000e+00 +9.9999992703459384e-01
3.8000000000000020e+00 +9.1005545651394364e+00 +0.0000000000000000e+00 +3.7999999025134819e+00 -3.9233331075361563e-04 +0.0000000000000000e+00 +9.9999992303728369e-01
3.9000000000000021e+00 +9.1005148155889906e+00 +0.0000000000000000e+00 +3.8999998946129035e+00 -4.0265769544654833e-04 +0.0000000000000000e+00 +9.9999991893338691e-01
4.0000000000000018e+00 +9.1004740336008876e+00 +0.0000000000000000e+00 +3.9999998862966062e+00 -4.1298206391355370e-04 +0.0000000000000000e+00 +9.9999991472290384e-01
4.1000000000000014e+00 +9.1004322191767386e+00 +0.0000000000000000e+00 +4.0999998775539312e+00 -4.2330641642342832e-04 +0.0000000000000000e+00 +9.9999991040583491e-01
4.2000000000000011e+00 +9.1003893723181228e+00 +0.0000000000000000e+00 +4.1999998683742206e+00 -4.3363075334305326e-04 +0.0000000000000000e+00 +9.9999990598218047e-01
4.3000000000000007e+00 +9.1003454930265750e+00 +0.0000000000000000e+00 +4.2999998587468147e+00 -4.4395507513738514e-04 +0.0000000000000000e+00 +9.9999990145194073e-01
4.4000000000000004e+00 +9.1003005813035802e+00 +0.0000000000000000e+00 +4.3999998486610554e+00 -4.5427938236944690e-04 +0.0000000000000000e+00 +9.9999989681511603e-01
4.5000000000000000e+00 +9.1002546371505630e+00 +0.0000000000000000e+00 +4.4999998381062847e+00 -4.6460367570031819e-04 +0.0000000000000000e+00 +9.9999989207170636e-01
4.5999999999999996e+00 +9.1002076605688771e+00 +0.0000000000000000e+00 +4.5999998270718434e+00 -4.7492795588233730e-04 +0.0000000000000000e+00 +9.9999988722171196e-01
4.6999999999999993e+00 +9.1001596515597978e+00 +0.0000000000000000e+00 +4.6999998155470735e+00 -4.8525222368441982e-04 +0.0000000000000000e+00 +9.9999988226513270e-01
4.7999999999999989e+00 +9.1001106101245277e+00 +0.0000000000000000e+00 +4.7999998035213167e+00 -4.9557647981738142e-04 +0.0000000000000000e+00 +9.9999987720196870e-01
4.8999999999999986e+00 +9.1000605362642020e+00 +0.0000000000000000e+00 +4.8999997909839141e+00 -5.0590072492714727e-04 +0.0000000000000000e+00 +9.9999987203221996e-01
4.9999999999999982e+00 +9.1000094299798917e+00 +0.0000000000000000e+00 +4.9999997779242076e+00 -5.1622495959475015e-04 +0.0000000000000000e+00 +9.9999986675588659e-01
5.0999999999999979e+00 +9.0999572912726148e+00 +0.0000000000000000e+00 +5.0999997643315389e+00 -5.2654918433632861e-04 +0.0000000000000000e+00 +9.9999986137296859e-01
5.1999999999999975e+00 +9.0999041201433410e+00 +0.0000000000000000e+00 +5.1999997501952491e+00 -5.3687339960312565e-04 +0.0000000000000000e+00 +9.9999985588346596e-01
5.2999999999999972e+00 +9.0998499165929978e+00 +0.0000000000000000e+00 +5.2999997355046791e+00 -5.4719760578148728e-04 +0.0000000000000000e+00 +9.9999985028737881e-01
5.3999999999999968e+00 +9.0997946806224768e+00 +0.0000000000000000e+00 +5.3999997202491716e+00 -5.5752180319286102e-04 +0.0000000000000000e+00 +9.9999984458470736e-01
5.4999999999999964e+00 +9.0997384122326430e+00 +0.0000000000000000e+00 +5.4999997044180677e+00 -5.6784599209379523e-04 +0.0000000000000000e+00 +9.9999983877545162e-01
5.5999999999999961e+00 +9.0996811114243350e+00 +0.0000000000000000e+00 +5.5999996880007092e+00 -5.7817017267593781e-04 +0.0000000000000000e+00 +9.9999983285961169e-01
5.6999999999999957e+00 +9.0996227781983805e+00 +0.0000000000000000e+00 +5.6999996709864371e+00 -5.8849434506603570e-04 +0.0000000000000000e+00 +9.9999982683718791e-01
5.7999999999999954e+00 +9.0995634125555931e+00 +0.0000000000000000e+00 +5.7999996533645941e+00 -5.9881850932593428e-04 +0.0000000000000000e+00 +9.9999982070818039e-01
5.8999999999999950e+00 +9.0995030144967863e+00 +0.0000000000000000e+00 +5.8999996351245212e+00 -6.0914266545257685e-04 +0.0000000000000000e+00 +9.9999981447258934e-01
5.9999999999999947e+00 +9.0994415840227756e+00 +0.0000000000000000e+00 +5.9999996162555593e+00 -6.1946681337800443e-04 +0.0000000000000000e+00 +9.9999980813041511e-01
6.0999999999999943e+00 +9.0993791211343886e+00 +0.0000000000000000e+00 +6.0999995967470513e+00 -6.2979095296935564e-04 +0.0000000000000000e+00 +9.9999980168165803e-01
6.1999999999999940e+00 +9.0993156258324674e+00 +0.0000000000000000e+00 +6.1999995765883380e+00 -6.4011508402886657e-04 +0.0000000000000000e+00 +9.9999979512631854e-01
6.2999999999999936e+00 +9.0992510981178771e+00 +0.0000000000000000e+00 +6.2999995557687622e+00 -6.5043920629387136e-04 +0.0000000000000000e+00 +9.9999978846439697e-01
6.3999999999999932e+00 +9.0991855379915130e+00 +0.0000000000000000e+00 +6.3999995342776650e+00 -6.6076331943680229e-04 +0.0000000000000000e+00 +9.9999978169589387e-01
6.4999999999999929e+00 +9.0991189454543075e+00 +0.0000000000000000e+00 +6.4999995121043881e+00 -6.7108742306519042e-04 +0.0000000000000000e+00 +9.9999977482080982e-01
6.5999999999999925e+00 +9.0990513205072325e+00 +0.0000000000000000e+00 +6.5999994892382743e+00 -6.8141151672636833e-04 +0.0000000000000000e+00 +9.9999976783914535e-01
6.6999999999999922e+00 +9.0989826631513093e+00 +0.0000000000000000e+00 +6.6999994656686646e+00 -6.9173559995919524e-04 +0.0000000000000000e+00 +9.9999976075090113e-01
6.7999999999999918e+00 +9.0989129733876020e+00 +0.0000000000000000e+00 +6.7999994413849016e+00 -7.0205967234578841e-04 +0.0000000000000000e+00 +9.9999975355607773e-01
6.8999999999999915e+00 +9.0988422512172136e+00 +0.0000000000000000e+00 +6.8999994163763274e+00 -7.1238373351623660e-04 +0.0000000000000000e+00 +9.9999974625467580e-01
6.9999999999999911e+00 +9.0987704966412828e+00 +0.0000000000000000e+00 +6.9999993906322837e+00 -7.2270778314861167e-04 +0.0000000000000000e+00 +9.9999973884669591e-01
7.0999999999999908e+00 +9.0986977096609767e+00 +0.0000000000000000e+00 +7.0999993641421133e+00 -7.3303182096898060e-04 +0.0000000000000000e+00 +9.9999973133213860e-01
7.1999999999999904e+00 +9.0986238902774890e+00 +0.0000000000000000e+00 +7.1999993368951589e+00 -7.4335584675141867e-04 +0.0000000000000000e+00 +9.9999972371100432e-01
7.2999999999999901e+00 +9.0985490384920329e+00 +0.0000000000000000e+00 +7.2999993088807615e+00 -7.5367986031802260e-04 +0.0000000000000000e+00 +9.9999971598329362e-01
7.3999999999999897e+00 +9.0984731543058359e+00 +0.0000000000000000e+00 +7.3999992800882648e+00 -7.6400386153892448e-04 +0.0000000000000000e+00 +9.9999970814900707e-01
7.4999999999999893e+00 +9.0983962377201379e+00 +0.0000000000000000e+00 +7.4999992505070106e+00 -7.7432785033230576e-04 +0.0000000000000000e+00 +9.9999970020814499e-01
7.5999999999999890e+00 +9.0983182887361842e+00 +0.0000000000000000e+00 +7.5999992201263415e+00 -7.8465182666441274e-04 +0.0000000000000000e+00 +9.9999969216070794e-01
7.6999999999999886e+00 +9.0982393073552199e+00 +0.0000000000000000e+00 +7.6999991889355996e+00 -7.9497579054957140e-04 +0.0000000000000000e+00 +9.9999968400669614e-01
7.7999999999999883e+00 +9.0981592935784867e+00 +0.0000000000000000e+00 +7.7999991569241285e+00 -8.0529974205020361e-04 +0.0000000000000000e+00 +9.9999967574611004e-01
7.8999999999999879e+00 +9.0980782474072193e+00 +0.0000000000000000e+00 +7.8999991240812699e+00 -8.1562368127684355e-04 +0.0000000000000000e+00 +9.9999966737894985e-01
7.9999999999999876e+00 +9.0979961688426361e+00 +0.0000000000000000e+00 +7.9999990903963667e+00 -8.2594760838815469e-04 +0.0000000000000000e+00 +9.9999965890521580e-01
8.0999999999999872e+00 +9.0979130578859397e+00 +0.0000000000000000e+00 +8.0999990558587616e+00 -8.3627152359094705e-04 +0.0000000000000000e+00 +9.9999965032490812e-01
8.1999999999999869e+00 +9.0978289145383080e+00 +0.0000000000000000e+00 +8.1999990204577973e+00 -8.4659542714019551e-04 +0.0000000000000000e+00 +9.9999964163802701e-01
8.2999999999999865e+00 +9.0977437388008902e+00 +0.0000000000000000e+00 +8.2999989841828157e+00 -8.5691931933905828e-04 +0.0000000000000000e+00 +9.9999963284457249e-01
8.3999999999999861e+00 +9.0976575306748053e+00 +0.0000000000000000e+00 +8.3999989470231604e+00 -8.6724320053889567e-04 +0.0000000000000000e+00 +9.9999962394454467e-01
8.4999999999999858e+00 +9.0975702901611353e+00 +0.0000000000000000e+00 +8.4999989089681733e+00 -8.7756707113928988e-04 +0.0000000000000000e+00 +9.9999961493794354e-01
8.5999999999999854e+00 +9.0974820172609157e+00 +0.0000000000000000e+00 +8.5999988700071963e+00 -8.8789093158414545e-04 +0.0000000000000000e+00 +9.9999960582476899e-01
8.6999999999999851e+00 +9.0973927119751412e+00 +0.0000000000000000e+00 +8.6999988301295748e+00 -8.9821478231858669e-04 +0.0000000000000000e+00 +9.9999959660502091e-01
8.7999999999999847e+00 +9.0973023743047623e+00 +0.0000000000000000e+00 +8.7999987893246487e+00 -9.0853862374583739e-04 +0.0000000000000000e+00 +9.9999958727869931e-01
8.8999999999999844e+00 +9.0972110042506902e+00 +0.0000000000000000e+00 +8.8999987475817619e+00 -9.1886245622328983e-04 +0.0000000000000000e+00 +9.9999957784580407e-01
8.9999999999999840e+00 +9.0971186018138059e+00 +0.0000000000000000e+00 +8.9999987048902561e+00 -9.2918628006249341e-04 +0.0000000000000000e+00 +9.9999956830633518e-01
9.0999999999999837e+00 +9.0970251669949569e+00 +0.0000000000000000e+00 +9.0999986612394750e+00 -9.3951009552914239e-04 +0.0000000000000000e+00 +9.9999955866029266e-01
9.1999999999999833e+00 +9.0969306997949708e+00 +0.0000000000000000e+00 +9.1999986166187622e+00 -9.4983390284306363e-04 +0.0000000000000000e+00 +9.9999954890767662e-01
9.2999999999999829e+00 +9.0968352002146542e+00 +0.0000000000000000e+00 +9.2999985710174577e+00 -9.6015770217820393e-04 +0.0000000000000000e+00 +9.9999953904848704e-01
9.3999999999999826e+00 +9.0967386682547975e+00 +0.0000000000000000e+00 +9.3999985244249071e+00 -9.7048149366261668e-04 +0.0000000000000000e+00 +9.9999952908272416e-01
9.4999999999999822e+00 +9.0966411039161805e+00 +0.0000000000000000e+00 +9.4999984768304504e+00 -9.8080527737844829e-04 +0.0000000000000000e+00 +9.9999951901038808e-01
9.5999999999999819e+00 +9.0965425071995796e+00 +0.0000000000000000e+00 +9.5999984282234312e+00 -9.9112905336192457e-04 +0.0000000000000000e+00 +9.9999950883147903e-01
9.6999999999999815e+00 +9.0964428781057673e+00 +0.0000000000000000e+00 +9.6999983785931931e+00 -1.0014528216033356e-03 +0.0000000000000000e+00 +9.9999949854599723e-01
9.7999999999999812e+00 +9.0963422166355201e+00 +0.0000000000000000e+00 +9.7999983279290781e+00 -1.0117765820470222e-03 +0.0000000000000000e+00 +9.9999948815394291e-01
9.8999999999999808e+00 +9.0962405227896213e+00 +0.0000000000000000e+00 +9.8999982762204297e+00 -1.0221003345913596e-03 +0.0000000000000000e+00 +9.9999947765531649e-01
9.9999999999999805e+00 +9.0961377965688701e+00 +0.0000000000000000e+00 +9.9999982234565898e+00 -1.0324240790887428e-03 +0.0000000000000000e+00 +9.9999946705011833e-01
1.0099999999999980e+01 +9.0960340379740785e+00 +0.0000000000000000e+00 +1.0099998169626902e+01 -1.0427478153455703e-03 +0.0000000000000000e+00 +9.9999945633834886e-01
1.0199999999999980e+01 +9.0959292470060831e+00 +0.0000000000000000e+00 +1.0199998114720708e+01 -1.0530715431222278e-03 +0.0000000000000000e+00 +9.9999944552000863e-01
1.0299999999999979e+01 +9.0958234236657454e+00 +0.0000000000000000e+00 +1.0299998058727352e+01 -1.0633952621330715e-03 +0.0000000000000000e+00 +9.9999943459509821e-01
1.0399999999999979e+01 +9.0957165679539589e+00 +0.0000000000000000e+00 +1.0399998001636176e+01 -1.0737189720464114e-03 +0.0000000000000000e+00 +9.9999942356361826e-01
1.0499999999999979e+01 +9.0956086798716509e+00 +0.0000000000000000e+00 +1.0499997943436524e+01 -1.0840426724844936e-03 +0.0000000000000000e+00 +9.9999941242556933e-01
1.0599999999999978e+01 +9.0954997594197913e+00 +0.0000000000000000e+00 +1.0599997884117737e+01 -1.0943663630249784e-03 +0.0000000000000000e+00 +9.9999940118095232e-01
1.0699999999999978e+01 +9.0953898065993908e+00 +0.0000000000000000e+00 +1.0699997823669161e+01 -1.1046900432173819e-03 +0.0000000000000000e+00 +9.9999938982976788e-01
1.0799999999999978e+01 +9.0952788214115081e+00 +0.0000000000000000e+00 +1.0799997762080139e+01 -1.1150137125995302e-03 +0.0000000000000000e+00 +9.9999937837201702e-01
1.0899999999999977e+01 +9.0951668038572464e+00 +0.0000000000000000e+00 +1.0899997699340013e+01 -1.1253373706990577e-03 +0.0000000000000000e+00 +9.9999936680770052e-01
1.0999999999999977e+01 +9.0950537539377603e+00 +0.0000000000000000e+00 +1.0999997635438126e+01 -1.1356610170334116e-03 +0.0000000000000000e+00 +9.9999935513681926e-01
1.1099999999999977e+01 +9.0949396716542488e+00 +0.0000000000000000e+00 +1.1099997570363824e+01 -1.1459846511098547e-03 +0.0000000000000000e+00 +9.9999934335937413e-01
1.1199999999999976e+01 +9.0948245570079642e+00 +0.0000000000000000e+00 +1.1199997504106449e+01 -1.1563082724254693e-03 +0.0000000000000000e+00 +9.9999933147536613e-01
1.1299999999999976e+01 +9.0947084100002069e+00 +0.0000000000000000e+00 +1.1299997436655344e+01 -1.1666318804671610e-03 +0.0000000000000000e+00 +9.9999931948479626e-01
1.1399999999999975e+01 +9.0945912306323304e+00 +0.0000000000000000e+00 +1.1399997367999855e+01 -1.1769554747116623e-03 +0.0000000000000000e+00 +9.9999930738766551e-01
1.1499999999999975e+01 +9.0944730189057417e+00 +0.0000000000000000e+00 +1.1499997298129326e+01 -1.1872790546255366e-03 +0.0000000000000000e+00 +9.9999929518397490e-01
1.1599999999999975e+01 +9.0943537748219008e+00 +0.0000000000000000e+00 +1.1599997227033100e+01 -1.1976026196651823e-03 +0.0000000000000000e+00 +9.9999928287372564e-01
1.1699999999999974e+01 +9.0942334983823230e+00 +0.0000000000000000e+00 +1.1699997154700521e+01 -1.2079261692768371e-03 +0.0000000000000000e+00 +9.9999927045691872e-01
1.1799999999999974e+01 +9.0941121895885786e+00 +0.0000000000000000e+00 +1.1799997081120932e+01 -1.2182497028965823e-03 +0.0000000000000000e+00 +9.9999925793355537e-01
