# trajectory
# s[mm] rx[mm] ry[mm] rz[mm] px[rad] py[rad] pz[rad]
0.0000000000000000e+00 +9.1431000000000004e+00 +0.0000000000000000e+00 +0.0000000000000000e+00 +0.0000000000000000e+00 +0.0000000000000000e+00 +1.0000000000000000e+00
1.0000000000000001e-01 +9.1430994843692783e+00 +0.0000000000000000e+00 +9.9999999998227493e-02 -1.0312621226199296e-05 +0.0000000000000000e+00 +9.9999999994682487e-01
2.0000000000000001e-01 +9.1430979374743959e+00 +0.0000000000000000e+00 +1.9999999998581994e-01 -2.0625283262894911e-05 +0.0000000000000000e+00 +9.9999999978729881e-01
3.0000000000000004e-01 +9.1430953593112569e+00 +0.0000000000000000e+00 +2.9999999995214216e-01 -3.0937986412881192e-05 +0.0000000000000000e+00 +9.9999999952142049e-01
4.0000000000000002e-01 +9.1430917498757331e+00 +0.0000000000000000e+00 +3.9999999988655888e-01 -4.1250731002649505e-05 +0.0000000000000000e+00 +9.9999999914918858e-01
5.0000000000000000e-01 +9.1430871091636643e+00 +0.0000000000000000e+00 +4.9999999977843468e-01 -5.1563517382390959e-05 +0.0000000000000000e+00 +9.9999999867060185e-01
5.9999999999999998e-01 +9.1430814371708511e+00 +0.0000000000000000e+00 +5.9999999961713402e-01 -6.1876345925882179e-05 +0.0000000000000000e+00 +9.9999999808565887e-01
6.9999999999999996e-01 +9.1430747338930605e+00 +0.0000000000000000e+00 +6.9999999939202118e-01 -7.2189217029200935e-05 +0.0000000000000000e+00 +9.9999999739435841e-01
7.9999999999999993e-01 +9.1430669993260132e+00 +0.0000000000000000e+00 +7.9999999909246045e-01 -8.2502131109440745e-05 +0.0000000000000000e+00 +9.9999999659669914e-01
8.9999999999999991e-01 +9.1430582334653909e+00 +0.0000000000000000e+00 +8.9999999870781577e-01 -9.2815088604594282e-05 +0.0000000000000000e+00 +9.9999999569267961e-01
9.9999999999999989e-01 +9.1430484363068292e+00 +0.0000000000000000e+00 +9.9999999822745100e-01 -1.0312808997355312e-04 +0.0000000000000000e+00 +9.9999999468229850e-01
1.0999999999999999e+00 +9.1430376078459172e+00 +0.0000000000000000e+00 +1.0999999976407300e+00 -1.1344113569610680e-04 +0.0000000000000000e+00 +9.9999999356555436e-01
1.2000000000000000e+00 +9.1430257480781947e+00 +0.0000000000000000e+00 +1.1999999969370163e+00 -1.2375422627294123e-04 +0.0000000000000000e+00 +9.9999999234244574e-01
1.3000000000000000e+00 +9.1430128569991496e+00 +0.0000000000000000e+00 +1.2999999961056736e+00 -1.3406736222563640e-04 +0.0000000000000000e+00 +9.9999999101297121e-01
1.4000000000000001e+00 +9.1429989346042184e+00 +0.0000000000000000e+00 +1.3999999951360651e+00 -1.4438054409666347e-04 +0.0000000000000000e+00 +9.9999998957712921e-01
1.5000000000000002e+00 +9.1429839808887809e+00 +0.0000000000000000e+00 +1.4999999940175539e+00 -1.5469377244938117e-04 +0.0000000000000000e+00 +9.9999998803491830e-01
1.6000000000000003e+00 +9.1429679958481600e+00 +0.0000000000000000e+00 +1.5999999927395030e+00 -1.6500704786803145e-04 +0.0000000000000000e+00 +9.9999998638633703e-01
1.7000000000000004e+00 +9.1429509794776180e+00 +0.0000000000000000e+00 +1.6999999912912755e+00 -1.7532037095773466e-04 +0.0000000000000000e+00 +9.9999998463138373e-01
1.8000000000000005e+00 +9.1429329317723589e+00 +0.0000000000000000e+00 +1.7999999896622341e+00 -1.8563374234448378e-04 +0.0000000000000000e+00 +9.9999998277005675e-01
1.9000000000000006e+00 +9.1429138527275189e+00 +0.0000000000000000e+00 +1.8999999878417411e+00 -1.9594716267513828e-04 +0.0000000000000000e+00 +9.9999998080235464e-01
2.0000000000000004e+00 +9.1428937423381704e+00 +0.0000000000000000e+00 +1.9999999858191591e+00 -2.0626063261741710e-04 +0.0000000000000000e+00 +9.9999997872827562e-01
2.1000000000000005e+00 +9.1428726005993184e+00 +0.0000000000000000e+00 +2.0999999835838503e+00 -2.1657415285989104e-04 +0.0000000000000000e+00 +9.9999997654781803e-01
2.2000000000000006e+00 +9.1428504275058984e+00 +0.0000000000000000e+00 +2.1999999811251767e+00 -2.2688772411197448e-04 +0.0000000000000000e+00 +9.9999997426098008e-01
2.3000000000000007e+00 +9.1428272230527714e+00 +0.0000000000000000e+00 +2.2999999784325000e+00 -2.3720134710391642e-04 +0.0000000000000000e+00 +9.9999997186776013e-01
2.4000000000000008e+00 +9.1428029872347274e+00 +0.0000000000000000e+00 +2.3999999754951826e+00 -2.4751502258679085e-04 +0.0000000000000000e+00 +9.9999996936815638e-01
2.5000000000000009e+00 +9.1427777200464782e+00 +0.0000000000000000e+00 +2.4999999723025854e+00 -2.5782875133248650e-04 +0.0000000000000000e+00 +9.9999996676216696e-01
2.6000000000000010e+00 +9.1427514214826591e+00 +0.0000000000000000e+00 +2.5999999688440698e+00 -2.6814253413250024e-04 +0.0000000000000000e+00 +9.9999996404979008e-01
2.7000000000000011e+00 +9.1427240915378238e+00 +0.0000000000000000e+00 +2.6999999651089972e+00 -2.7845637178477626e-04 +0.0000000000000000e+00 +9.9999996123102375e-01
2.8000000000000012e+00 +9.1426957302064480e+00 +0.0000000000000000e+00 +2.7999999610867281e+00 -2.8877026508054881e-04 +0.0000000000000000e+00 +9.9999995830586608e-01
2.9000000000000012e+00 +9.1426663374829271e+00 +0.0000000000000000e+00 +2.8999999567666239e+00 -2.9908421480314258e-04 +0.0000000000000000e+00 +9.9999995527431518e-01
3.0000000000000013e+00 +9.1426359133615804e+00 +0.0000000000000000e+00 +2.9999999521380447e+00 -3.0939822172796857e-04 +0.0000000000000000e+00 +9.9999995213636905e-01
3.1000000000000014e+00 +9.1426044578366490e+00 +0.0000000000000000e+00 +3.0999999471903510e+00 -3.1971228662252014e-04 +0.0000000000000000e+00 +9.9999994889202559e-01
3.2000000000000015e+00 +9.1425719709022975e+00 +0.0000000000000000e+00 +3.1999999419129033e+00 -3.3002641024636929e-04 +0.0000000000000000e+00 +9.9999994554128280e-01
3.3000000000000016e+00 +9.1425384525526159e+00 +0.0000000000000000e+00 +3.2999999362950612e+00 -3.4034059335116281e-04 +0.0000000000000000e+00 +9.9999994208413856e-01
3.4000000000000017e+00 +9.1425039027816197e+00 +0.0000000000000000e+00 +3.3999999303261843e+00 -3.5065483668061877e-04 +0.0000000000000000e+00 +9.9999993852059088e-01
3.5000000000000018e+00 +9.1424683215832481e+00 +0.0000000000000000e+00 +3.4999999239956323e+00 -3.6096914097052290e-04 +0.0000000000000000e+00 +9.9999993485063754e-01
3.6000000000000019e+00 +9.1424317089513689e+00 +0.0000000000000000e+00 +3.5999999172927648e+00 -3.7128350694872516e-04 +0.0000000000000000e+00 +9.9999993107427643e-01
3.7000000000000020e+00 +9.1423940648797775e+00 +0.0000000000000000e+00 +3.6999999102069405e+00 -3.8159793533513640e-04 +0.0000000000000000e+00 +9.9999992719150532e-01
3.8000000000000020e+00 +9.1423553893621978e+00 +0.0000000000000000e+00 +3.7999999027275186e+00 -3.9191242684172512e-04 +0.0000000000000000e+00 +9.9999992320232201e-01
3.9000000000000021e+00 +9.1423156823922813e+00 +0.0000000000000000e+00 +3.8999998948438579e+00 -4.0222698217251437e-04 +0.0000000000000000e+00 +9.9999991910672426e-01
4.0000000000000018e+00 +9.1422749439636117e+00 +0.0000000000000000e+00 +3.9999998865453166e+00 -4.1254160202357877e-04 +0.0000000000000000e+00 +9.9999991490470985e-01
4.1000000000000014e+00 +9.1422331740697018e+00 +0.0000000000000000e+00 +4.0999998778212525e+00 -4.2285628708304141e-04 +0.0000000000000000e+00 +9.9999991059627646e-01
4.2000000000000011e+00 +9.1421903727039986e+00 +0.0000000000000000e+00 +4.1999998686610240e+00 -4.3317103803107112e-04 +0.0000000000000000e+00 +9.9999990618142176e-01
4.3000000000000007e+00 +9.1421465398598780e+00 +0.0000000000000000e+00 +4.2999998590539894e+00 -4.4348585553987969e-04 +0.0000000000000000e+00 +9.9999990166014341e-01
4.4000000000000004e+00 +9.1421016755306503e+00 +0.0000000000000000e+00 +4.3999998489895056e+00 -4.5380074027371925e-04 +0.0000000000000000e+00 +9.9999989703243908e-01
4.5000000000000000e+00 +9.1420557797095601e+00 +0.0000000000000000e+00 +4.4999998384569295e+00 -4.6411569288887971e-04 +0.0000000000000000e+00 +9.9999989229830633e-01
4.5999999999999996e+00 +9.1420088523897878e+00 +0.0000000000000000e+00 +4.5999998274456191e+00 -4.7443071403290916e-04 +0.0000000000000000e+00 +9.9999988745774282e-01
4.6999999999999993e+00 +9.1419608935644483e+00 +0.0000000000000000e+00 +4.6999998159449303e+00 -4.8474580433606300e-04 +0.0000000000000000e+00 +9.9999988251074601e-01
4.7999999999999989e+00 +9.1419119032265943e+00 +0.0000000000000000e+00 +4.7999998039442202e+00 -4.9506096440275445e-04 +0.0000000000000000e+00 +9.9999987745731356e-01
4.8999999999999986e+00 +9.1418618813692216e+00 +0.0000000000000000e+00 +4.8999997914328448e+00 -5.0537619481077762e-04 +0.0000000000000000e+00 +9.9999987229744303e-01
4.9999999999999982e+00 +9.1418108279852692e+00 +0.0000000000000000e+00 +4.9999997784001602e+00 -5.1569149611130848e-04 +0.0000000000000000e+00 +9.9999986703113186e-01
5.0999999999999979e+00 +9.1417587430676193e+00 +0.0000000000000000e+00 +5.0999997648355224e+00 -5.2600686882890528e-04 +0.0000000000000000e+00 +9.9999986165837773e-01
5.1999999999999975e+00 +9.1417056266091059e+00 +0.0000000000000000e+00 +5.1999997507282876e+00 -5.3632231346151021e-04 +0.0000000000000000e+00 +9.9999985617917808e-01
5.2999999999999972e+00 +9.1416514786025136e+00 +0.0000000000000000e+00 +5.2999997360678099e+00 -5.4663783048045013e-04 +0.0000000000000000e+00 +9.9999985059353036e-01
5.3999999999999968e+00 +9.1415962990405824e+00 +0.0000000000000000e+00 +5.3999997208434456e+00 -5.5695342033043865e-04 +0.0000000000000000e+00 +9.9999984490143212e-01
5.4999999999999964e+00 +9.1415400879160060e+00 +0.0000000000000000e+00 +5.4999997050445479e+00 -5.6726908342957761e-04 +0.0000000000000000e+00 +9.9999983910288093e-01
5.5999999999999961e+00 +9.1414828452214412e+00 +0.0000000000000000e+00 +5.5999996886604730e+00 -5.7758482016935920e-04 +0.0000000000000000e+00 +9.9999983319787422e-01
5.6999999999999957e+00 +9.1414245709495052e+00 +0.0000000000000000e+00 +5.6999996716805743e+00 -5.8790063091466820e-04 +0.0000000000000000e+00 +9.9999982718640956e-01
5.7999999999999954e+00 +9.1413652650927801e+00 +0.0000000000000000e+00 +5.7999996540942060e+00 -5.9821651600378445e-04 +0.0000000000000000e+00 +9.9999982106848440e-01
5.8999999999999950e+00 +9.1413049276438159e+00 +0.0000000000000000e+00 +5.8999996358907225e+00 -6.0853247574838574e-04 +0.0000000000000000e+00 +9.9999981484409628e-01
5.9999999999999947e+00 +9.1412435585951322e+00 +0.0000000000000000e+00 +5.9999996170594763e+00 -6.1884851043355032e-04 +0.0000000000000000e+00 +9.9999980851324266e-01
6.0999999999999943e+00 +9.1411811579392221e+00 +0.0000000000000000e+00 +6.0999995975898216e+00 -6.2916462031776057e-04 +0.0000000000000000e+00 +9.9999980207592110e-01
6.1999999999999940e+00 +9.1411177256685541e+00 +0.0000000000000000e+00 +6.1999995774711110e+00 -6.3948080563290609e-04 +0.0000000000000000e+00 +9.9999979553212914e-01
6.2999999999999936e+00 +9.1410532617755749e+00 +0.0000000000000000e+00 +6.2999995566926978e+00 -6.4979706658428726e-04 +0.0000000000000000e+00 +9.9999978888186425e-01
6.3999999999999932e+00 +9.1409877662527101e+00 +0.0000000000000000e+00 +6.3999995352439347e+00 -6.6011340335061944e-04 +0.0000000000000000e+00 +9.9999978212512408e-01
6.4999999999999929e+00 +9.1409212390923713e+00 +0.0000000000000000e+00 +6.4999995131141732e+00 -6.7042981608403677e-04 +0.0000000000000000e+00 +9.9999977526190609e-01
6.5999999999999925e+00 +9.1408536802869556e+00 +0.0000000000000000e+00 +6.5999994902927659e+00 -6.8074630490942310e-04 +0.0000000000000000e+00 +9.9999976829220782e-01
6.6999999999999922e+00 +9.1407850898288494e+00 +0.0000000000000000e+00 +6.6999994667690652e+00 -6.9106286991700702e-04 +0.0000000000000000e+00 +9.9999976121602685e-01
6.7999999999999918e+00 +9.1407154677104305e+00 +0.0000000000000000e+00 +6.7999994425324219e+00 -7.0137951115495649e-04 +0.0000000000000000e+00 +9.9999975403336083e-01
6.8999999999999915e+00 +9.1406448139240766e+00 +0.0000000000000000e+00 +6.8999994175721877e+00 -7.1169622862870825e-04 +0.0000000000000000e+00 +9.9999974674420744e-01
6.9999999999999911e+00 +9.1405731284621652e+00 +0.0000000000000000e+00 +6.9999993918777141e+00 -7.2201302230097072e-04 +0.0000000000000000e+00 +9.9999973934856423e-01
7.0999999999999908e+00 +9.1405004113170794e+00 +0.0000000000000000e+00 +7.0999993654383511e+00 -7.3232989209172763e-04 +0.0000000000000000e+00 +9.9999973184642899e-01
7.1999999999999904e+00 +9.1404266624812127e+00 +0.0000000000000000e+00 +7.1999993382434502e+00 -7.4264683787824098e-04 +0.0000000000000000e+00 +9.9999972423779948e-01
7.2999999999999901e+00 +9.1403518819469749e+00 +0.0000000000000000e+00 +7.2999993102823613e+00 -7.5296385949505525e-04 +0.0000000000000000e+00 +9.9999971652267339e-01
7.3999999999999897e+00 +9.1402760697067933e+00 +0.0000000000000000e+00 +7.3999992815444351e+00 -7.6328095673400059e-04 +0.0000000000000000e+00 +9.9999970870104848e-01
7.4999999999999893e+00 +9.1401992257531166e+00 +0.0000000000000000e+00 +7.4999992520190215e+00 -7.7359812934419715e-04 +0.0000000000000000e+00 +9.9999970077292277e-01
7.5999999999999890e+00 +9.1401213500784220e+00 +0.0000000000000000e+00 +7.5999992216954695e+00 -7.8391537703205894e-04 +0.0000000000000000e+00 +9.9999969273829403e-01
7.6999999999999886e+00 +9.1400424426752185e+00 +0.0000000000000000e+00 +7.6999991905631298e+00 -7.9423269946129809e-04 +0.0000000000000000e+00 +9.9999968459716027e-01
7.7999999999999883e+00 +9.1399625035360508e+00 +0.0000000000000000e+00 +7.7999991586113513e+00 -8.0455009625292936e-04 +0.0000000000000000e+00 +9.9999967634951936e-01
7.8999999999999879e+00 +9.1398815326535026e+00 +0.0000000000000000e+00 +7.8999991258294830e+00 -8.1486756698527464e-04 +0.0000000000000000e+00 +9.9999966799536943e-01
7.9999999999999876e+00 +9.1397995300202037e+00 +0.0000000000000000e+00 +7.9999990922068749e+00 -8.2518511119396753e-04 +0.0000000000000000e+00 +9.9999965953470860e-01
8.0999999999999872e+00 +9.1397164956288321e+00 +0.0000000000000000e+00 +8.0999990577328749e+00 -8.3550272837195857e-04 +0.0000000000000000e+00 +9.9999965096753496e-01
8.1999999999999869e+00 +9.1396324294721154e+00 +0.0000000000000000e+00 +8.1999990223968311e+00 -8.4582041796952005e-04 +0.0000000000000000e+00 +9.9999964229384675e-01
8.2999999999999865e+00 +9.1395473315428433e+00 +0.0000000000000000e+00 +8.2999989861880934e+00 -8.5613817939425108e-04 +0.0000000000000000e+00 +9.9999963351364218e-01
8.3999999999999861e+00 +9.1394612018338641e+00 +0.0000000000000000e+00 +8.3999989490960090e+00 -8.6645601201108325e-04 +0.0000000000000000e+00 +9.9999962462691960e-01
8.4999999999999858e+00 +9.1393740403380903e+00 +0.0000000000000000e+00 +8.4999989111099268e+00 -8.7677391514228591e-04 +0.0000000000000000e+00 +9.9999961563367745e-01
8.5999999999999854e+00 +9.1392858470485088e+00 +0.0000000000000000e+00 +8.5999988722191940e+00 -8.8709188806392091e-04 +0.0000000000000000e+00 +9.9999960653391406e-01
8.6999999999999851e+00 +9.1391966219581775e+00 +0.0000000000000000e+00 +8.6999988324131596e+00 -8.9740992996678788e-04 +0.0000000000000000e+00 +9.9999959732762811e-01
8.7999999999999847e+00 +9.1391063650602469e+00 +0.0000000000000000e+00 +8.7999987916811691e+00 -9.0772803991739264e-04 +0.0000000000000000e+00 +9.9999958801481825e-01
8.8999999999999844e+00 +9.1390150763479614e+00 +0.0000000000000000e+00 +8.8999987500125712e+00 -9.1804621685444418e-04 +0.0000000000000000e+00 +9.9999957859548338e-01
8.9999999999999840e+00 +9.1389227558146828e+00 +0.0000000000000000e+00 +8.9999987073967134e+00 -9.2836445958890544e-04 +0.0000000000000000e+00 +9.9999956906962251e-01
9.0999999999999837e+00 +9.1388294034538955e+00 +0.0000000000000000e+00 +9.0999986638229444e+00 -9.3868276680404521e-04 +0.0000000000000000e+00 +9.9999955943723484e-01
9.1999999999999833e+00 +9.1387350192592223e+00 +0.0000000000000000e+00 +9.1999986192806098e+00 -9.4900113705549151e-04 +0.0000000000000000e+00 +9.9999954969831983e-01
9.2999999999999829e+00 +9.1386396032244370e+00 +0.0000000000000000e+00 +9.2999985737590567e+00 -9.5931956877128651e-04 +0.0000000000000000e+00 +9.9999953985287693e-01
9.3999999999999826e+00 +9.1385431553434771e+00 +0.0000000000000000e+00 +9.3999985272476341e+00 -9.6963806025194264e-04 +0.0000000000000000e+00 +9.9999952990090590e-01
9.4999999999999822e+00 +9.1384456756104555e+00 +0.0000000000000000e+00 +9.4999984797356873e+00 -9.7995660967050043e-04 +0.0000000000000000e+00 +9.9999951984240665e-01
9.5999999999999819e+00 +9.1383471640196756e+00 +0.0000000000000000e+00 +9.5999984312125637e+00 -9.9027521507258701e-04 +0.0000000000000000e+00 +9.9999950967737938e-01
9.6999999999999815e+00 +9.1382476205656431e+00 +0.0000000000000000e+00 +9.6999983816676121e+00 -1.0005938743764770e-03 +0.0000000000000000e+00 +9.9999949940582433e-01
9.7999999999999812e+00 +9.1381470452430769e+00 +0.0000000000000000e+00 +9.7999983310901779e+00 -1.0109125853731539e-03 +0.0000000000000000e+00 +9.9999948902774216e-01
9.8999999999999808e+00 +9.1380454380469232e+00 +0.0000000000000000e+00 +9.8999982794696102e+00 -1.0212313457263731e-03 +0.0000000000000000e+00 +9.9999947854313365e-01
9.9999999999999805e+00 +9.1379427989723681e+00 +0.0000000000000000e+00 +9.9999982267952543e+00 -1.0315501529727269e-03 +0.0000000000000000e+00 +9.9999946795199979e-01
1.0099999999999980e+01 +9.1378391280148517e+00 +0.0000000000000000e+00 +1.0099998173056459e+01 -1.0418690045217100e-03 +0.0000000000000000e+00 +9.9999945725434181e-01
1.0199999999999980e+01 +9.1377344251700769e+00 +0.0000000000000000e+00 +1.0199998118242572e+01 -1.0521878976557867e-03 +0.0000000000000000e+00 +9.9999944645016114e-01
1.0299999999999979e+01 +9.1376286904340276e+00 +0.0000000000000000e+00 +1.0299998062342940e+01 -1.0625068295304603e-03 +0.0000000000000000e+00 +9.9999943553945958e-01
1.0399999999999979e+01 +9.1375219238029786e+00 +0.0000000000000000e+00 +1.0399998005346912e+01 -1.0728257971743423e-03 +0.0000000000000000e+00 +9.9999942452223911e-01
1.0499999999999979e+01 +9.1374141252735051e+00 +0.0000000000000000e+00 +1.0499997947243838e+01 -1.0831447974892243e-03 +0.0000000000000000e+00 +9.9999941339850207e-01
1.0599999999999978e+01 +9.1373052948425002e+00 +0.0000000000000000e+00 +1.0599997888023063e+01 -1.0934638272639726e-03 +0.0000000000000000e+00 +9.9999940216825078e-01
1.0699999999999978e+01 +9.1371954325071769e+00 +0.0000000000000000e+00 +1.0699997827673938e+01 -1.1037828833266340e-03 +0.0000000000000000e+00 +9.9999939083148792e-01
1.0799999999999978e+01 +9.1370845382650590e+00 +0.0000000000000000e+00 +1.0799997766185811e+01 -1.1141019626964691e-03 +0.0000000000000000e+00 +9.9999937938821604e-01
1.0899999999999977e+01 +9.1369726121139543e+00 +0.0000000000000000e+00 +1.0899997703548031e+01 -1.1244210625977094e-03 +0.0000000000000000e+00 +9.9999936783843746e-01
1.0999999999999977e+01 +9.1368596540519409e+00 +0.0000000000000000e+00 +1.0999997639749948e+01 -1.1347401804594863e-03 +0.0000000000000000e+00 +9.9999935618215441e-01
1.1099999999999977e+01 +9.1367456640773437e+00 +0.0000000000000000e+00 +1.1099997574780911e+01 -1.1450593139157568e-03 +0.0000000000000000e+00 +9.9999934441936911e-01
1.1199999999999976e+01 +9.1366306421887113e+00 +0.0000000000000000e+00 +1.1199997508630272e+01 -1.1553784608052285e-03 +0.0000000000000000e+00 +9.9999933255008355e-01
1.1299999999999976e+01 +9.1365145883848005e+00 +0.0000000000000000e+00 +1.1299997441287379e+01 -1.1656976191712816e-03 +0.0000000000000000e+00 +9.9999932057429963e-01
1.1399999999999975e+01 +9.1363975026645523e+00 +0.0000000000000000e+00 +1.1399997372741582e+01 -1.1760167872618896e-03 +0.0000000000000000e+00 +9.9999930849201901e-01
1.1499999999999975e+01 +9.1362793850270752e+00 +0.0000000000000000e+00 +1.1499997302982234e+01 -1.1863359635295378e-03 +0.0000000000000000e+00 +9.9999929630324325e-01
1.1599999999999975e+01 +9.1361602354716194e+00 +0.0000000000000000e+00 +1.1599997231998682e+01 -1.1966551466311395e-03 +0.0000000000000000e+00 +9.9999928400797367e-01
1.1699999999999974e+01 +9.1360400539975597e+00 +0.0000000000000000e+00 +1.1699997159780278e+01 -1.2069743354279506e-03 +0.0000000000000000e+00 +9.9999927160621149e-01
1.1799999999999974e+01 +9.1359188406043756e+00 +0.0000000000000000e+00 +1.1799997086316374e+01 -1.2172935289854812e-03 +0.0000000000000000e+00 +9.9999925909795762e-01
