# field on trajectory
# s[mm] rx[mm] ry[mm] rz[mm] bx[T] by[T] bz[T]
0.0000000000000000e+00 +9.0840999999999994e+00 +0.0000000000000000e+00 +0.0000000000000000e+00 +1.1539167647161844e-02 -1.0345071780828656e+00 -5.8940967039643154e-02
-1.0000000000000001e-01 +9.0840994831043389e+00 +0.0000000000000000e+00 -9.9999999998218791e-02 +1.1539102867927456e-02 -1.0345065563827853e+00 -5.8941679158894394e-02
-2.0000000000000001e-01 +9.0840979324177695e+00 +0.0000000000000000e+00 -1.9999999998575035e-01 +1.1539038540021905e-02 -1.0345059461083188e+00 -5.8942405449952932e-02
-3.0000000000000004e-01 +9.0840953479409006e+00 +0.0000000000000000e+00 -2.9999999995190746e-01 +1.1538974543047436e-02 -1.0345053519508705e+00 -5.8943145296176551e-02
-4.0000000000000002e-01 +9.0840917296743271e+00 +0.0000000000000000e+00 -3.9999999988600288e-01 +1.1538910756605035e-02 -1.0345047786022159e+00 -5.8943898080889554e-02
-5.0000000000000000e-01 +9.0840870776186211e+00 +0.0000000000000000e+00 -4.9999999977734944e-01 +1.1538847060300807e-02 -1.0345042307544989e+00 -5.8944663187385296e-02
-5.9999999999999998e-01 +9.0840813917743297e+00 +0.0000000000000000e+00 -5.9999999961525996e-01 +1.1538783333752363e-02 -1.0345037131002313e+00 -5.8945439998929115e-02
-6.9999999999999996e-01 +9.0840746721419716e+00 +0.0000000000000000e+00 -6.9999999938904733e-01 +1.1538719456595280e-02 -1.0345032303322870e+00 -5.8946227898761173e-02
-7.9999999999999993e-01 +9.0840669187220282e+00 +0.0000000000000000e+00 -7.9999999908802444e-01 +1.1538655308489442e-02 -1.0345027871438996e+00 -5.8947026270098936e-02
-8.9999999999999991e-01 +9.0840581315149436e+00 +0.0000000000000000e+00 -8.9999999870150416e-01 +1.1538590769125483e-02 -1.0345023882286624e+00 -5.8947834496140238e-02
-9.9999999999999989e-01 +9.0840483105211174e+00 +0.0000000000000000e+00 -9.9999999821879926e-01 +1.1538525718231180e-02 -1.0345020382805217e+00 -5.8948651960065955e-02
-1.0999999999999999e+00 +9.0840374557408978e+00 +0.0000000000000000e+00 -1.0999999976292227e+00 +1.1538460035577841e-02 -1.0345017419937754e+00 -5.8949478045042657e-02
-1.2000000000000000e+00 +9.0840255671745833e+00 +0.0000000000000000e+00 -1.1999999969220874e+00 +1.1538393600986746e-02 -1.0345015040630730e+00 -5.8950312134225594e-02
-1.3000000000000000e+00 +9.0840126448224137e+00 +0.0000000000000000e+00 -1.2999999960867061e+00 +1.1538326294335505e-02 -1.0345013291834062e+00 -5.8951153610761260e-02
-1.4000000000000001e+00 +9.0839986886845629e+00 +0.0000000000000000e+00 -1.3999999951123918e+00 +1.1538257995564495e-02 -1.0345012220501140e+00 -5.8952001857790343e-02
-1.5000000000000002e+00 +9.0839836987611395e+00 +0.0000000000000000e+00 -1.4999999939884574e+00 +1.1538188584683235e-02 -1.0345011873588730e+00 -5.8952856258450245e-02
-1.6000000000000003e+00 +9.0839676750521807e+00 +0.0000000000000000e+00 -1.5999999927042159e+00 +1.1538118025465569e-02 -1.0345012283294484e+00 -5.8953716250299826e-02
-1.7000000000000004e+00 +9.0839506175576457e+00 +0.0000000000000000e+00 -1.6999999912489800e+00 +1.1538046616496522e-02 -1.0345013422768188e+00 -5.8954581488571967e-02
-1.8000000000000005e+00 +9.0839325262774242e+00 +0.0000000000000000e+00 -1.7999999896120626e+00 +1.1537974740062159e-02 -1.0345015250397194e+00 -5.8955451682884033e-02
-1.9000000000000006e+00 +9.0839134012113352e+00 +0.0000000000000000e+00 -1.8999999877827765e+00 +1.1537902778449616e-02 -1.0345017724568117e+00 -5.8956326542809044e-02
-2.0000000000000004e+00 +9.0838932423591334e+00 +0.0000000000000000e+00 -1.9999999857504345e+00 +1.1537831113941835e-02 -1.0345020803666309e+00 -5.8957205777871911e-02
-2.1000000000000005e+00 +9.0838720497205134e+00 +0.0000000000000000e+00 -2.0999999835043495e+00 +1.1537760128812217e-02 -1.0345024446075357e+00 -5.8958089097545727e-02
-2.2000000000000006e+00 +9.0838498232951146e+00 +0.0000000000000000e+00 -2.1999999810338342e+00 +1.1537690205319345e-02 -1.0345028610176510e+00 -5.8958976211248022e-02
-2.3000000000000007e+00 +9.0838265630825248e+00 +0.0000000000000000e+00 -2.2999999783282012e+00 +1.1537621725701660e-02 -1.0345033254348188e+00 -5.8959866828336899e-02
-2.4000000000000008e+00 +9.0838022690822804e+00 +0.0000000000000000e+00 -2.3999999753767636e+00 +1.1537555072172162e-02 -1.0345038336965409e+00 -5.8960760658107347e-02
-2.5000000000000009e+00 +9.0837769412938787e+00 +0.0000000000000000e+00 -2.4999999721688337e+00 +1.1537490626913111e-02 -1.0345043816399313e+00 -5.8961657409787517e-02
-2.6000000000000010e+00 +9.0837505797167726e+00 +0.0000000000000000e+00 -2.5999999686937247e+00 +1.1537428772070689e-02 -1.0345049651016582e+00 -5.8962556792534808e-02
-2.7000000000000011e+00 +9.0837231843503847e+00 +0.0000000000000000e+00 -2.6999999649407487e+00 +1.1537369889749752e-02 -1.0345055799178935e+00 -5.8963458515432270e-02
-2.8000000000000012e+00 +9.0836947551941023e+00 +0.0000000000000000e+00 -2.7999999608992185e+00 +1.1537314362008461e-02 -1.0345062219242596e+00 -5.8964362287484723e-02
-2.9000000000000012e+00 +9.0836652922472876e+00 +0.0000000000000000e+00 -2.8999999565584469e+00 +1.1537262570853007e-02 -1.0345068869557739e+00 -5.8965267817615068e-02
-3.0000000000000013e+00 +9.0836347955092798e+00 +0.0000000000000000e+00 -2.9999999519077463e+00 +1.1537214898232324e-02 -1.0345075708467999e+00 -5.8966174814660460e-02
-3.1000000000000014e+00 +9.0836032649793985e+00 +0.0000000000000000e+00 -3.0999999469364292e+00 +1.1537171726032738e-02 -1.0345082694309917e+00 -5.8967082987368594e-02
-3.2000000000000015e+00 +9.0835707006569493e+00 +0.0000000000000000e+00 -3.1999999416338083e+00 +1.1537133436072711e-02 -1.0345089785412405e+00 -5.8967992044393895e-02
-3.3000000000000016e+00 +9.0835371025412286e+00 +0.0000000000000000e+00 -3.2999999359891961e+00 +1.1537100410097477e-02 -1.0345096940096217e+00 -5.8968901694293786e-02
-3.4000000000000017e+00 +9.0835024706315242e+00 +0.0000000000000000e+00 -3.3999999299919046e+00 +1.1537073029773812e-02 -1.0345104116673440e+00 -5.8969811645524950e-02
-3.5000000000000018e+00 +9.0834668049271237e+00 +0.0000000000000000e+00 -3.4999999236312469e+00 +1.1537051676684652e-02 -1.0345111273446943e+00 -5.8970721606439465e-02
-3.6000000000000019e+00 +9.0834301054273148e+00 +0.0000000000000000e+00 -3.5999999168965351e+00 +1.1537036610220722e-02 -1.0345118372243391e+00 -5.8971631339472794e-02
-3.7000000000000020e+00 +9.0833923721313941e+00 +0.0000000000000000e+00 -3.6999999097770813e+00 +1.1537027601316977e-02 -1.0345125389018504e+00 -5.8972540823744188e-02
-3.8000000000000020e+00 +9.0833536050386634e+00 +0.0000000000000000e+00 -3.7999999022621984e+00 +1.1537024298853497e-02 -1.0345132303265132e+00 -5.8973450092530556e-02
-3.9000000000000021e+00 +9.0833138041484371e+00 +0.0000000000000000e+00 -3.8999998943411986e+00 +1.1537026351777153e-02 -1.0345139094481388e+00 -5.8974359179083558e-02
-4.0000000000000018e+00 +9.0832729694600403e+00 +0.0000000000000000e+00 -3.9999998860033941e+00 +1.1537033409106999e-02 -1.0345145742171191e+00 -5.8975268116631806e-02
-4.1000000000000014e+00 +9.0832311009728119e+00 +0.0000000000000000e+00 -4.0999998772380968e+00 +1.1537045119939745e-02 -1.0345152225844751e+00 -5.8976176938382995e-02
-4.2000000000000011e+00 +9.0831881986861109e+00 +0.0000000000000000e+00 -4.1999998680346202e+00 +1.1537061133455158e-02 -1.0345158525019089e+00 -5.8977085677525930e-02
-4.3000000000000007e+00 +9.0831442625993102e+00 +0.0000000000000000e+00 -4.2999998583822761e+00 +1.1537081098921511e-02 -1.0345164619218534e+00 -5.8977994367232736e-02
-4.4000000000000004e+00 +9.0830992927118075e+00 +0.0000000000000000e+00 -4.3999998482703759e+00 +1.1537104665701001e-02 -1.0345170487975228e+00 -5.8978903040661043e-02
-4.5000000000000000e+00 +9.0830532890230202e+00 +0.0000000000000000e+00 -4.4999998376882333e+00 +1.1537131483255187e-02 -1.0345176110829655e+00 -5.8979811730955942e-02
-4.5999999999999996e+00 +9.0830062515323924e+00 +0.0000000000000000e+00 -4.5999998266251598e+00 +1.1537161201150423e-02 -1.0345181467331119e+00 -5.8980720471252260e-02
-4.6999999999999993e+00 +9.0829581802393946e+00 +0.0000000000000000e+00 -4.6999998150704680e+00 +1.1537193469063289e-02 -1.0345186537038287e+00 -5.8981629294676687e-02
-4.7999999999999989e+00 +9.0829090751435242e+00 +0.0000000000000000e+00 -4.7999998030134696e+00 +1.1537227936786017e-02 -1.0345191299519652e+00 -5.8982538234349756e-02
-4.8999999999999986e+00 +9.0828589362443104e+00 +0.0000000000000000e+00 -4.8999997904434771e+00 +1.1537264254231917e-02 -1.0345195734354082e+00 -5.8983447323388130e-02
-4.9999999999999982e+00 +9.0828077635413162e+00 +0.0000000000000000e+00 -4.9999997773498031e+00 +1.1537302071440833e-02 -1.0345199821131297e+00 -5.8984356594906681e-02
-5.0999999999999979e+00 +9.0827555570341403e+00 +0.0000000000000000e+00 -5.0999997637217600e+00 +1.1537341038584541e-02 -1.0345203539452399e+00 -5.8985266082020572e-02
-5.1999999999999975e+00 +9.0827023167224148e+00 +0.0000000000000000e+00 -5.1999997495486596e+00 +1.1537380805972202e-02 -1.0345206868930370e+00 -5.8986175817847333e-02
-5.2999999999999972e+00 +9.0826480426058129e+00 +0.0000000000000000e+00 -5.2999997348198145e+00 +1.1537421024055783e-02 -1.0345209789190561e+00 -5.8987085835509212e-02
-5.3999999999999968e+00 +9.0825927346840505e+00 +0.0000000000000000e+00 -5.3999997195245371e+00 +1.1537461343435489e-02 -1.0345212279871239e+00 -5.8987996168134951e-02
-5.4999999999999964e+00 +9.0825363929568841e+00 +0.0000000000000000e+00 -5.4999997036521391e+00 +1.1537501414865202e-02 -1.0345214320624059e+00 -5.8988906848862224e-02
-5.5999999999999961e+00 +9.0824790174241148e+00 +0.0000000000000000e+00 -5.5999996871919340e+00 +1.1537540947258795e-02 -1.0345215894635111e+00 -5.8989817761508516e-02
-5.6999999999999957e+00 +9.0824206080855916e+00 +0.0000000000000000e+00 -5.6999996701332334e+00 +1.1537579881615826e-02 -1.0345216999179292e+00 -5.8990728192569335e-02
-5.7999999999999954e+00 +9.0823611649412115e+00 +0.0000000000000000e+00 -5.7999996524653490e+00 +1.1537618216870372e-02 -1.0345217635044879e+00 -5.8991637279206623e-02
-5.8999999999999950e+00 +9.0823006879909158e+00 +0.0000000000000000e+00 -5.8999996341775942e+00 +1.1537655951862773e-02 -1.0345217803010480e+00 -5.8992544158582537e-02
-5.9999999999999947e+00 +9.0822391772346958e+00 +0.0000000000000000e+00 -5.9999996152592816e+00 +1.1537693085333848e-02 -1.0345217503844486e+00 -5.8993447967860907e-02
-6.0999999999999943e+00 +9.0821766326725868e+00 +0.0000000000000000e+00 -6.0999995956997228e+00 +1.1537729615919125e-02 -1.0345216738304552e+00 -5.8994347844208719e-02
-6.1999999999999940e+00 +9.0821130543046724e+00 +0.0000000000000000e+00 -6.1999995754882313e+00 +1.1537765542143039e-02 -1.0345215507137038e+00 -5.8995242924797527e-02
-6.2999999999999936e+00 +9.0820484421310823e+00 +0.0000000000000000e+00 -6.2999995546141188e+00 +1.1537800862413176e-02 -1.0345213811076504e+00 -5.8996132346804848e-02
-6.3999999999999932e+00 +9.0819827961519941e+00 +0.0000000000000000e+00 -6.3999995330666986e+00 +1.1537835575014485e-02 -1.0345211650845121e+00 -5.8997015247415699e-02
-6.4999999999999929e+00 +9.0819161163676299e+00 +0.0000000000000000e+00 -6.4999995108352824e+00 +1.1537869678103505e-02 -1.0345209027152191e+00 -5.8997890763823994e-02
-6.5999999999999925e+00 +9.0818484027782578e+00 +0.0000000000000000e+00 -6.5999994879091837e+00 +1.1537903169702568e-02 -1.0345205940693565e+00 -5.8998758033233990e-02
-6.6999999999999922e+00 +9.0817796553841941e+00 +0.0000000000000000e+00 -6.6999994642777150e+00 +1.1537936047694056e-02 -1.0345202392151147e+00 -5.8999616192861815e-02
-6.7999999999999918e+00 +9.0817098741858011e+00 +0.0000000000000000e+00 -6.7999994399301880e+00 +1.1537968309814578e-02 -1.0345198382192295e+00 -5.9000464379936716e-02
-6.8999999999999915e+00 +9.0816390591834875e+00 +0.0000000000000000e+00 -6.8999994148559169e+00 +1.1537999953649245e-02 -1.0345193911469366e+00 -5.9001301731702857e-02
-6.9999999999999911e+00 +9.0815672103777061e+00 +0.0000000000000000e+00 -6.9999993890442136e+00 +1.1538030976625842e-02 -1.0345188980619104e+00 -5.9002127385420454e-02
-7.0999999999999908e+00 +9.0814943277689579e+00 +0.0000000000000000e+00 -7.0999993624843913e+00 +1.1538061376009103e-02 -1.0345183590262146e+00 -5.9002940478367426e-02
-7.1999999999999904e+00 +9.0814204113577901e+00 +0.0000000000000000e+00 -7.1999993351657627e+00 +1.1538091148894890e-02 -1.0345177741002485e+00 -5.9003740147840857e-02
-7.2999999999999901e+00 +9.0813454611447959e+00 +0.0000000000000000e+00 -7.2999993070776412e+00 +1.1538120292204431e-02 -1.0345171433426901e+00 -5.9004525531158335e-02
-7.3999999999999897e+00 +9.0812694771306113e+00 +0.0000000000000000e+00 -7.3999992782093393e+00 +1.1538148802678580e-02 -1.0345164668104454e+00 -5.9005295765659597e-02
-7.4999999999999893e+00 +9.0811924593159219e+00 +0.0000000000000000e+00 -7.4999992485501705e+00 +1.1538176676871979e-02 -1.0345157445585946e+00 -5.9006049988707912e-02
-7.5999999999999890e+00 +9.0811144077014578e+00 +0.0000000000000000e+00 -7.5999992180894482e+00 +1.1538203951475421e-02 -1.0345149775837590e+00 -5.9006787514553759e-02
-7.6999999999999886e+00 +9.0810353222879918e+00 +0.0000000000000000e+00 -7.6999991868164850e+00 +1.1538230824379705e-02 -1.0345141706548564e+00 -5.9007508364948322e-02
-7.7999999999999883e+00 +9.0809552030763410e+00 +0.0000000000000000e+00 -7.7999991547205942e+00 +1.1538257533830492e-02 -1.0345133294835547e+00 -5.9008212738566247e-02
-7.8999999999999879e+00 +9.0808740500673508e+00 +0.0000000000000000e+00 -7.8999991217910894e+00 +1.1538284318120670e-02 -1.0345124597809132e+00 -5.9008900834140204e-02
-7.9999999999999876e+00 +9.0807918632619007e+00 +0.0000000000000000e+00 -7.9999990880172831e+00 +1.1538311415592599e-02 -1.0345115672573706e+00 -5.9009572850463016e-02
-8.0999999999999872e+00 +9.0807086426608912e+00 +0.0000000000000000e+00 -8.0999990533884905e+00 +1.1538339064640310e-02 -1.0345106576227385e+00 -5.9010228986390127e-02
-8.1999999999999869e+00 +9.0806243882652389e+00 +0.0000000000000000e+00 -8.1999990178940223e+00 +1.1538367503711741e-02 -1.0345097365861906e+00 -5.9010869440841704e-02
-8.2999999999999865e+00 +9.0805391000758711e+00 +0.0000000000000000e+00 -8.2999989815231938e+00 +1.1538396971310982e-02 -1.0345088098562527e+00 -5.9011494412805156e-02
-8.3999999999999861e+00 +9.0804527780937256e+00 +0.0000000000000000e+00 -8.3999989442653185e+00 +1.1538427706000448e-02 -1.0345078831407974e+00 -5.9012104101337268e-02
-8.4999999999999858e+00 +9.0803654223197352e+00 +0.0000000000000000e+00 -8.4999989061097097e+00 +1.1538459946403149e-02 -1.0345069621470298e+00 -5.9012698705566580e-02
-8.5999999999999854e+00 +9.0802770327548288e+00 +0.0000000000000000e+00 -8.5999988670456808e+00 +1.1538493931204888e-02 -1.0345060525814820e+00 -5.9013278424695614e-02
-8.6999999999999851e+00 +9.0801876093999265e+00 +0.0000000000000000e+00 -8.6999988270625455e+00 +1.1538529899156477e-02 -1.0345051601500039e+00 -5.9013843458003298e-02
-8.7999999999999847e+00 +9.0800971522559273e+00 +0.0000000000000000e+00 -8.7999987861496169e+00 +1.1538568089075980e-02 -1.0345042905577508e+00 -5.9014394004847079e-02
-8.8999999999999844e+00 +9.0800056613237103e+00 +0.0000000000000000e+00 -8.8999987442962087e+00 +1.1538608739850889e-02 -1.0345034495091776e+00 -5.9014930264665304e-02
-8.9999999999999840e+00 +9.0799131366041248e+00 +0.0000000000000000e+00 -8.9999987014916361e+00 +1.1538652090440400e-02 -1.0345026427080293e+00 -5.9015452436979615e-02
-9.0999999999999837e+00 +9.0798195780979860e+00 +0.0000000000000000e+00 -9.0999986577252105e+00 +1.1538698379877553e-02 -1.0345018758573283e+00 -5.9015960721396928e-02
-9.1999999999999833e+00 +9.0797249858060702e+00 +0.0000000000000000e+00 -9.1999986129862474e+00 +1.1538747847271522e-02 -1.0345011546593708e+00 -5.9016455317612009e-02
-9.2999999999999829e+00 +9.0796293597291076e+00 +0.0000000000000000e+00 -9.2999985672640584e+00 +1.1538800731809776e-02 -1.0345004848157120e+00 -5.9016936425409595e-02
-9.3999999999999826e+00 +9.0795326998677783e+00 +0.0000000000000000e+00 -9.3999985205479586e+00 +1.1538857272760321e-02 -1.0344998720271616e+00 -5.9017404244666741e-02
-9.4999999999999822e+00 +9.0794350062227043e+00 +0.0000000000000000e+00 -9.4999984728272597e+00 +1.1538917709473892e-02 -1.0344993219937699e+00 -5.9017858975355032e-02
-9.5999999999999819e+00 +9.0793362787944449e+00 +0.0000000000000000e+00 -9.5999984240912770e+00 +1.1538982191698627e-02 -1.0344988391551533e+00 -5.9018300878389891e-02
-9.6999999999999815e+00 +9.0792365175834924e+00 +0.0000000000000000e+00 -9.6999983743293239e+00 +1.1539050510506436e-02 -1.0344984229106959e+00 -5.9018730458122587e-02
-9.7999999999999812e+00 +9.0791357225902747e+00 +0.0000000000000000e+00 -9.7999983235307120e+00 +1.1539122367371861e-02 -1.0344980713976981e+00 -5.9019148279683631e-02
-9.8999999999999808e+00 +9.0790338938151525e+00 +0.0000000000000000e+00 -9.8999982716847565e+00 +1.1539197463871144e-02 -1.0344977827509780e+00 -5.9019554908112441e-02
-9.9999999999999805e+00 +9.0789310312584277e+00 +0.0000000000000000e+00 -9.9999982187807692e+00 +1.1539275501684711e-02 -1.0344975551028190e+00 -5.9019950908354435e-02
-1.0099999999999980e+01 +9.0788271349203367e+00 +0.0000000000000000e+00 -1.0099998164808063e+01 +1.1539356182599715e-02 -1.0344973865829192e+00 -5.9020336845258745e-02
-1.0199999999999980e+01 +9.0787222048010605e+00 +0.0000000000000000e+00 -1.0199998109755953e+01 +1.1539439208512513e-02 -1.0344972753183381e+00 -5.9020713283575596e-02
-1.0299999999999979e+01 +9.0786162409007218e+00 +0.0000000000000000e+00 -1.0299998053613750e+01 +1.1539524281431186e-02 -1.0344972194334487e+00 -5.9021080787953650e-02
-1.0399999999999979e+01 +9.0785092432193863e+00 +0.0000000000000000e+00 -1.0399997996370770e+01 +1.1539611103478059e-02 -1.0344972170498823e+00 -5.9021439922937541e-02
-1.0499999999999979e+01 +9.0784012117570700e+00 +0.0000000000000000e+00 -1.0499997938016323e+01 +1.1539699376892212e-02 -1.0344972662864806e+00 -5.9021791252965312e-02
-1.0599999999999978e+01 +9.0782921465137338e+00 +0.0000000000000000e+00 -1.0599997878539723e+01 +1.1539788804031980e-02 -1.0344973652592417e+00 -5.9022135342365854e-02
-1.0699999999999978e+01 +9.0781820474892907e+00 +0.0000000000000000e+00 -1.0699997817930283e+01 +1.1539879087377500e-02 -1.0344975120812701e+00 -5.9022472755356319e-02
-1.0799999999999978e+01 +9.0780709146836074e+00 +0.0000000000000000e+00 -1.0799997756177316e+01 +1.1539969929533196e-02 -1.0344977048627246e+00 -5.9022804056039595e-02
-1.0899999999999977e+01 +9.0779587480965027e+00 +0.0000000000000000e+00 -1.0899997693270134e+01 +1.1540061033230322e-02 -1.0344979417107685e+00 -5.9023129808401763e-02
-1.0999999999999977e+01 +9.0778455477277511e+00 +0.0000000000000000e+00 -1.0999997629198051e+01 +1.1540152101329486e-02 -1.0344982207295150e+00 -5.9023450576309547e-02
-1.1099999999999977e+01 +9.0777313135770861e+00 +0.0000000000000000e+00 -1.1099997563950378e+01 +1.1540242836823152e-02 -1.0344985400199802e+00 -5.9023766923507651e-02
-1.1199999999999976e+01 +9.0776160456442021e+00 +0.0000000000000000e+00 -1.1199997497516430e+01 +1.1540332942838204e-02 -1.0344988976800285e+00 -5.9024079413616454e-02
-1.1299999999999976e+01 +9.0774997439287528e+00 +0.0000000000000000e+00 -1.1299997429885517e+01 +1.1540422122638420e-02 -1.0344992918043214e+00 -5.9024388610129160e-02
-1.1399999999999975e+01 +9.0773824084303580e+00 +0.0000000000000000e+00 -1.1399997361046951e+01 +1.1540510079627080e-02 -1.0344997204842692e+00 -5.9024695076409457e-02
-1.1499999999999975e+01 +9.0772640391486021e+00 +0.0000000000000000e+00 -1.1499997290990047e+01 +1.1540596517349413e-02 -1.0345001818079749e+00 -5.9024999375688926e-02
-1.1599999999999975e+01 +9.0771446360830357e+00 +0.0000000000000000e+00 -1.1599997219704116e+01 +1.1540681253913278e-02 -1.0345006744464180e+00 -5.9025301955062483e-02
-1.1699999999999974e+01 +9.0770241992331808e+00 +0.0000000000000000e+00 -1.1699997147178470e+01 +1.1540764565161517e-02 -1.0345011994139828e+00 -5.9025602797562714e-02
