# field on trajectory
# s[mm] rx[mm] ry[mm] rz[mm] bx[T] by[T] bz[T]
0.0000000000000000e+00 +9.0449999999999999e+00 +0.0000000000000000e+00 +0.0000000000000000e+00 +5.5459534553805881e-02 -1.0153833473045735e+00 -1.1664502940829241e-02
-1.0000000000000001e-01 +9.0449994832495637e+00 +0.0000000000000000e+00 -9.9999999998219791e-02 +5.5457945155458724e-02 -1.0153881964263340e+00 -1.1664382576501962e-02
-2.0000000000000001e-01 +9.0449979329949652e+00 +0.0000000000000000e+00 -1.9999999998575829e-01 +5.5456347379738577e-02 -1.0153930267625482e+00 -1.1664267548719558e-02
-3.0000000000000004e-01 +9.0449953492312893e+00 +0.0000000000000000e+00 -2.9999999995193405e-01 +5.5454741709441764e-02 -1.0153978377999247e+00 -1.1664157358888878e-02
-4.0000000000000002e-01 +9.0449917319536386e+00 +0.0000000000000000e+00 -3.9999999988606549e-01 +5.5453128627367280e-02 -1.0154026290251061e+00 -1.1664051508413842e-02
-5.0000000000000000e-01 +9.0449870811571387e+00 +0.0000000000000000e+00 -4.9999999977747089e-01 +5.5451508616315384e-02 -1.0154073999246889e+00 -1.1663949498696140e-02
-5.9999999999999998e-01 +9.0449813968369330e+00 +0.0000000000000000e+00 -5.9999999961546835e-01 +5.5449882159086111e-02 -1.0154121499852420e+00 -1.1663850831135870e-02
-6.9999999999999996e-01 +9.0449746789881864e+00 +0.0000000000000000e+00 -6.9999999938937585e-01 +5.5448249738477860e-02 -1.0154168786933269e+00 -1.1663755007132275e-02
-7.9999999999999993e-01 +9.0449669276060884e+00 +0.0000000000000000e+00 -7.9999999908851116e-01 +5.5446611837285907e-02 -1.0154215855355146e+00 -1.1663661528084374e-02
-8.9999999999999991e-01 +9.0449581426858465e+00 +0.0000000000000000e+00 -8.9999999870219194e-01 +5.5444968938300962e-02 -1.0154262699984082e+00 -1.1663569895391687e-02
-9.9999999999999989e-01 +9.0449483242226965e+00 +0.0000000000000000e+00 -9.9999999821973573e-01 +5.5443321524307740e-02 -1.0154309315686605e+00 -1.1663479610454880e-02
-1.0999999999999999e+00 +9.0449374722118936e+00 +0.0000000000000000e+00 -1.0999999976304600e+00 +5.5441670078083490e-02 -1.0154355697329926e+00 -1.1663390174676483e-02
-1.2000000000000000e+00 +9.0449255866487182e+00 +0.0000000000000000e+00 -1.1999999969236819e+00 +5.5440015082396550e-02 -1.0154401839782141e+00 -1.1663301089461540e-02
-1.3000000000000000e+00 +9.0449126675284734e+00 +0.0000000000000000e+00 -1.2999999960887185e+00 +5.5438357020004957e-02 -1.0154447737912422e+00 -1.1663211856218301e-02
-1.4000000000000001e+00 +9.0448987148464912e+00 +0.0000000000000000e+00 -1.3999999951148867e+00 +5.5436696373654865e-02 -1.0154493386591210e+00 -1.1663121976358916e-02
-1.5000000000000002e+00 +9.0448837285981263e+00 +0.0000000000000000e+00 -1.4999999939915034e+00 +5.5435033626079190e-02 -1.0154538780690414e+00 -1.1663030951300096e-02
-1.6000000000000003e+00 +9.0448677087787583e+00 +0.0000000000000000e+00 -1.5999999927078852e+00 +5.5433369259996146e-02 -1.0154583915083575e+00 -1.1662938282463805e-02
-1.7000000000000004e+00 +9.0448506553837973e+00 +0.0000000000000000e+00 -1.6999999912533486e+00 +5.5431703758107791e-02 -1.0154628784646103e+00 -1.1662843471277946e-02
-1.8000000000000005e+00 +9.0448325684086761e+00 +0.0000000000000000e+00 -1.7999999896172101e+00 +5.5430037603098600e-02 -1.0154673384255435e+00 -1.1662746019177028e-02
-1.9000000000000006e+00 +9.0448134478488580e+00 +0.0000000000000000e+00 -1.8999999877887859e+00 +5.5428371277633941e-02 -1.0154717708791245e+00 -1.1662645427602866e-02
-2.0000000000000004e+00 +9.0447932936998345e+00 +0.0000000000000000e+00 -1.9999999857573920e+00 +5.5426705264358701e-02 -1.0154761753135628e+00 -1.1662541198005243e-02
-2.1000000000000005e+00 +9.0447721059571240e+00 +0.0000000000000000e+00 -2.0999999835123448e+00 +5.5425040078017206e-02 -1.0154805509604479e+00 -1.1662432963153576e-02
-2.2000000000000006e+00 +9.0447498846162748e+00 +0.0000000000000000e+00 -2.1999999810429598e+00 +5.5423376361827523e-02 -1.0154848960240386e+00 -1.1662320881070401e-02
-2.3000000000000007e+00 +9.0447266296728674e+00 +0.0000000000000000e+00 -2.2999999783385525e+00 +5.5421714791137271e-02 -1.0154892084517675e+00 -1.1662205241098183e-02
-2.4000000000000008e+00 +9.0447023411225160e+00 +0.0000000000000000e+00 -2.3999999753884391e+00 +5.5420056041307335e-02 -1.0154934861910903e+00 -1.1662086332588669e-02
-2.5000000000000009e+00 +9.0446770189608685e+00 +0.0000000000000000e+00 -2.4999999721819348e+00 +5.5418400787714366e-02 -1.0154977271894767e+00 -1.1661964444903425e-02
-2.6000000000000010e+00 +9.0446506631836101e+00 +0.0000000000000000e+00 -2.5999999687083548e+00 +5.5416749705753360e-02 -1.0155019293944010e+00 -1.1661839867414392e-02
-2.7000000000000011e+00 +9.0446232737864669e+00 +0.0000000000000000e+00 -2.6999999649570143e+00 +5.5415103470840013e-02 -1.0155060907533304e+00 -1.1661712889504407e-02
-2.8000000000000012e+00 +9.0445948507652076e+00 +0.0000000000000000e+00 -2.7999999609172286e+00 +5.5413462758413377e-02 -1.0155102092137160e+00 -1.1661583800567759e-02
-2.9000000000000012e+00 +9.0445653941156419e+00 +0.0000000000000000e+00 -2.8999999565783123e+00 +5.5411828243938331e-02 -1.0155142827229806e+00 -1.1661452890010721e-02
-3.0000000000000013e+00 +9.0445349038336289e+00 +0.0000000000000000e+00 -2.9999999519295808e+00 +5.5410200602908001e-02 -1.0155183092285114e+00 -1.1661320447252091e-02
-3.1000000000000014e+00 +9.0445033799150725e+00 +0.0000000000000000e+00 -3.0999999469603483e+00 +5.5408580510846378e-02 -1.0155222866776470e+00 -1.1661186761723757e-02
-3.2000000000000015e+00 +9.0444708223559278e+00 +0.0000000000000000e+00 -3.1999999416599296e+00 +5.5406968643310794e-02 -1.0155262130176692e+00 -1.1661052122871192e-02
-3.3000000000000016e+00 +9.0444372311522017e+00 +0.0000000000000000e+00 -3.2999999360176395e+00 +5.5405365675894429e-02 -1.0155300861957912e+00 -1.1660916820154058e-02
-3.4000000000000017e+00 +9.0444026062999558e+00 +0.0000000000000000e+00 -3.3999999300227923e+00 +5.5403772284228790e-02 -1.0155339041591480e+00 -1.1660781143046689e-02
-3.5000000000000018e+00 +9.0443669477953090e+00 +0.0000000000000000e+00 -3.4999999236647024e+00 +5.5402189143986272e-02 -1.0155376648547876e+00 -1.1660645381038677e-02
-3.6000000000000019e+00 +9.0443302556344367e+00 +0.0000000000000000e+00 -3.5999999169326835e+00 +5.5400616930882635e-02 -1.0155413662296573e+00 -1.1660509823635401e-02
-3.7000000000000020e+00 +9.0442925298135766e+00 +0.0000000000000000e+00 -3.6999999098160501e+00 +5.5399056320679513e-02 -1.0155450062305968e+00 -1.1660374760358553e-02
-3.8000000000000020e+00 +9.0442537703290267e+00 +0.0000000000000000e+00 -3.7999999023041164e+00 +5.5397507989186960e-02 -1.0155485828043269e+00 -1.1660240480746731e-02
-3.9000000000000021e+00 +9.0442139771771508e+00 +0.0000000000000000e+00 -3.8999998943861964e+00 +5.5395972612265899e-02 -1.0155520938974389e+00 -1.1660107274355930e-02
-4.0000000000000018e+00 +9.0441731503543803e+00 +0.0000000000000000e+00 -3.9999998860516035e+00 +5.5394450865830717e-02 -1.0155555374563843e+00 -1.1659975430760123e-02
-4.1000000000000014e+00 +9.0441312898572139e+00 +0.0000000000000000e+00 -4.0999998772896520e+00 +5.5392943337292631e-02 -1.0155589122344906e+00 -1.1659845177628445e-02
-4.2000000000000011e+00 +9.0440883956822216e+00 +0.0000000000000000e+00 -4.1999998680896553e+00 +5.5391450259861502e-02 -1.0155622202130852e+00 -1.1659716494944863e-02
-4.3000000000000007e+00 +9.0440444678260405e+00 +0.0000000000000000e+00 -4.2999998584409269e+00 +5.5389971778185221e-02 -1.0155654641804910e+00 -1.1659589300760812e-02
-4.4000000000000004e+00 +9.0439995062853740e+00 +0.0000000000000000e+00 -4.3999998483327802e+00 +5.5388508036902415e-02 -1.0155686469250069e+00 -1.1659463513115288e-02
-4.5000000000000000e+00 +9.0439535110569853e+00 +0.0000000000000000e+00 -4.4999998377545296e+00 +5.5387059180641032e-02 -1.0155717712349046e+00 -1.1659339050033600e-02
-4.5999999999999996e+00 +9.0439064821377002e+00 +0.0000000000000000e+00 -4.5999998266954876e+00 +5.5385625354016615e-02 -1.0155748398984283e+00 -1.1659215829526063e-02
-4.6999999999999993e+00 +9.0438584195244012e+00 +0.0000000000000000e+00 -4.6999998151449676e+00 +5.5384206701631016e-02 -1.0155778557037931e+00 -1.1659093769586744e-02
-4.7999999999999989e+00 +9.0438093232140222e+00 +0.0000000000000000e+00 -4.7999998030922830e+00 +5.5382803368070659e-02 -1.0155808214391826e+00 -1.1658972788192210e-02
-4.8999999999999986e+00 +9.0437591932035488e+00 +0.0000000000000000e+00 -4.8999997905267474e+00 +5.5381415497905109e-02 -1.0155837398927459e+00 -1.1658852803300208e-02
-4.9999999999999982e+00 +9.0437080294900163e+00 +0.0000000000000000e+00 -4.9999997774376732e+00 +5.5380043235685551e-02 -1.0155866138526009e+00 -1.1658733732848458e-02
-5.0999999999999979e+00 +9.0436558320705061e+00 +0.0000000000000000e+00 -5.0999997638143739e+00 +5.5378686725943253e-02 -1.0155894461068278e+00 -1.1658615494753329e-02
-5.1999999999999975e+00 +9.0436026009421386e+00 +0.0000000000000000e+00 -5.1999997496461630e+00 +5.5377346113187939e-02 -1.0155922394434682e+00 -1.1658498006908585e-02
-5.2999999999999972e+00 +9.0435483361020772e+00 +0.0000000000000000e+00 -5.2999997349223520e+00 +5.5376021541906427e-02 -1.0155949966505267e+00 -1.1658381187184113e-02
-5.3999999999999968e+00 +9.0434930375475222e+00 +0.0000000000000000e+00 -5.3999997196322553e+00 +5.5374713156560958e-02 -1.0155977205159652e+00 -1.1658264953424638e-02
-5.4999999999999964e+00 +9.0434367052757043e+00 +0.0000000000000000e+00 -5.4999997037651847e+00 +5.5373421101587730e-02 -1.0156004138277035e+00 -1.1658149223448469e-02
-5.5999999999999961e+00 +9.0433793392838897e+00 +0.0000000000000000e+00 -5.5999996873104534e+00 +5.5372145521395348e-02 -1.0156030793736179e+00 -1.1658033915046205e-02
-5.6999999999999957e+00 +9.0433209395693712e+00 +0.0000000000000000e+00 -5.6999996702573732e+00 +5.5370886560363340e-02 -1.0156057199415389e+00 -1.1657918945979466e-02
-5.7999999999999954e+00 +9.0432615061294666e+00 +0.0000000000000000e+00 -5.7999996525952575e+00 +5.5369644362840524e-02 -1.0156083383192485e+00 -1.1657804233979625e-02
-5.8999999999999950e+00 +9.0432010389615165e+00 +0.0000000000000000e+00 -5.8999996343134189e+00 +5.5368419073143577e-02 -1.0156109372944802e+00 -1.1657689696746508e-02
-5.9999999999999947e+00 +9.0431395380628832e+00 +0.0000000000000000e+00 -5.9999996154011690e+00 +5.5367210835555458e-02 -1.0156135196549172e+00 -1.1657575251947154e-02
-6.0999999999999943e+00 +9.0430770034309429e+00 +0.0000000000000000e+00 -6.0999995958478213e+00 +5.5366019780344035e-02 -1.0156160877042646e+00 -1.1657460818727722e-02
-6.1999999999999940e+00 +9.0430134350630897e+00 +0.0000000000000000e+00 -6.1999995756426873e+00 +5.5364845981831660e-02 -1.0156186418105466e+00 -1.1657346322259447e-02
-6.2999999999999936e+00 +9.0429488329567302e+00 +0.0000000000000000e+00 -6.2999995547750789e+00 +5.5363689500353926e-02 -1.0156211818580634e+00 -1.1657231689211062e-02
-6.3999999999999932e+00 +9.0428831971092851e+00 +0.0000000000000000e+00 -6.3999995332343094e+00 +5.5362550396242320e-02 -1.0156237077313659e+00 -1.1657116846237018e-02
-6.4999999999999929e+00 +9.0428165275181911e+00 +0.0000000000000000e+00 -6.4999995110096895e+00 +5.5361428729824171e-02 -1.0156262193152608e+00 -1.1657001719977090e-02
-6.5999999999999925e+00 +9.0427488241808991e+00 +0.0000000000000000e+00 -6.5999994880905319e+00 +5.5360324561422446e-02 -1.0156287164948243e+00 -1.1656886237056047e-02
-6.6999999999999922e+00 +9.0426800870948743e+00 +0.0000000000000000e+00 -6.6999994644661491e+00 +5.5359237951355646e-02 -1.0156311991554101e+00 -1.1656770324083255e-02
-6.7999999999999918e+00 +9.0426103162575977e+00 +0.0000000000000000e+00 -6.7999994401258519e+00 +5.5358168959937525e-02 -1.0156336671826613e+00 -1.1656653907652343e-02
-6.8999999999999915e+00 +9.0425395116665648e+00 +0.0000000000000000e+00 -6.8999994150589528e+00 +5.5357117647477062e-02 -1.0156361204625186e+00 -1.1656536914340848e-02
-6.9999999999999911e+00 +9.0424676733192850e+00 +0.0000000000000000e+00 -6.9999993892547634e+00 +5.5356084074278236e-02 -1.0156385588812320e+00 -1.1656419270709806e-02
-7.0999999999999908e+00 +9.0423948012132858e+00 +0.0000000000000000e+00 -7.0999993627025955e+00 +5.5355068300639888e-02 -1.0156409823253709e+00 -1.1656300903303442e-02
-7.1999999999999904e+00 +9.0423208953461067e+00 +0.0000000000000000e+00 -7.1999993353917606e+00 +5.5354070386855539e-02 -1.0156433906818318e+00 -1.1656181738648772e-02
-7.2999999999999901e+00 +9.0422459557153054e+00 +0.0000000000000000e+00 -7.2999993073115697e+00 +5.5353090393213282e-02 -1.0156457838378530e+00 -1.1656061703255286e-02
-7.3999999999999897e+00 +9.0421699823184536e+00 +0.0000000000000000e+00 -7.3999992784513351e+00 +5.5352128379995577e-02 -1.0156481616810209e+00 -1.1655940723614535e-02
-7.4999999999999893e+00 +9.0420929751531389e+00 +0.0000000000000000e+00 -7.4999992488003677e+00 +5.5351184407479069e-02 -1.0156505240992804e+00 -1.1655818726199800e-02
-7.5999999999999890e+00 +9.0420149342169651e+00 +0.0000000000000000e+00 -7.5999992183479792e+00 +5.5350258535934505e-02 -1.0156528709809476e+00 -1.1655695637465727e-02
-7.6999999999999886e+00 +9.0419358595075519e+00 +0.0000000000000000e+00 -7.6999991870834803e+00 +5.5349350825626469e-02 -1.0156552022147176e+00 -1.1655571383847966e-02
-7.7999999999999883e+00 +9.0418557510225366e+00 +0.0000000000000000e+00 -7.7999991549961827e+00 +5.5348461336813370e-02 -1.0156575176896763e+00 -1.1655445891762820e-02
-7.8999999999999879e+00 +9.0417746087595692e+00 +0.0000000000000000e+00 -7.8999991220753980e+00 +5.5347590129747104e-02 -1.0156598172953086e+00 -1.1655319087606862e-02
-7.9999999999999876e+00 +9.0416924327163173e+00 +0.0000000000000000e+00 -7.9999990883104370e+00 +5.5346737264672999e-02 -1.0156621009215097e+00 -1.1655190897756592e-02
-8.0999999999999872e+00 +9.0416092228904663e+00 +0.0000000000000000e+00 -8.0999990536906097e+00 +5.5345902720969037e-02 -1.0156643684469291e+00 -1.1655061308069202e-02
-8.1999999999999869e+00 +9.0415249792797159e+00 +0.0000000000000000e+00 -8.1999990182052276e+00 +5.5345086154570552e-02 -1.0156666197035717e+00 -1.1654930542411238e-02
-8.2999999999999865e+00 +9.0414397018817851e+00 +0.0000000000000000e+00 -8.2999989818436024e+00 +5.5344287140584904e-02 -1.0156688545110928e+00 -1.1654798884186126e-02
-8.3999999999999861e+00 +9.0413533906944075e+00 +0.0000000000000000e+00 -8.3999989445950440e+00 +5.5343505254161672e-02 -1.0156710726883409e+00 -1.1654666616835875e-02
-8.4999999999999858e+00 +9.0412660457153358e+00 +0.0000000000000000e+00 -8.4999989064488641e+00 +5.5342740070493966e-02 -1.0156732740533303e+00 -1.1654534023842493e-02
-8.5999999999999854e+00 +9.0411776669423372e+00 +0.0000000000000000e+00 -8.5999988673943744e+00 +5.5341991164819734e-02 -1.0156754584232150e+00 -1.1654401388729432e-02
-8.6999999999999851e+00 +9.0410882543731983e+00 +0.0000000000000000e+00 -8.6999988274208828e+00 +5.5341258112423110e-02 -1.0156776256142603e+00 -1.1654268995062970e-02
-8.7999999999999847e+00 +9.0409978080057236e+00 +0.0000000000000000e+00 -8.7999987865177030e+00 +5.5340540488635702e-02 -1.0156797754418188e+00 -1.1654137126453629e-02
-8.8999999999999844e+00 +9.0409063278377335e+00 +0.0000000000000000e+00 -8.8999987446741429e+00 +5.5339837868837873e-02 -1.0156819077202994e+00 -1.1654006066557589e-02
-8.9999999999999840e+00 +9.0408138138670679e+00 +0.0000000000000000e+00 -8.9999987018795142e+00 +5.5339149828460110e-02 -1.0156840222631447e+00 -1.1653876099078104e-02
-9.0999999999999837e+00 +9.0407202660915846e+00 +0.0000000000000000e+00 -9.0999986581231287e+00 +5.5338475942984293e-02 -1.0156861188828015e+00 -1.1653747507766907e-02
-9.1999999999999833e+00 +9.0406256845091590e+00 +0.0000000000000000e+00 -9.1999986133942944e+00 +5.5337815787945048e-02 -1.0156881973906950e+00 -1.1653620576425624e-02
-9.2999999999999829e+00 +9.0405300691176862e+00 +0.0000000000000000e+00 -9.2999985676823229e+00 +5.5337168938931078e-02 -1.0156902575972013e+00 -1.1653495588907204e-02
-9.3999999999999826e+00 +9.0404334199150789e+00 +0.0000000000000000e+00 -9.3999985209765242e+00 +5.5336534971586401e-02 -1.0156922993116211e+00 -1.1653372829117305e-02
-9.4999999999999822e+00 +9.0403357368992712e+00 +0.0000000000000000e+00 -9.4999984732662099e+00 +5.5335913461611742e-02 -1.0156943223421531e+00 -1.1653252581015726e-02
-9.5999999999999819e+00 +9.0402370200682114e+00 +0.0000000000000000e+00 -9.5999984245406900e+00 +5.5335303984765834e-02 -1.0156963264958658e+00 -1.1653135128617827e-02
-9.6999999999999815e+00 +9.0401372694198727e+00 +0.0000000000000000e+00 -9.6999983747892724e+00 +5.5334706116866729e-02 -1.0156983115786726e+00 -1.1653020755995924e-02
-9.7999999999999812e+00 +9.0400364849522443e+00 +0.0000000000000000e+00 -9.7999983240012689e+00 +5.5334119433793100e-02 -1.0157002773953041e+00 -1.1652909747280721e-02
-9.8999999999999808e+00 +9.0399346666633367e+00 +0.0000000000000000e+00 -9.8999982721659912e+00 +5.5333543511485686e-02 -1.0157022237492801e+00 -1.1652802386662716e-02
-9.9999999999999805e+00 +9.0398318145511780e+00 +0.0000000000000000e+00 -9.9999982192727472e+00 +5.5332977925948407e-02 -1.0157041504428852e+00 -1.1652698958393638e-02
-1.0099999999999980e+01 +9.0397279286138197e+00 +0.0000000000000000e+00 -1.0099998165310847e+01 +5.5332422254955028e-02 -1.0157060576236276e+00 -1.1652599611619352e-02
-1.0199999999999980e+01 +9.0396230088493308e+00 +0.0000000000000000e+00 -1.0199998110269602e+01 +5.5331876083114552e-02 -1.0157079468243797e+00 -1.1652503954805257e-02
-1.0299999999999979e+01 +9.0395170552558000e+00 +0.0000000000000000e+00 -1.0299998054138321e+01 +5.5331338996664606e-02 -1.0157098199249395e+00 -1.1652411461183117e-02
-1.0399999999999979e+01 +9.0394100678313318e+00 +0.0000000000000000e+00 -1.0399997996906315e+01 +5.5330810581751072e-02 -1.0157116788056832e+00 -1.1652321603921991e-02
-1.0499999999999979e+01 +9.0393020465740452e+00 +0.0000000000000000e+00 -1.0499997938562892e+01 +5.5330290424425305e-02 -1.0157135253475797e+00 -1.1652233856126543e-02
-1.0599999999999978e+01 +9.0391929914820732e+00 +0.0000000000000000e+00 -1.0599997879097364e+01 +5.5329778110641804e-02 -1.0157153614322101e+00 -1.1652147690835384e-02
-1.0699999999999978e+01 +9.0390829025535560e+00 +0.0000000000000000e+00 -1.0699997818499039e+01 +5.5329273226255603e-02 -1.0157171889417864e+00 -1.1652062581019355e-02
-1.0799999999999978e+01 +9.0389717797866478e+00 +0.0000000000000000e+00 -1.0799997756757229e+01 +5.5328775357019779e-02 -1.0157190097591715e+00 -1.1651977999579856e-02
-1.0899999999999977e+01 +9.0388596231795049e+00 +0.0000000000000000e+00 -1.0899997693861241e+01 +5.5328284088582876e-02 -1.0157208257678951e+00 -1.1651893419347144e-02
-1.0999999999999977e+01 +9.0387464327302922e+00 +0.0000000000000000e+00 -1.0999997629800387e+01 +5.5327799006486461e-02 -1.0157226388521761e+00 -1.1651808313078639e-02
-1.1099999999999977e+01 +9.0386322084371749e+00 +0.0000000000000000e+00 -1.1099997564563974e+01 +5.5327319696162516e-02 -1.0157244508969359e+00 -1.1651722153457262e-02
-1.1199999999999976e+01 +9.0385169502983214e+00 +0.0000000000000000e+00 -1.1199997498141315e+01 +5.5326845742931015e-02 -1.0157262637878244e+00 -1.1651634413089709e-02
-1.1299999999999976e+01 +9.0384006583118985e+00 +0.0000000000000000e+00 -1.1299997430521715e+01 +5.5326376731997265e-02 -1.0157280794112318e+00 -1.1651544564504778e-02
-1.1399999999999975e+01 +9.0382833324760714e+00 +0.0000000000000000e+00 -1.1399997361694489e+01 +5.5325912248449516e-02 -1.0157298996543109e+00 -1.1651452080151666e-02
-1.1499999999999975e+01 +9.0381649727889997e+00 +0.0000000000000000e+00 -1.1499997291648942e+01 +5.5325451877256265e-02 -1.0157317264049948e+00 -1.1651356432398294e-02
-1.1599999999999975e+01 +9.0380455792488359e+00 +0.0000000000000000e+00 -1.1599997220374384e+01 +5.5324995203263942e-02 -1.0157335615520156e+00 -1.1651257093529578e-02
-1.1699999999999974e+01 +9.0379251518537238e+00 +0.0000000000000000e+00 -1.1699997147860124e+01 +5.5324541811194221e-02 -1.0157354069849223e+00 -1.1651153535745770e-02
