# trajectory
# s[mm] rx[mm] ry[mm] rz[mm] px[rad] py[rad] pz[rad]
0.0000000000000000e+00 +9.1205999999999996e+00 +0.0000000000000000e+00 +0.0000000000000000e+00 +0.0000000000000000e+00 +0.0000000000000000e+00 +1.0000000000000000e+00
1.0000000000000001e-01 +9.1205994834353508e+00 +0.0000000000000000e+00 +9.9999999998221067e-02 -1.0331298705867770e-05 +0.0000000000000000e+00 +9.9999999994663213e-01
2.0000000000000001e-01 +9.1205979337391199e+00 +0.0000000000000000e+00 +1.9999999998576853e-01 -2.0662631542297699e-05 +0.0000000000000000e+00 +9.9999999978652787e-01
3.0000000000000004e-01 +9.1205953509079229e+00 +0.0000000000000000e+00 +2.9999999995196869e-01 -3.0993997952610373e-05 +0.0000000000000000e+00 +9.9999999951968610e-01
4.0000000000000002e-01 +9.1205917349384293e+00 +0.0000000000000000e+00 +3.9999999988614776e-01 -4.1325397359090234e-05 +0.0000000000000000e+00 +9.9999999914610582e-01
5.0000000000000000e-01 +9.1205870858273705e+00 +0.0000000000000000e+00 +4.9999999977763188e-01 -5.1656829162985960e-05 +0.0000000000000000e+00 +9.9999999866578604e-01
5.9999999999999998e-01 +9.1205814035715367e+00 +0.0000000000000000e+00 +5.9999999961574702e-01 -6.1988292744597257e-05 +0.0000000000000000e+00 +9.9999999807872586e-01
6.9999999999999996e-01 +9.1205746881677836e+00 +0.0000000000000000e+00 +6.9999999938981905e-01 -7.2319787464222691e-05 +0.0000000000000000e+00 +9.9999999738492429e-01
7.9999999999999993e-01 +9.1205669396130276e+00 +0.0000000000000000e+00 +7.9999999908917385e-01 -8.2651312663106701e-05 +0.0000000000000000e+00 +9.9999999658438032e-01
8.9999999999999991e-01 +9.1205581579042558e+00 +0.0000000000000000e+00 +8.9999999870313707e-01 -9.2982867663524916e-05 +0.0000000000000000e+00 +9.9999999567709319e-01
9.9999999999999989e-01 +9.1205483430385232e+00 +0.0000000000000000e+00 +9.9999999822103436e-01 -1.0331445176878299e-04 +0.0000000000000000e+00 +9.9999999466306200e-01
1.0999999999999999e+00 +9.1205374950129556e+00 +0.0000000000000000e+00 +1.0999999976321913e+00 -1.1364606426321506e-04 +0.0000000000000000e+00 +9.9999999354228597e-01
1.2000000000000000e+00 +9.1205256138247499e+00 +0.0000000000000000e+00 +1.1999999969259334e+00 -1.2397770441218176e-04 +0.0000000000000000e+00 +9.9999999231476433e-01
1.3000000000000000e+00 +9.1205126994711776e+00 +0.0000000000000000e+00 +1.2999999960915860e+00 -1.3430937146206796e-04 +0.0000000000000000e+00 +9.9999999098049630e-01
1.4000000000000001e+00 +9.1204987519495866e+00 +0.0000000000000000e+00 +1.3999999951184745e+00 -1.4464106464028001e-04 +0.0000000000000000e+00 +9.9999998953948110e-01
1.5000000000000002e+00 +9.1204837712574047e+00 +0.0000000000000000e+00 +1.4999999939959241e+00 -1.5497278315524269e-04 +0.0000000000000000e+00 +9.9999998799171808e-01
1.6000000000000003e+00 +9.1204677573921380e+00 +0.0000000000000000e+00 +1.5999999927132600e+00 -1.6530452619639574e-04 +0.0000000000000000e+00 +9.9999998633720666e-01
1.7000000000000004e+00 +9.1204507103513759e+00 +0.0000000000000000e+00 +1.6999999912598072e+00 -1.7563629293419002e-04 +0.0000000000000000e+00 +9.9999998457594608e-01
1.8000000000000005e+00 +9.1204326301327896e+00 +0.0000000000000000e+00 +1.7999999896248908e+00 -1.8596808252008325e-04 +0.0000000000000000e+00 +9.9999998270793589e-01
1.9000000000000006e+00 +9.1204135167341391e+00 +0.0000000000000000e+00 +1.8999999877978360e+00 -1.9629989408653548e-04 +0.0000000000000000e+00 +9.9999998073317553e-01
2.0000000000000004e+00 +9.1203933701532698e+00 +0.0000000000000000e+00 +1.9999999857679676e+00 -2.0663172674700406e-04 +0.0000000000000000e+00 +9.9999997865166446e-01
2.1000000000000005e+00 +9.1203721903881174e+00 +0.0000000000000000e+00 +2.0999999835246106e+00 -2.1696357959593825e-04 +0.0000000000000000e+00 +9.9999997646340222e-01
2.2000000000000006e+00 +9.1203499774367085e+00 +0.0000000000000000e+00 +2.1999999810570898e+00 -2.2729545170877352e-04 +0.0000000000000000e+00 +9.9999997416838837e-01
2.3000000000000007e+00 +9.1203267312971654e+00 +0.0000000000000000e+00 +2.2999999783547298e+00 -2.3762734214192541e-04 +0.0000000000000000e+00 +9.9999997176662259e-01
2.4000000000000008e+00 +9.1203024519677030e+00 +0.0000000000000000e+00 +2.3999999754068559e+00 -2.4795924993278298e-04 +0.0000000000000000e+00 +9.9999996925810453e-01
2.5000000000000009e+00 +9.1202771394466335e+00 +0.0000000000000000e+00 +2.4999999722027924e+00 -2.5829117409970195e-04 +0.0000000000000000e+00 +9.9999996664283397e-01
2.6000000000000010e+00 +9.1202507937323709e+00 +0.0000000000000000e+00 +2.5999999687318640e+00 -2.6862311364359313e-04 +0.0000000000000000e+00 +9.9999996392081059e-01
2.7000000000000011e+00 +9.1202234148234265e+00 +0.0000000000000000e+00 +2.6999999649833959e+00 -2.7895506756546814e-04 +0.0000000000000000e+00 +9.9999996109203426e-01
2.8000000000000012e+00 +9.1201950027184111e+00 +0.0000000000000000e+00 +2.7999999609467126e+00 -2.8928703488398968e-04 +0.0000000000000000e+00 +9.9999995815650478e-01
2.9000000000000012e+00 +9.1201655574160352e+00 +0.0000000000000000e+00 +2.8999999566111385e+00 -2.9961901463706786e-04 +0.0000000000000000e+00 +9.9999995511422191e-01
3.0000000000000013e+00 +9.1201350789151014e+00 +0.0000000000000000e+00 +2.9999999519659983e+00 -3.0995100588186166e-04 +0.0000000000000000e+00 +9.9999995196518565e-01
3.1000000000000014e+00 +9.1201035672145068e+00 +0.0000000000000000e+00 +3.0999999470006170e+00 -3.2028300769478067e-04 +0.0000000000000000e+00 +9.9999994870939601e-01
3.2000000000000015e+00 +9.1200710223132404e+00 +0.0000000000000000e+00 +3.1999999417043190e+00 -3.3061501917148708e-04 +0.0000000000000000e+00 +9.9999994534685288e-01
3.3000000000000016e+00 +9.1200374442103804e+00 +0.0000000000000000e+00 +3.2999999360664289e+00 -3.4094703942689851e-04 +0.0000000000000000e+00 +9.9999994187755625e-01
3.4000000000000017e+00 +9.1200028329050919e+00 +0.0000000000000000e+00 +3.3999999300762718e+00 -3.5127906759519097e-04 +0.0000000000000000e+00 +9.9999993830150624e-01
3.5000000000000018e+00 +9.1199671883966253e+00 +0.0000000000000000e+00 +3.4999999237231720e+00 -3.6161110282980225e-04 +0.0000000000000000e+00 +9.9999993461870285e-01
3.6000000000000019e+00 +9.1199305106843180e+00 +0.0000000000000000e+00 +3.5999999169964543e+00 -3.7194314430343602e-04 +0.0000000000000000e+00 +9.9999993082914618e-01
3.7000000000000020e+00 +9.1198927997675838e+00 +0.0000000000000000e+00 +3.6999999098854430e+00 -3.8227519120806588e-04 +0.0000000000000000e+00 +9.9999992693283624e-01
3.8000000000000020e+00 +9.1198540556459218e+00 +0.0000000000000000e+00 +3.7999999023794633e+00 -3.9260724275494034e-04 +0.0000000000000000e+00 +9.9999992292977335e-01
3.9000000000000021e+00 +9.1198142783189038e+00 +0.0000000000000000e+00 +3.8999998944678396e+00 -4.0293929817458783e-04 +0.0000000000000000e+00 +9.9999991881995753e-01
4.0000000000000018e+00 +9.1197734677861817e+00 +0.0000000000000000e+00 +3.9999998861398964e+00 -4.1327135671682247e-04 +0.0000000000000000e+00 +9.9999991460338900e-01
4.1000000000000014e+00 +9.1197316240474802e+00 +0.0000000000000000e+00 +4.0999998773849589e+00 -4.2360341765074997e-04 +0.0000000000000000e+00 +9.9999991028006807e-01
4.2000000000000011e+00 +9.1196887471025949e+00 +0.0000000000000000e+00 +4.1999998681923518e+00 -4.3393548026477412e-04 +0.0000000000000000e+00 +9.9999990584999487e-01
4.3000000000000007e+00 +9.1196448369513945e+00 +0.0000000000000000e+00 +4.2999998585513994e+00 -4.4426754386660381e-04 +0.0000000000000000e+00 +9.9999990131316974e-01
4.4000000000000004e+00 +9.1195998935938114e+00 +0.0000000000000000e+00 +4.3999998484514276e+00 -4.5459960778326016e-04 +0.0000000000000000e+00 +9.9999989666959288e-01
4.5000000000000000e+00 +9.1195539170298492e+00 +0.0000000000000000e+00 +4.4999998378817603e+00 -4.6493167136108448e-04 +0.0000000000000000e+00 +9.9999989191926453e-01
4.5999999999999996e+00 +9.1195069072595718e+00 +0.0000000000000000e+00 +4.5999998268317226e+00 -4.7526373396588944e-04 +0.0000000000000000e+00 +9.9999988706218512e-01
4.6999999999999993e+00 +9.1194588642831089e+00 +0.0000000000000000e+00 +4.6999998152906395e+00 -4.8559579498454154e-04 +0.0000000000000000e+00 +9.9999988209835489e-01
4.7999999999999989e+00 +9.1194097881006471e+00 +0.0000000000000000e+00 +4.7999998032478359e+00 -4.9592785382653829e-04 +0.0000000000000000e+00 +9.9999987702777426e-01
4.8999999999999986e+00 +9.1193596787124349e+00 +0.0000000000000000e+00 +4.8999997906926360e+00 -5.0625990992415090e-04 +0.0000000000000000e+00 +9.9999987185044348e-01
4.9999999999999982e+00 +9.1193085361187727e+00 +0.0000000000000000e+00 +4.9999997776143656e+00 -5.1659196273242281e-04 +0.0000000000000000e+00 +9.9999986656636297e-01
5.0999999999999979e+00 +9.1192563603200156e+00 +0.0000000000000000e+00 +5.0999997640023498e+00 -5.2692401172916886e-04 +0.0000000000000000e+00 +9.9999986117553319e-01
5.1999999999999975e+00 +9.1192031513165706e+00 +0.0000000000000000e+00 +5.1999997498459134e+00 -5.3725605641497399e-04 +0.0000000000000000e+00 +9.9999985567795435e-01
5.2999999999999972e+00 +9.1191489091088922e+00 +0.0000000000000000e+00 +5.2999997351343824e+00 -5.4758809631319180e-04 +0.0000000000000000e+00 +9.9999985007362702e-01
5.3999999999999968e+00 +9.1190936336974833e+00 +0.0000000000000000e+00 +5.3999997198570808e+00 -5.5792013096994317e-04 +0.0000000000000000e+00 +9.9999984436255152e-01
5.4999999999999964e+00 +9.1190373250828873e+00 +0.0000000000000000e+00 +5.4999997040033346e+00 -5.6825215995411473e-04 +0.0000000000000000e+00 +9.9999983854472818e-01
5.5999999999999961e+00 +9.1189799832656941e+00 +0.0000000000000000e+00 +5.5999996875624687e+00 -5.7858418285735712e-04 +0.0000000000000000e+00 +9.9999983262015757e-01
5.6999999999999957e+00 +9.1189216082465308e+00 +0.0000000000000000e+00 +5.6999996705238081e+00 -5.8891619929408317e-04 +0.0000000000000000e+00 +9.9999982658884001e-01
5.7999999999999954e+00 +9.1188622000260633e+00 +0.0000000000000000e+00 +5.7999996528766786e+00 -5.9924820890146625e-04 +0.0000000000000000e+00 +9.9999982045077584e-01
5.8999999999999950e+00 +9.1188017586049899e+00 +0.0000000000000000e+00 +5.8999996346104053e+00 -6.0958021133943789e-04 +0.0000000000000000e+00 +9.9999981420596562e-01
5.9999999999999947e+00 +9.1187402839840441e+00 +0.0000000000000000e+00 +5.9999996157143141e+00 -6.1991220629068627e-04 +0.0000000000000000e+00 +9.9999980785440967e-01
6.0999999999999943e+00 +9.1186777761639899e+00 +0.0000000000000000e+00 +6.0999995961777298e+00 -6.3024419346065339e-04 +0.0000000000000000e+00 +9.9999980139610845e-01
6.1999999999999940e+00 +9.1186142351456194e+00 +0.0000000000000000e+00 +6.1999995759899775e+00 -6.4057617257753322e-04 +0.0000000000000000e+00 +9.9999979483106238e-01
6.2999999999999936e+00 +9.1185496609297516e+00 +0.0000000000000000e+00 +6.2999995551403840e+00 -6.5090814339226926e-04 +0.0000000000000000e+00 +9.9999978815927182e-01
6.3999999999999932e+00 +9.1184840535172267e+00 +0.0000000000000000e+00 +6.3999995336182742e+00 -6.6124010567855174e-04 +0.0000000000000000e+00 +9.9999978138073720e-01
6.4999999999999929e+00 +9.1184174129089079e+00 +0.0000000000000000e+00 +6.4999995114129732e+00 -6.7157205923281532e-04 +0.0000000000000000e+00 +9.9999977449545896e-01
6.5999999999999925e+00 +9.1183497391056783e+00 +0.0000000000000000e+00 +6.5999994885138076e+00 -6.8190400387124804e-04 +0.0000000000000000e+00 +9.9999976750343744e-01
6.6999999999999922e+00 +9.1182810321084382e+00 +0.0000000000000000e+00 +6.6999994649101025e+00 -6.9223593939691911e-04 +0.0000000000000000e+00 +9.9999976040467309e-01
6.7999999999999918e+00 +9.1182112919181115e+00 +0.0000000000000000e+00 +6.7999994405911837e+00 -7.0256786556690144e-04 +0.0000000000000000e+00 +9.9999975319916634e-01
6.8999999999999915e+00 +9.1181405185356468e+00 +0.0000000000000000e+00 +6.8999994155463771e+00 -7.1289978208927281e-04 +0.0000000000000000e+00 +9.9999974588691776e-01
6.9999999999999911e+00 +9.1180687119620263e+00 +0.0000000000000000e+00 +6.9999993897650086e+00 -7.2323168862310479e-04 +0.0000000000000000e+00 +9.9999973846792778e-01
7.0999999999999908e+00 +9.1179958721982679e+00 +0.0000000000000000e+00 +7.0999993632364040e+00 -7.3356358477845137e-04 +0.0000000000000000e+00 +9.9999973094219707e-01
7.1999999999999904e+00 +9.1179219992454303e+00 +0.0000000000000000e+00 +7.1999993359498893e+00 -7.4389547011633676e-04 +0.0000000000000000e+00 +9.9999972330972620e-01
7.2999999999999901e+00 +9.1178470931046203e+00 +0.0000000000000000e+00 +7.2999993078947911e+00 -7.5422734414874347e-04 +0.0000000000000000e+00 +9.9999971557051592e-01
7.3999999999999897e+00 +9.1177711537769941e+00 +0.0000000000000000e+00 +7.3999992790604345e+00 -7.6455920633859925e-04 +0.0000000000000000e+00 +9.9999970772456703e-01
7.4999999999999893e+00 +9.1176941812637669e+00 +0.0000000000000000e+00 +7.4999992494361463e+00 -7.7489105609976426e-04 +0.0000000000000000e+00 +9.9999969977188030e-01
7.5999999999999890e+00 +9.1176161755662104e+00 +0.0000000000000000e+00 +7.5999992190112522e+00 -7.8522289279701766e-04 +0.0000000000000000e+00 +9.9999969171245662e-01
7.6999999999999886e+00 +9.1175371366856659e+00 +0.0000000000000000e+00 +7.6999991877750791e+00 -7.9555471574604367e-04 +0.0000000000000000e+00 +9.9999968354629687e-01
7.7999999999999883e+00 +9.1174570646235438e+00 +0.0000000000000000e+00 +7.7999991557169537e+00 -8.0588652421341759e-04 +0.0000000000000000e+00 +9.9999967527340217e-01
7.8999999999999879e+00 +9.1173759593813308e+00 +0.0000000000000000e+00 +7.8999991228262019e+00 -8.1621831741659091e-04 +0.0000000000000000e+00 +9.9999966689377351e-01
7.9999999999999876e+00 +9.1172938209605956e+00 +0.0000000000000000e+00 +7.9999990890921504e+00 -8.2655009452387658e-04 +0.0000000000000000e+00 +9.9999965840741212e-01
8.0999999999999872e+00 +9.1172106493629919e+00 +0.0000000000000000e+00 +8.0999990545041261e+00 -8.3688185465443374e-04 +0.0000000000000000e+00 +9.9999964981431921e-01
8.1999999999999869e+00 +9.1171264445902622e+00 +0.0000000000000000e+00 +8.1999990190514556e+00 -8.4721359687825177e-04 +0.0000000000000000e+00 +9.9999964111449613e-01
8.2999999999999865e+00 +9.1170412066442452e+00 +0.0000000000000000e+00 +8.2999989827234675e+00 -8.5754532021613435e-04 +0.0000000000000000e+00 +9.9999963230794420e-01
8.3999999999999861e+00 +9.1169549355268824e+00 +0.0000000000000000e+00 +8.3999989455094877e+00 -8.6787702363968306e-04 +0.0000000000000000e+00 +9.9999962339466486e-01
8.4999999999999858e+00 +9.1168676312402166e+00 +0.0000000000000000e+00 +8.4999989073988438e+00 -8.7820870607128033e-04 +0.0000000000000000e+00 +9.9999961437465978e-01
8.5999999999999854e+00 +9.1167792937864043e+00 +0.0000000000000000e+00 +8.5999988683808635e+00 -8.8854036638800560e-04 +0.0000000000000000e+00 +9.9999960524793063e-01
8.6999999999999851e+00 +9.1166899231677139e+00 +0.0000000000000000e+00 +8.6999988284448726e+00 -8.9887200346488766e-04 +0.0000000000000000e+00 +9.9999959601447896e-01
8.7999999999999847e+00 +9.1165995193865221e+00 +0.0000000000000000e+00 +8.7999987875802006e+00 -9.0920361621817732e-04 +0.0000000000000000e+00 +9.9999958667430655e-01
8.8999999999999844e+00 +9.1165080824453160e+00 +0.0000000000000000e+00 +8.8999987457761769e+00 -9.1953520360929671e-04 +0.0000000000000000e+00 +9.9999957722741517e-01
8.9999999999999840e+00 +9.1164156123466800e+00 +0.0000000000000000e+00 +8.9999987030221273e+00 -9.2986676464485666e-04 +0.0000000000000000e+00 +9.9999956767380638e-01
9.0999999999999837e+00 +9.1163221090932982e+00 +0.0000000000000000e+00 +9.0999986593073814e+00 -9.4019829837667477e-04 +0.0000000000000000e+00 +9.9999955801348206e-01
9.1999999999999833e+00 +9.1162275726879454e+00 +0.0000000000000000e+00 +9.1999986146212667e+00 -9.5052980390179364e-04 +0.0000000000000000e+00 +9.9999954824644377e-01
9.2999999999999829e+00 +9.1161320031334867e+00 +0.0000000000000000e+00 +9.2999985689531126e+00 -9.6086128036250028e-04 +0.0000000000000000e+00 +9.9999953837269329e-01
9.3999999999999826e+00 +9.1160354004328692e+00 +0.0000000000000000e+00 +9.3999985222922486e+00 -9.7119272694634563e-04 +0.0000000000000000e+00 +9.9999952839223227e-01
9.4999999999999822e+00 +9.1159377645891198e+00 +0.0000000000000000e+00 +9.4999984746280024e+00 -9.8152414288616503e-04 +0.0000000000000000e+00 +9.9999951830506240e-01
9.5999999999999819e+00 +9.1158390956053381e+00 +0.0000000000000000e+00 +9.5999984259497033e+00 -9.9185552746009907e-04 +0.0000000000000000e+00 +9.9999950811118532e-01
9.6999999999999815e+00 +9.1157393934846951e+00 +0.0000000000000000e+00 +9.6999983762466826e+00 -1.0021868799916147e-03 +0.0000000000000000e+00 +9.9999949781060271e-01
9.7999999999999812e+00 +9.1156386582304290e+00 +0.0000000000000000e+00 +9.7999983255082679e+00 -1.0125181998495284e-03 +0.0000000000000000e+00 +9.9999948740331612e-01
9.8999999999999808e+00 +9.1155368898458349e+00 +0.0000000000000000e+00 +9.8999982737237886e+00 -1.0228494864480278e-03 +0.0000000000000000e+00 +9.9999947688932722e-01
9.9999999999999805e+00 +9.1154340883342666e+00 +0.0000000000000000e+00 +9.9999982208825759e+00 -1.0331807392466954e-03 +0.0000000000000000e+00 +9.9999946626863756e-01
1.0099999999999980e+01 +9.1153302536991294e+00 +0.0000000000000000e+00 +1.0099998166973959e+01 -1.0435119577505330e-03 +0.0000000000000000e+00 +9.9999945554124881e-01
1.0199999999999980e+01 +9.1152253859438748e+00 +0.0000000000000000e+00 +1.0199998111987268e+01 -1.0538431415099854e-03 +0.0000000000000000e+00 +9.9999944470716240e-01
1.0299999999999979e+01 +9.1151194850719985e+00 +0.0000000000000000e+00 +1.0299998055911834e+01 -1.0641742901209661e-03 +0.0000000000000000e+00 +9.9999943376637979e-01
1.0399999999999979e+01 +9.1150125510870339e+00 +0.0000000000000000e+00 +1.0399997998736987e+01 -1.0745054032248829e-03 +0.0000000000000000e+00 +9.9999942271890252e-01
1.0499999999999979e+01 +9.1149045839925478e+00 +0.0000000000000000e+00 +1.0499997940452058e+01 -1.0848364805086639e-03 +0.0000000000000000e+00 +9.9999941156473204e-01
1.0599999999999978e+01 +9.1147955837921355e+00 +0.0000000000000000e+00 +1.0599997881046377e+01 -1.0951675217045528e-03 +0.0000000000000000e+00 +9.9999940030386980e-01
1.0699999999999978e+01 +9.1146855504894173e+00 +0.0000000000000000e+00 +1.0699997820509276e+01 -1.1054985265875760e-03 +0.0000000000000000e+00 +9.9999938893631712e-01
1.0799999999999978e+01 +9.1145744840880347e+00 +0.0000000000000000e+00 +1.0799997758830084e+01 -1.1158294949730084e-03 +0.0000000000000000e+00 +9.9999937746207523e-01
1.0899999999999977e+01 +9.1144623845916453e+00 +0.0000000000000000e+00 +1.0899997695998135e+01 -1.1261604267161626e-03 +0.0000000000000000e+00 +9.9999936588114557e-01
1.0999999999999977e+01 +9.1143492520039171e+00 +0.0000000000000000e+00 +1.0999997632002758e+01 -1.1364913217124105e-03 +0.0000000000000000e+00 +9.9999935419352926e-01
1.1099999999999977e+01 +9.1142350863285291e+00 +0.0000000000000000e+00 +1.1099997566833284e+01 -1.1468221798972059e-03 +0.0000000000000000e+00 +9.9999934239922761e-01
1.1199999999999976e+01 +9.1141198875691654e+00 +0.0000000000000000e+00 +1.1199997500479046e+01 -1.1571530012461076e-03 +0.0000000000000000e+00 +9.9999933049824175e-01
1.1299999999999976e+01 +9.1140036557295083e+00 +0.0000000000000000e+00 +1.1299997432929375e+01 -1.1674837857748026e-03 +0.0000000000000000e+00 +9.9999931849057277e-01
1.1399999999999975e+01 +9.1138863908132368e+00 +0.0000000000000000e+00 +1.1399997364173604e+01 -1.1778145335391299e-03 +0.0000000000000000e+00 +9.9999930637622181e-01
1.1499999999999975e+01 +9.1137680928240226e+00 +0.0000000000000000e+00 +1.1499997294201064e+01 -1.1881452446351045e-03 +0.0000000000000000e+00 +9.9999929415518984e-01
1.1599999999999975e+01 +9.1136487617655266e+00 +0.0000000000000000e+00 +1.1599997223001086e+01 -1.1984759191989425e-03 +0.0000000000000000e+00 +9.9999928182747777e-01
1.1699999999999974e+01 +9.1135283976413941e+00 +0.0000000000000000e+00 +1.1699997150563004e+01 -1.2088065574070858e-03 +0.0000000000000000e+00 +9.9999926939308659e-01
1.1799999999999974e+01 +9.1134070004552505e+00 +0.0000000000000000e+00 +1.1799997076876148e+01 -1.2191371594762273e-03 +0.0000000000000000e+00 +9.9999925685201718e-01
