# trajectory
# s[mm] rx[mm] ry[mm] rz[mm] px[rad] py[rad] pz[rad]
0.0000000000000000e+00 +9.1388999999999996e+00 +0.0000000000000000e+00 +0.0000000000000000e+00 +0.0000000000000000e+00 +0.0000000000000000e+00 +1.0000000000000000e+00
1.0000000000000001e-01 +9.1388994842915618e+00 +0.0000000000000000e+00 +9.9999999998226952e-02 -1.0314171047859399e-05 +0.0000000000000000e+00 +9.9999999994680899e-01
2.0000000000000001e-01 +9.1388979371653303e+00 +0.0000000000000000e+00 +1.9999999998581569e-01 -2.0628355927444527e-05 +0.0000000000000000e+00 +9.9999999978723553e-01
3.0000000000000004e-01 +9.1388953586199051e+00 +0.0000000000000000e+00 +2.9999999995212795e-01 -3.0942554951795031e-05 +0.0000000000000000e+00 +9.9999999952127916e-01
4.0000000000000002e-01 +9.1388917486538581e+00 +0.0000000000000000e+00 +3.9999999988652540e-01 -4.1256768431368429e-05 +0.0000000000000000e+00 +9.9999999914893956e-01
5.0000000000000000e-01 +9.1388871072657274e+00 +0.0000000000000000e+00 +4.9999999977836973e-01 -5.1570996674039323e-05 +0.0000000000000000e+00 +9.9999999867021616e-01
5.9999999999999998e-01 +9.1388814344540208e+00 +0.0000000000000000e+00 +5.9999999961702244e-01 -6.1885239985922663e-05 +0.0000000000000000e+00 +9.9999999808510853e-01
6.9999999999999996e-01 +9.1388747302172177e+00 +0.0000000000000000e+00 +6.9999999939184521e-01 -7.2199498680438433e-05 +0.0000000000000000e+00 +9.9999999739361622e-01
7.9999999999999993e-01 +9.1388669945537622e+00 +0.0000000000000000e+00 +7.9999999909219954e-01 -8.2513773087375178e-05 +0.0000000000000000e+00 +9.9999999659573868e-01
8.9999999999999991e-01 +9.1388582274620660e+00 +0.0000000000000000e+00 +8.9999999870744674e-01 -9.2828063553710864e-05 +0.0000000000000000e+00 +9.9999999569147535e-01
9.9999999999999989e-01 +9.1388484289405039e+00 +0.0000000000000000e+00 +9.9999999822694829e-01 -1.0314237044360886e-04 +0.0000000000000000e+00 +9.9999999468082579e-01
1.0999999999999999e+00 +9.1388375989874167e+00 +0.0000000000000000e+00 +1.0999999976400656e+00 -1.1345669413841329e-04 +0.0000000000000000e+00 +9.9999999356378932e-01
1.2000000000000000e+00 +9.1388257376011026e+00 +0.0000000000000000e+00 +1.1999999969361599e+00 -1.2377103503664346e-04 +0.0000000000000000e+00 +9.9999999234036552e-01
1.3000000000000000e+00 +9.1388128447798209e+00 +0.0000000000000000e+00 +1.2999999961045925e+00 -1.3408539355398786e-04 +0.0000000000000000e+00 +9.9999999101055370e-01
1.4000000000000001e+00 +9.1387989205217899e+00 +0.0000000000000000e+00 +1.3999999951347244e+00 -1.4439977012329724e-04 +0.0000000000000000e+00 +9.9999998957435321e-01
1.5000000000000002e+00 +9.1387839648251799e+00 +0.0000000000000000e+00 +1.4999999940159168e+00 -1.5471416519457714e-04 +0.0000000000000000e+00 +9.9999998803176349e-01
1.6000000000000003e+00 +9.1387679776881185e+00 +0.0000000000000000e+00 +1.5999999927375308e+00 -1.6502857923497951e-04 +0.0000000000000000e+00 +9.9999998638278398e-01
1.7000000000000004e+00 +9.1387509591086840e+00 +0.0000000000000000e+00 +1.6999999912889272e+00 -1.7534301272879388e-04 +0.0000000000000000e+00 +9.9999998462741391e-01
1.8000000000000005e+00 +9.1387329090849079e+00 +0.0000000000000000e+00 +1.7999999896594672e+00 -1.8565746617743762e-04 +0.0000000000000000e+00 +9.9999998276565261e-01
1.9000000000000006e+00 +9.1387138276147670e+00 +0.0000000000000000e+00 +1.8999999878385114e+00 -1.9597194009944561e-04 +0.0000000000000000e+00 +9.9999998079749930e-01
2.0000000000000004e+00 +9.1386937146961884e+00 +0.0000000000000000e+00 +1.9999999858154207e+00 -2.0628643503045914e-04 +0.0000000000000000e+00 +9.9999997872295332e-01
2.1000000000000005e+00 +9.1386725703270422e+00 +0.0000000000000000e+00 +2.0999999835795555e+00 -2.1660095152321412e-04 +0.0000000000000000e+00 +9.9999997654201378e-01
2.2000000000000006e+00 +9.1386503945051452e+00 +0.0000000000000000e+00 +2.1999999811202771e+00 -2.2691549014752861e-04 +0.0000000000000000e+00 +9.9999997425468001e-01
2.3000000000000007e+00 +9.1386271872282556e+00 +0.0000000000000000e+00 +2.2999999784269454e+00 -2.3723005149028963e-04 +0.0000000000000000e+00 +9.9999997186095113e-01
2.4000000000000008e+00 +9.1386029484940696e+00 +0.0000000000000000e+00 +2.3999999754889210e+00 -2.4754463615543924e-04 +0.0000000000000000e+00 +9.9999996936082625e-01
2.5000000000000009e+00 +9.1385776783002264e+00 +0.0000000000000000e+00 +2.4999999722955644e+00 -2.5785924476395995e-04 +0.0000000000000000e+00 +9.9999996675430458e-01
2.6000000000000010e+00 +9.1385513766442976e+00 +0.0000000000000000e+00 +2.5999999688362356e+00 -2.6817387795099844e-04 +0.0000000000000000e+00 +9.9999996404138514e-01
2.7000000000000011e+00 +9.1385240435237964e+00 +0.0000000000000000e+00 +2.6999999651002948e+00 -2.7848853633438106e-04 +0.0000000000000000e+00 +9.9999996122206702e-01
2.8000000000000012e+00 +9.1384956789361720e+00 +0.0000000000000000e+00 +2.7999999610771025e+00 -2.8880322048313557e-04 +0.0000000000000000e+00 +9.9999995829634925e-01
2.9000000000000012e+00 +9.1384662828788237e+00 +0.0000000000000000e+00 +2.8999999567560182e+00 -2.9911793091462577e-04 +0.0000000000000000e+00 +9.9999995526423091e-01
3.0000000000000013e+00 +9.1384358553490976e+00 +0.0000000000000000e+00 +2.9999999521264020e+00 -3.0943266809454806e-04 +0.0000000000000000e+00 +9.9999995212571102e-01
3.1000000000000014e+00 +9.1384043963442991e+00 +0.0000000000000000e+00 +3.0999999471776136e+00 -3.1974743243692801e-04 +0.0000000000000000e+00 +9.9999994888078858e-01
3.2000000000000015e+00 +9.1383719058616926e+00 +0.0000000000000000e+00 +3.1999999418990130e+00 -3.3006222430411776e-04 +0.0000000000000000e+00 +9.9999994552946270e-01
3.3000000000000016e+00 +9.1383383838985104e+00 +0.0000000000000000e+00 +3.2999999362799595e+00 -3.4037704400679381e-04 +0.0000000000000000e+00 +9.9999994207173237e-01
3.4000000000000017e+00 +9.1383038304519548e+00 +0.0000000000000000e+00 +3.3999999303098125e+00 -3.5069189180395510e-04 +0.0000000000000000e+00 +9.9999993850759672e-01
3.5000000000000018e+00 +9.1382682455192068e+00 +0.0000000000000000e+00 +3.4999999239779318e+00 -3.6100676790292151e-04 +0.0000000000000000e+00 +9.9999993483705474e-01
3.6000000000000019e+00 +9.1382316290974259e+00 +0.0000000000000000e+00 +3.5999999172736765e+00 -3.7132167245933320e-04 +0.0000000000000000e+00 +9.9999993106010554e-01
3.7000000000000020e+00 +9.1381939811837629e+00 +0.0000000000000000e+00 +3.6999999101864058e+00 -3.8163660557714993e-04 +0.0000000000000000e+00 +9.9999992717674813e-01
3.8000000000000020e+00 +9.1381553017753578e+00 +0.0000000000000000e+00 +3.7999999027054789e+00 -3.9195156730865109e-04 +0.0000000000000000e+00 +9.9999992318698161e-01
3.9000000000000021e+00 +9.1381155908693472e+00 +0.0000000000000000e+00 +3.8999998948202550e+00 -4.0226655765443627e-04 +0.0000000000000000e+00 +9.9999991909080510e-01
4.0000000000000018e+00 +9.1380748484628747e+00 +0.0000000000000000e+00 +3.9999998865200928e+00 -4.1258157656342588e-04 +0.0000000000000000e+00 +9.9999991488821782e-01
4.1000000000000014e+00 +9.1380330745530856e+00 +0.0000000000000000e+00 +4.0999998777943514e+00 -4.2289662393286276e-04 +0.0000000000000000e+00 +9.9999991057921889e-01
4.2000000000000011e+00 +9.1379902691371431e+00 +0.0000000000000000e+00 +4.1999998686323892e+00 -4.3321169960831385e-04 +0.0000000000000000e+00 +9.9999990616380741e-01
4.3000000000000007e+00 +9.1379464322122264e+00 +0.0000000000000000e+00 +4.2999998590235657e+00 -4.4352680338367244e-04 +0.0000000000000000e+00 +9.9999990164198260e-01
4.4000000000000004e+00 +9.1379015637755376e+00 +0.0000000000000000e+00 +4.3999998489572389e+00 -4.5384193500116083e-04 +0.0000000000000000e+00 +9.9999989701374381e-01
4.5000000000000000e+00 +9.1378556638243076e+00 +0.0000000000000000e+00 +4.4999998384227675e+00 -4.6415709415133363e-04 +0.0000000000000000e+00 +9.9999989227909025e-01
4.5999999999999996e+00 +9.1378087323558006e+00 +0.0000000000000000e+00 +4.5999998274095102e+00 -4.7447228047307422e-04 +0.0000000000000000e+00 +9.9999988743802126e-01
4.6999999999999993e+00 +9.1377607693673202e+00 +0.0000000000000000e+00 +4.6999998159068248e+00 -4.8478749355352214e-04 +0.0000000000000000e+00 +9.9999988249053617e-01
4.7999999999999989e+00 +9.1377117748562124e+00 +0.0000000000000000e+00 +4.7999998039040701e+00 -4.9510273292799941e-04 +0.0000000000000000e+00 +9.9999987743663443e-01
4.8999999999999986e+00 +9.1376617488198750e+00 +0.0000000000000000e+00 +4.8999997913906048e+00 -5.0541799808000610e-04 +0.0000000000000000e+00 +9.9999987227631548e-01
4.9999999999999982e+00 +9.1376106912557571e+00 +0.0000000000000000e+00 +4.9999997783557859e+00 -5.1573328844122370e-04 +0.0000000000000000e+00 +9.9999986700957877e-01
5.0999999999999979e+00 +9.1375586021613682e+00 +0.0000000000000000e+00 +5.0999997647889730e+00 -5.2604860339151795e-04 +0.0000000000000000e+00 +9.9999986163642385e-01
5.1999999999999975e+00 +9.1375054815342818e+00 +0.0000000000000000e+00 +5.1999997506795239e+00 -5.3636394225894306e-04 +0.0000000000000000e+00 +9.9999985615685039e-01
5.2999999999999972e+00 +9.1374513293721424e+00 +0.0000000000000000e+00 +5.2999997360167965e+00 -5.4667930431974519e-04 +0.0000000000000000e+00 +9.9999985057085794e-01
5.3999999999999968e+00 +9.1373961456726693e+00 +0.0000000000000000e+00 +5.3999997207901487e+00 -5.5699468879836709e-04 +0.0000000000000000e+00 +9.9999984487844629e-01
5.4999999999999964e+00 +9.1373399304336616e+00 +0.0000000000000000e+00 +5.4999997049889382e+00 -5.6731009486745267e-04 +0.0000000000000000e+00 +9.9999983907961520e-01
5.5999999999999961e+00 +9.1372826836530052e+00 +0.0000000000000000e+00 +5.5999996886025238e+00 -5.7762552164785199e-04 +0.0000000000000000e+00 +9.9999983317436447e-01
5.6999999999999957e+00 +9.1372244053286735e+00 +0.0000000000000000e+00 +5.6999996716202634e+00 -5.8794096820862667e-04 +0.0000000000000000e+00 +9.9999982716269398e-01
5.7999999999999954e+00 +9.1371650954587373e+00 +0.0000000000000000e+00 +5.7999996540315149e+00 -5.9825643356705555e-04 +0.0000000000000000e+00 +9.9999982104460383e-01
5.8999999999999950e+00 +9.1371047540413688e+00 +0.0000000000000000e+00 +5.8999996358256368e+00 -6.0857191668864071e-04 +0.0000000000000000e+00 +9.9999981482009392e-01
5.9999999999999947e+00 +9.1370433810748448e+00 +0.0000000000000000e+00 +5.9999996169919863e+00 -6.1888741648711372e-04 +0.0000000000000000e+00 +9.9999980848916448e-01
6.0999999999999943e+00 +9.1369809765575543e+00 +0.0000000000000000e+00 +6.0999995975199219e+00 -6.2920293182444262e-04 +0.0000000000000000e+00 +9.9999980205181571e-01
6.1999999999999940e+00 +9.1369175404880014e+00 +0.0000000000000000e+00 +6.1999995773988017e+00 -6.3951846151083882e-04 +0.0000000000000000e+00 +9.9999979550804785e-01
6.2999999999999936e+00 +9.1368530728648150e+00 +0.0000000000000000e+00 +6.2999995566179843e+00 -6.4983400430476429e-04 +0.0000000000000000e+00 +9.9999978885786123e-01
6.3999999999999932e+00 +9.1367875736867479e+00 +0.0000000000000000e+00 +6.3999995351668266e+00 -6.6014955891293965e-04 +0.0000000000000000e+00 +9.9999978210125628e-01
6.4999999999999929e+00 +9.1367210429526846e+00 +0.0000000000000000e+00 +6.4999995130346875e+00 -6.7046512399035192e-04 +0.0000000000000000e+00 +9.9999977523823358e-01
6.5999999999999925e+00 +9.1366534806616482e+00 +0.0000000000000000e+00 +6.5999994902109256e+00 -6.8078069814663531e-04 +0.0000000000000000e+00 +9.9999976826879378e-01
6.6999999999999922e+00 +9.1365848868127983e+00 +0.0000000000000000e+00 +6.6999994666848988e+00 -6.9109628001617679e-04 +0.0000000000000000e+00 +9.9999976119293743e-01
6.7999999999999918e+00 +9.1365152614054299e+00 +0.0000000000000000e+00 +6.7999994424459658e+00 -7.0141186832822203e-04 +0.0000000000000000e+00 +9.9999975401066532e-01
6.8999999999999915e+00 +9.1364446044389567e+00 +0.0000000000000000e+00 +6.8999994174834844e+00 -7.1172746191325710e-04 +0.0000000000000000e+00 +9.9999974672197800e-01
6.9999999999999911e+00 +9.1363729159129061e+00 +0.0000000000000000e+00 +6.9999993917868135e+00 -7.2204305970301826e-04 +0.0000000000000000e+00 +9.9999973932687614e-01
7.0999999999999908e+00 +9.1363001958269070e+00 +0.0000000000000000e+00 +7.0999993653453117e+00 -7.3235866073050157e-04 +0.0000000000000000e+00 +9.9999973182536017e-01
7.1999999999999904e+00 +9.1362264441806804e+00 +0.0000000000000000e+00 +7.1999993381483378e+00 -7.4267426412997302e-04 +0.0000000000000000e+00 +9.9999972421743077e-01
7.2999999999999901e+00 +9.1361516609740274e+00 +0.0000000000000000e+00 +7.2999993101852505e+00 -7.5298986913697899e-04 +0.0000000000000000e+00 +9.9999971650308839e-01
7.3999999999999897e+00 +9.1360758462068219e+00 +0.0000000000000000e+00 +7.3999992814454085e+00 -7.6330547508835715e-04 +0.0000000000000000e+00 +9.9999970868233345e-01
7.4999999999999893e+00 +9.1359989998789981e+00 +0.0000000000000000e+00 +7.4999992519181706e+00 -7.7362108142224747e-04 +0.0000000000000000e+00 +9.9999970075516642e-01
7.5999999999999890e+00 +9.1359211219905401e+00 +0.0000000000000000e+00 +7.5999992215928955e+00 -7.8393668767810375e-04 +0.0000000000000000e+00 +9.9999969272158762e-01
7.6999999999999886e+00 +9.1358422125414762e+00 +0.0000000000000000e+00 +7.6999991904589411e+00 -7.9425229349670530e-04 +0.0000000000000000e+00 +9.9999968458159738e-01
7.7999999999999883e+00 +9.1357622715318634e+00 +0.0000000000000000e+00 +7.7999991585056678e+00 -8.0456789862016890e-04 +0.0000000000000000e+00 +9.9999967633519582e-01
7.8999999999999879e+00 +9.1356812989617797e+00 +0.0000000000000000e+00 +7.8999991257224336e+00 -8.1488350289196155e-04 +0.0000000000000000e+00 +9.9999966798238316e-01
7.9999999999999876e+00 +9.1355992948313141e+00 +0.0000000000000000e+00 +7.9999990920985971e+00 -8.2519910625691287e-04 +0.0000000000000000e+00 +9.9999965952315950e-01
8.0999999999999872e+00 +9.1355162591405570e+00 +0.0000000000000000e+00 +8.0999990576235188e+00 -8.3551470876122818e-04 +0.0000000000000000e+00 +9.9999965095752474e-01
8.1999999999999869e+00 +9.1354321918895867e+00 +0.0000000000000000e+00 +8.1999990222865549e+00 -8.4583031055250201e-04 +0.0000000000000000e+00 +9.9999964228547888e-01
8.2999999999999865e+00 +9.1353470930784617e+00 +0.0000000000000000e+00 +8.2999989860770675e+00 -8.5614591187973166e-04 +0.0000000000000000e+00 +9.9999963350702159e-01
8.3999999999999861e+00 +9.1352609627072141e+00 +0.0000000000000000e+00 +8.3999989489844129e+00 -8.6646151309333140e-04 +0.0000000000000000e+00 +9.9999962462215264e-01
8.4999999999999858e+00 +9.1351738007758314e+00 +0.0000000000000000e+00 +8.4999989109979506e+00 -8.7677711464514637e-04 +0.0000000000000000e+00 +9.9999961563087170e-01
8.5999999999999854e+00 +9.1350856072842550e+00 +0.0000000000000000e+00 +8.5999988721070402e+00 -8.8709271708364607e-04 +0.0000000000000000e+00 +9.9999960653317821e-01
8.6999999999999851e+00 +9.1349963822323659e+00 +0.0000000000000000e+00 +8.6999988323010395e+00 -8.9740832100089680e-04 +0.0000000000000000e+00 +9.9999959732907162e-01
8.7999999999999847e+00 +9.1349061256199864e+00 +0.0000000000000000e+00 +8.7999987915693083e+00 -9.0772392697952605e-04 +0.0000000000000000e+00 +9.9999958801855138e-01
8.8999999999999844e+00 +9.1348148374468821e+00 +0.0000000000000000e+00 +8.8999987499012043e+00 -9.1803953558790242e-04 +0.0000000000000000e+00 +9.9999957860161681e-01
8.9999999999999840e+00 +9.1347225177127633e+00 +0.0000000000000000e+00 +8.9999987072860854e+00 -9.2835514738013746e-04 +0.0000000000000000e+00 +9.9999956907826737e-01
9.0999999999999837e+00 +9.1346291664172821e+00 +0.0000000000000000e+00 +9.0999986637133112e+00 -9.3867076289608708e-04 +0.0000000000000000e+00 +9.9999955944850250e-01
9.1999999999999833e+00 +9.1345347835600421e+00 +0.0000000000000000e+00 +9.1999986191722396e+00 -9.4898638266135331e-04 +0.0000000000000000e+00 +9.9999954971232152e-01
9.2999999999999829e+00 +9.1344393691405923e+00 +0.0000000000000000e+00 +9.2999985736522284e+00 -9.5930200718728569e-04 +0.0000000000000000e+00 +9.9999953986972379e-01
9.3999999999999826e+00 +9.1343429231584299e+00 +0.0000000000000000e+00 +9.3999985271426372e+00 -9.6961763697098289e-04 +0.0000000000000000e+00 +9.9999952992070873e-01
9.4999999999999822e+00 +9.1342454456130060e+00 +0.0000000000000000e+00 +9.4999984796328238e+00 -9.7993327249529380e-04 +0.0000000000000000e+00 +9.9999951986527569e-01
9.5999999999999819e+00 +9.1341469365037238e+00 +0.0000000000000000e+00 +9.5999984311121462e+00 -9.9024891422881916e-04 +0.0000000000000000e+00 +9.9999950970342399e-01
9.6999999999999815e+00 +9.1340473958299384e+00 +0.0000000000000000e+00 +9.6999983815699622e+00 -1.0005645626259124e-03 +0.0000000000000000e+00 +9.9999949943515298e-01
9.7999999999999812e+00 +9.1339468235909624e+00 +0.0000000000000000e+00 +9.7999983309956296e+00 -1.0108802181266812e-03 +0.0000000000000000e+00 +9.9999948906046199e-01
9.8999999999999808e+00 +9.1338452197860622e+00 +0.0000000000000000e+00 +9.8999982793785062e+00 -1.0211958811569884e-03 +0.0000000000000000e+00 +9.9999947857935045e-01
9.9999999999999805e+00 +9.1337425844144651e+00 +0.0000000000000000e+00 +9.9999982267079517e+00 -1.0315115521284531e-03 +0.0000000000000000e+00 +9.9999946799181760e-01
1.0099999999999980e+01 +9.1336389174753574e+00 +0.0000000000000000e+00 +1.0099998172973322e+01 -1.0418272314384515e-03 +0.0000000000000000e+00 +9.9999945729786288e-01
1.0199999999999980e+01 +9.1335342189678865e+00 +0.0000000000000000e+00 +1.0199998118163977e+01 -1.0521429194701179e-03 +0.0000000000000000e+00 +9.9999944649748551e-01
1.0299999999999979e+01 +9.1334284888911608e+00 +0.0000000000000000e+00 +1.0299998062269273e+01 -1.0624586165923456e-03 +0.0000000000000000e+00 +9.9999943559068494e-01
1.0399999999999979e+01 +9.1333217272442528e+00 +0.0000000000000000e+00 +1.0399998005278567e+01 -1.0727743231597876e-03 +0.0000000000000000e+00 +9.9999942457746038e-01
1.0499999999999979e+01 +9.1332139340262017e+00 +0.0000000000000000e+00 +1.0499997947181217e+01 -1.0830900395128573e-03 +0.0000000000000000e+00 +9.9999941345781129e-01
1.0599999999999978e+01 +9.1331051092360127e+00 +0.0000000000000000e+00 +1.0599997887966582e+01 -1.0934057659776186e-03 +0.0000000000000000e+00 +9.9999940223173700e-01
1.0699999999999978e+01 +9.1329952528726590e+00 +0.0000000000000000e+00 +1.0699997827624017e+01 -1.1037215028645725e-03 +0.0000000000000000e+00 +9.9999939089923673e-01
1.0799999999999978e+01 +9.1328843649350837e+00 +0.0000000000000000e+00 +1.0799997766142882e+01 -1.1140372504674432e-03 +0.0000000000000000e+00 +9.9999937946030992e-01
1.0899999999999977e+01 +9.1327724454221997e+00 +0.0000000000000000e+00 +1.0899997703512533e+01 -1.1243530090630698e-03 +0.0000000000000000e+00 +9.9999936791495592e-01
1.0999999999999977e+01 +9.1326594943328949e+00 +0.0000000000000000e+00 +1.0999997639722325e+01 -1.1346687789114058e-03 +0.0000000000000000e+00 +9.9999935626317404e-01
1.1099999999999977e+01 +9.1325455116660326e+00 +0.0000000000000000e+00 +1.1099997574761620e+01 -1.1449845602555212e-03 +0.0000000000000000e+00 +9.9999934450496375e-01
1.1199999999999976e+01 +9.1324304974204527e+00 +0.0000000000000000e+00 +1.1199997508619772e+01 -1.1553003533216028e-03 +0.0000000000000000e+00 +9.9999933264032437e-01
1.1299999999999976e+01 +9.1323144515949704e+00 +0.0000000000000000e+00 +1.1299997441286138e+01 -1.1656161583189556e-03 +0.0000000000000000e+00 +9.9999932066925523e-01
1.1399999999999975e+01 +9.1321973741883848e+00 +0.0000000000000000e+00 +1.1399997372750075e+01 -1.1759319754400027e-03 +0.0000000000000000e+00 +9.9999930859175579e-01
1.1499999999999975e+01 +9.1320792651994722e+00 +0.0000000000000000e+00 +1.1499997303000940e+01 -1.1862478048602868e-03 +0.0000000000000000e+00 +9.9999929640782548e-01
1.1599999999999975e+01 +9.1319601246269961e+00 +0.0000000000000000e+00 +1.1599997232028091e+01 -1.1965636467384708e-03 +0.0000000000000000e+00 +9.9999928411746364e-01
1.1699999999999974e+01 +9.1318399524697043e+00 +0.0000000000000000e+00 +1.1699997159820885e+01 -1.2068795012163379e-03 +0.0000000000000000e+00 +9.9999927172066982e-01
1.1799999999999974e+01 +9.1317187487263283e+00 +0.0000000000000000e+00 +1.1799997086368677e+01 -1.2171953684187930e-03 +0.0000000000000000e+00 +9.9999925921744337e-01
